2025-10-16 03:05:53    绿光---红外光---红光---X轴---Y轴---Z轴
14112 39457 61138 -3100 5796 14705
14244 39801 61606 -3171 5785 14799
14275 39822 61663 -3147 5720 14808
14211 39604 61414 -3089 5640 14836
14185 39502 61278 -2987 5622 14728
14173 39507 61281 -2940 5519 14752
14178 39532 61327 -2891 5375 14816
14166 39548 61306 -2876 5314 14840
14092 39330 60977 -2874 5304 14749
13957 38958 60447 -2835 5252 14629
13702 38193 59394 -2769 5218 14536
13476 37555 58526 -2735 5227 14469
13262 37005 57694 -2702 5238 14454
12548 34867 54385 -2653 5238 14482
8094 22494 37020 -2603 5254 14496
6550 18686 32406 -2527 5335 14403
7419 21613 36918 -2550 5925 14967
10392 31151 49816 -3085 6519 15419
10466 31523 49557 -3189 6510 13496
9314 28313 45508 -2680 6875 11618
10344 31703 50717 -2670 7787 12302
10832 32903 52540 -2956 8270 13689
10803 32777 52510 -3684 7955 13918
10843 32859 52744 -4072 7561 13444
10917 33047 53102 -3238 7482 14001
11074 33534 53880 -2527 7328 14829
11320 34297 54936 -2368 7027 15006
11395 34490 55205 -2238 6842 15071
11445 34592 55382 -2166 6689 15030
11399 34430 55183 -2118 6550 14861
11395 34438 55161 -2106 6494 14660
11485 34797 55561 -2139 6457 14481
11641 35389 56247 -2237 6507 14313
11781 35920 56844 -2358 6559 14185
11788 36000 56870 -2508 6569 14153
11811 36089 56969 -2774 6603 14150
11899 36379 57292 -3206 6751 14112
12005 36727 57629 -3696 7060 14035
11985 36657 57540 -4117 7315 13919
12026 36825 57786 -4495 7431 13806
12085 37038 58065 -4852 7496 13771
11979 36723 57629 -5171 7534 13777
11769 36081 56791 -5377 7415 13778
11730 36065 56758 -5494 7250 13789
11794 36426 57172 -5827 7136 13666
11954 37115 57993 -5928 7073 13450
12102 37743 58694 -5986 7034 13191
12209 38267 59264 -5997 7049 12946
12273 38633 59617 -5977 7028 12796
12326 38891 59903 -5967 6959 12720
12396 39142 60226 -5974 6892 12672
12442 39385 60485 -6034 6898 12569
12467 39540 60656 -6136 6946 12514
12487 39682 60875 -6297 6992 12630
12490 39741 60926 -6404 6941 12639
12501 39846 61055 -6497 6908 12673
12521 39983 61206 -6566 6946 12634
12553 40156 61419 -6598 6956 12562
12610 40446 61767 -6611 6905 12599
12644 40630 61999 -6626 6834 12687
12684 40827 62263 -6669 6810 12766
12749 41019 62656 -6722 6803 12853
12819 41356 63081 -6900 6801 12937
12878 41676 63461 -7114 6965 12806
12941 41994 63855 -7378 7200 12572
13010 42323 64286 -7641 7463 12316
13071 42624 64683 -7899 7702 12102
13121 42873 65015 -8124 7881 11942
13185 43153 65391 -8291 8011 11739
13217 43284 65572 -8435 8125 11388
13149 43002 65282 -8582 8231 11003
13022 42521 64782 -8703 8342 10741
12943 42221 64522 -8786 8439 10580
12883 42010 64374 -8818 8468 10511
12875 42064 64492 -8812 8483 10552
12964 42500 65038 -8804 8540 10644
13084 43041 65695 -8804 8654 10558
13812 45753 69505 -8809 8837 10302
14728 47047 71222 -8727 8975 10029
13686 44772 68154 -8378 9060 9249
13703 44951 68293 -8361 8704 9641
13778 45340 68721 -8518 8459 10255
13867 45757 69172 -8335 8602 9709
13907 45956 69378 -8276 8574 9664
13949 46121 69581 -8326 8631 9828
13974 46199 69700 -8338 8656 10037
13996 46266 69791 -8305 8551 10344
14019 46335 69887 -8233 8425 10656
14035 46389 69953 -8174 8363 10871
14037 46425 69961 -8201 8361 11030
14055 46545 70083 -8255 8353 11171
14092 46718 70263 -8279 8331 11269
14114 46834 70378 -8289 8349 11292
14118 46887 70441 -8300 8387 11237
14147 47011 70596 -8316 8394 11147
14183 47188 70787 -8337 8409 11051
14534 47617 71872 -8365 8416 11001
13141 39302 63050 -8391 8410 10963
12114 36084 59168 -7106 7811 8105
12103 36647 59703 -6727 7669 10862
12273 37474 60619 -7589 8964 15508
12398 38036 61279 -7393 9204 14104
12477 38393 61670 -6582 8222 12106
12552 38710 62032 -6665 8390 12047
12677 39223 62655 -6606 8292 12242
12801 39710 63232 -6307 7999 12514
12904 40136 63728 -6033 7778 12843
13049 40732 64424 -5881 7694 13148
13213 41412 65229 -5770 7634 13334
13398 42206 66135 -5680 7576 13364
13548 42830 66838 -5584 7496 13236
13615 43101 67143 -5480 7362 13029
13637 43190 67233 -5437 7283 12856
13665 43305 67354 -5480 7293 12784
13699 43439 67527 -5482 7243 12817
13743 43639 67754 -5427 7101 12887
13116 40725 64256 -5424 7027 12913
12390 37348 60801 -5475 7048 12869
12738 38479 62214 -4693 7362 13110
12836 39250 62896 -4197 7753 12994
12181 37937 61020 -5130 7914 13774
12086 37758 60728 -5969 7910 14815
12118 37967 60892 -6015 7589 14037
12135 38193 61044 -5967 7523 13199
12035 37975 60649 -6247 7868 13166
11900 37487 59964 -6297 8015 13278
11786 37080 59388 -6087 7963 13122
11689 36770 58868 -5979 7957 12937
11606 36399 58035 -5991 7992 12880
11376 35329 55937 -5952 7944 12926
23323 64157 94790 -3391 4804 14968
23423 64451 95131 -3244 4636 14999
23410 64497 95217 -3215 4644 14962
23565 65050 95931 -3277 4757 14876
24575 68235 100457 -3339 4865 14783
28133 78900 115020 -3313 4838 14738
32207 91191 131021 -3247 4686 14704
34802 99077 141382 -3204 4683 14658
38479 110704 157194 -3203 4821 14677
46569 134650 188956 -3209 4802 14783
51137 146916 204854 -3141 4610 14831
53171 152583 212304 -3220 4752 14782
54346 155826 216454 -3331 4925 14849
54810 157151 218218 -3364 4833 14999
55744 159887 221808 -3459 4807 15027
56856 163050 225861 -3525 4800 15007
57945 166568 230432 -3571 4782 14995
59609 171439 236719 -3599 4773 14990
61710 177388 244419 -3587 4719 15009
63724 183101 251571 -3553 4661 14971
64578 185595 254446 -3575 4713 14875
65064 187074 256093 -3616 4786 14806
65331 187923 257080 -3611 4785 14780
65596 188698 258019 -3601 4752 14739
65737 189167 258544 -3616 4717 14708
65560 188709 257876 -3653 4699 14713
64553 185859 253916 -3715 4708 14807
62828 180969 247120 -3745 4699 14957
61148 176723 241226 -3688 4648 15035
61769 179271 244513 -3610 4663 15098
64629 188151 257043 -3548 4746 15013
69597 203450 276402 -3454 4783 14831
72225 211905 286625 -3357 5011 14603
74170 218441 294593 -3436 5180 14536
75689 223450 300599 -3435 5184 14561
77666 230571 309339 -3421 5152 14610
79863 238010 318368 -3541 5258 14620
81249 242427 323513 -3763 5516 14601
82414 246157 327772 -3903 5694 14524
83241 248932 331013 -3973 5773 14498
84227 252222 334873 -4018 5802 14525
85060 254972 338071 -4019 5815 14525
85652 257036 340337 -4036 5946 14414
86086 258616 342064 -4137 6175 14316
86468 260030 343575 -4284 6392 14306
86730 261061 344655 -4407 6588 14412
86917 261868 345617 -4430 6725 14475
87327 263536 347549 -4370 6803 14498
87663 265051 349269 -4309 6832 14572
87763 265748 349843 -4286 6782 14610
87559 265369 349255 -4221 6644 14526
87501 265664 349614 -4122 6456 14344
87442 265852 350034 -4100 6333 14210
86992 264732 349016 -4126 6204 14428
86861 264864 350059 -4119 5982 14779
86651 264937 352081 -4038 5783 14891
87821 271161 359161 -4042 5712 14728
88862 276307 365921 -4087 5734 14423
89842 281321 372844 -4046 5838 14140
88702 280833 371922 -3920 6012 14041
88307 285959 374521 -3734 5972 14003
89983 295314 383169 -3676 5970 13746
90630 297319 388183 -3752 6270 13463
94253 298270 397151 -3864 6614 13216
95256 285451 389809 -3979 6882 13125
80570 243267 340935 -4087 7097 13103
55027 172705 250416 -4174 7287 13084
36059 121880 174895 -4235 7428 13089
24275 88769 120872 -4296 7550 13129
16541 62661 80053 -4381 7694 13252
10836 43045 52419 -4501 7899 13499
7396 30328 35905 -4609 8095 13619
5479 22788 26687 -4658 8266 13523
4496 18637 21967 -4635 8474 13419
3586 14547 17280 -4357 8390 13476
2747 10870 13274 -3839 8006 13760
2095 8010 10267 -3479 7840 13747
1650 6098 8241 -3423 7967 12992
1389 4980 7010 -3519 8355 12400
1202 4189 6076 -3580 8707 12952
1064 3598 5317 -3567 8907 13354
944 3111 4715 -2986 8985 12741
859 2835 4319 -2605 8891 12504
822 2660 4091 -2347 9101 12331
782 2569 3891 -2023 9126 12437
763 2532 3691 -1622 8989 12485
757 2546 3507 -1308 9098 12108
759 2620 3428 -1254 9457 11894
798 2786 3507 -1318 9784 11901
829 3032 3752 -1271 9939 11743
45096 294838 422821 -1602 11359 15439
49840 305308 429284 -572 10160 13346
52829 303371 422275 218 10220 12664
57570 282357 411261 764 10203 10786
57807 205949 323551 863 10260 9607
13450 54710 89785 761 10338 9930
4127 18190 23811 413 10608 10496
2343 10381 13365 125 10703 10682
1586 6888 8885 -50 10570 11131
1124 4679 6113 -168 10489 11377
870 3430 4517 -282 10348 11561
750 2806 3714 -479 10336 11967
692 2474 3332 -618 10323 12672
654 2318 3163 -627 10081 13003
650 2218 3059 -564 9893 12914
621 2138 2956 -416 9687 12843
609 2085 2886 -277 9458 12737
610 2068 2869 -144 9253 12537
624 2103 2883 -74 9120 12595
629 2215 2980 -67 9070 12644
711 2634 3399 -79 9128 12495
1228 5371 6488 -318 9573 12719
21450 65111 85009 -396 9744 12947
48053 239211 323052 -188 9618 13560
50159 256721 385961 129 8998 13627
51927 252215 371707 292 9073 12794
60014 223018 309595 322 9386 12398
21881 76047 106945 241 8951 12977
3389 14072 13933 124 8720 13520
1362 5729 5803 53 8779 13288
963 3884 4249 107 8756 12793
797 3062 3586 98 8783 12689
714 2632 3227 57 8755 12755
662 2374 3015 -13 8856 12811
632 2226 2895 -90 9060 12826
613 2118 2835 -111 9115 12828
600 2041 2771 -103 9053 12841
592 1982 2727 -121 9014 12934
590 1940 2704 -128 8962 13059
572 1898 2660 -66 8833 13009
570 1874 2638 -1 8761 12879
566 1841 2613 15 8734 12862
555 1823 2604 29 8637 12786
559 1794 2547 57 8583 12561
542 1769 2504 47 8551 12389
547 1777 2473 -53 8550 12436
548 1823 2491 -246 8790 12681
597 2088 2707 -387 8998 12905
968 4096 4777 -428 9008 13010
19938 63342 74055 -1244 9675 16290
49081 245474 308462 -931 9228 13805
50746 261136 372263 196 8406 10187
52265 254661 357439 -3 8652 12208
56431 208185 289834 -406 8749 12608
17762 63011 84795 -659 8814 13293
3052 12769 12432 -737 8713 13434
1217 5097 5199 -753 8693 13223
836 3272 3665 -732 8645 12966
687 2513 3041 -751 8648 12889
623 2164 2757 -837 8733 12893
585 2007 2633 -931 9228 13805
578 1918 2570 196 8406 10187
564 1883 2533 -3 8652 12208
557 1837 2505 -406 8749 12608
555 1829 2508 -659 8814 13293
552 1826 2516 -737 8713 13434
569 1881 2543 -753 8693 13223
580 1972 2638 -732 8645 12966
626 2231 2893 -751 8648 12889
825 3324 4109 -837 8733 12893
2928 13806 17816 -876 8770 12746
39911 154479 187017 -838 8715 12725
57265 267684 363740 -779 8687 12718
68514 255110 352101 -675 8588 12707
42040 153752 208474 -596 8484 12779
11543 46456 57817 -609 8498 12901
3090 13353 15094 -689 8642 13004
1299 5490 6083 -774 8759 13051
842 3353 3872 -855 8847 13093
701 2614 3162 -947 8994 13172
632 2240 2839 -1038 9052 13261
599 2034 2672 -1042 9274 13056
568 1918 2577 -1107 9368 13250
559 1855 2527 -1158 9007 13725
549 1818 2495 -1049 8934 13483
550 1787 2479 -955 8979 13301
543 1771 2469 -875 8886 13272
531 1756 2457 -819 8903 13008
542 1738 2444 -793 8931 12832
534 1721 2414 -781 8926 12788
521 1680 2369 -773 8928 12714
517 1656 2306 -744 8901 12575
519 1623 2258 -731 8912 12475
509 1627 2218 -765 8956 12475
514 1680 2232 -813 8924 12572
601 2051 2550 -861 8851 12757
1421 6455 7266 -902 8771 12926
30888 111785 126004 -941 8787 13018
52981 238165 315697 -963 8908 12938
53825 227494 308909 -955 9030 12663
55804 204460 272670 -958 9116 12402
28909 101511 125294 -1037 9174 12354
5559 22389 22161 -1164 9193 12581
1403 5826 5328 -1205 9139 12799
770 2973 2959 -1174 9032 12864
624 2232 2439 -1152 8972 12817
568 1924 2229 -1195 9040 12729
524 1749 2113 -1629 9567 14614
512 1663 2061 -1611 9233 13996
507 1626 2056 -1194 8767 12266
508 1633 2062 -1312 9047 13237
509 1653 2097 -1301 8712 13619
520 1693 2123 -1344 8615 13532
536 1718 2168 -1359 8550 13321
532 1751 2208 -1330 8480 13075
540 1806 2286 -1354 8451 12924
554 1892 2393 -1419 8455 12849
617 2050 2642 -1478 8471 12806
703 2500 3163 -1575 8557 12864
1086 4274 4901 -1594 8655 13093
2481 10810 11338 -1538 8590 13237
6576 29559 32190 -1519 8523 13414
19918 86504 107363 -1552 8541 13636
45455 182931 245735 -1573 8601 13790
56899 220609 297504 -1553 8733 13817
58940 228134 309553 -1482 8950 13524
59934 233366 316755 -1364 9170 12972
60395 238666 323023 -1194 9349 12534
60334 242600 327792 -1014 9381 12425
60191 245968 331946 -730 9538 11957
78675 247189 352307 1292 8355 13555
68039 216433 307106 1341 8412 13918
56271 186998 263304 1475 8451 14082
47001 158887 224416 1737 8280 14011
43093 141565 201361 1810 8026 14164
39748 125592 180146 1661 7768 14786
36008 110166 161523 1510 7298 15389
52984 162339 231308 1316 6973 15655
78699 242363 330139 1144 6651 15704
88523 263070 352039 867 6265 14997
66070 197018 270801 1203 5887 14236
55002 169828 225568 1541 5077 13610
43760 139712 178078 1616 4914 13196
29329 96201 121171 1624 5808 12794
18580 64082 77808 506 5186 13085
17081 62426 76726 -68 3870 14255
22597 80699 103843 2429 4179 14458
35800 121004 160076 5600 4228 16003
65079 200815 273674 934 3502 16948
88962 264404 357917 -1267 5138 17043
90603 260984 360493 -2596 6812 17186
90524 263521 348923 -3800 7922 15623
91280 266576 354296 -3377 7878 13086
88314 255813 343776 -2304 7416 11326
80849 235427 318310 -2202 7356 10798
73275 217082 294966 -2608 7741 10437
73885 219731 300524 -6940 7152 11066
81696 239576 329601 -11709 5724 11577
75453 223008 303740 -9605 5298 9690
65333 197088 266480 -7498 5032 7868
29278 91218 108339 -14922 879 -7532
17520 56221 57024 -15443 778 -7534
8741 30512 27132 -16340 775 -6821
5116 18178 17789 -17295 758 -6448
4389 15110 17132 -16033 496 -6549
4275 14102 18331 -14855 -308 -5760
4331 14173 19085 -19069 -1987 -5134
4156 13854 17807 -22168 -3673 -7104
3834 13390 15202 -18838 -3664 -6428
4140 15158 15276 -15355 -5098 -8034
4687 17317 17601 -12731 -5848 -9363
5401 19995 20772 -10873 -6261 -10961
5749 21240 22417 -10614 -5805 -12722
6071 22346 24058 -10042 -5836 -14424
6520 23886 26361 -9923 -5945 -14129
7245 26454 29996 -10530 -5349 -13953
8393 30352 35324 -12418 -4152 -13455
9370 33453 39682 -15287 -197 -12435
10886 38232 46350 -15970 1517 -12109
18335 60136 74977 -16160 2516 -12093
30211 93310 121002 -15861 3813 -11958
24189 77930 95888 -15260 5181 -11874
8259 28287 33358 -14432 5829 -11245
5517 19501 27171 -13693 6388 -10259
4704 17805 22765 -12997 7322 -9880
5087 19282 25138 -12267 8093 -8896
6058 21858 30576 -14584 9202 -405
7055 25182 35555 -13265 9174 935
8377 29070 41570 -11134 3895 -2693
9372 30974 45622 -6695 -1063 -12153
9948 33055 48209 -2526 -3140 -19094
10888 36421 52565 -3191 -3548 -18761
12419 40267 59055 -6727 -2971 -15626
13586 43042 63890 -6541 -1464 -14215
14585 46489 68320 -6042 -137 -12151
15719 50188 73016 -7274 652 -9926
16484 52320 75873 -7402 617 -11380
16843 53413 77071 -7242 -437 -13571
17076 54368 77800 -7230 -559 -13299
16473 53527 75830 -7883 252 -11101
14638 51212 64170 -6650 -3400 -9981
16138 55253 69586 -6488 -4088 -9523
13874 47920 59944 -6709 -4232 -9173
11048 38529 50799 -7400 -3853 -8460
14038 45160 65283 -8239 -3294 -7379
16369 49791 73220 -8649 -2896 -6380
11452 35732 53822 -9055 -2903 -5176
9906 32688 46912 -10051 -2758 -4264
9585 32910 43559 -10448 -2623 -5844
8782 28735 40353 -9179 -2816 -8352
7491 24469 34987 -6866 -7980 -10959
6592 22426 29663 -6143 -14378 -13065
8061 28337 29313 -8619 -12519 -13847
12207 40913 39875 -5680 -10444 -14222
30003 102461 130566 1333 -12264 -14940
45299 156749 208067 -1211 -11200 -13299
14743 49870 51157 -2147 -9112 -11611
5111 20689 18594 -8723 -12219 -12381
6617 29642 37823 -11736 -14595 -14518
1397 5770 8075 -12327 -9878 -11051
488 827 1608 -12804 -5125 -3613
1613 1292 3921 -5561 -6224 -2828
2827 6007 6608 -2070 -7038 -3999
66259 140666 148713 -6867 -5656 -2489
58746 126031 145365 -9192 -8693 -4245
58773 131719 148738 -5202 -17604 -9591
56196 128719 142017 -638 -17773 -9680
56641 129603 143768 -4408 -10794 -4390
60109 134247 158507 -7515 -9324 -1079
61386 133585 164625 -7266 -13495 1489
61361 133237 164711 -9888 -16553 2529
61117 134216 162890 -9534 -15033 1997
60434 134721 159006 -8826 -14534 2382
60183 134562 157985 -8892 -14296 1801
60239 134765 158104 -8921 -14029 658
60968 135426 161210 -9070 -14009 24
61354 135676 162528 -9064 -13943 -13
61146 135794 161185 -9030 -14011 367
60820 135628 159619 -8992 -14078 648
60594 135425 158672 -8953 -14088 794
60893 135655 160132 -8946 -14109 735
61232 135744 161972 -8947 -14109 492
61392 135648 162979 -8948 -14118 450
61409 135515 163152 -8928 -14141 561
61209 135467 162314 -8907 -14153 710
61119 135410 161947 -8944 -14094 668
61177 135419 162299 -8950 -14097 496
61309 135466 162721 -8976 -14094 350
61367 135538 162932 -8999 -14091 327
61307 135650 162471 -9000 -14091 395
61183 135717 161753 -8995 -14092 401
61096 135766 161242 -9001 -14082 361
61131 135833 161383 -9003 -14068 326
61242 135933 161814 -8988 -14065 321
61299 135984 162040 -8983 -14065 451
61319 135986 162113 -8976 -14089 506
61308 135958 162076 -8967 -14108 525
61307 135929 162200 -8964 -14120 509
61379 135882 162582 -8962 -14127 491
61437 135857 162951 -8958 -14123 484
61474 135815 163110 -8954 -14121 478
61452 135832 163026 -8958 -14112 456
61427 135841 162842 -8969 -14100 420
61404 135885 162702 -8988 -14084 387
61427 135963 162736 -9001 -14050 359
61444 136046 162765 -8998 -14045 342
61463 136115 162667 -8997 -14074 336
61441 136163 162541 -8998 -14094 348
61430 136192 162457 -8983 -14100 364
61441 136203 162510 -8976 -14107 383
