2025-10-16 03:05:53    绿光---红外光---红光---X轴---Y轴---Z轴
1585 3243 3992 -14572 -6217 -4442
1584 3240 3989 -14552 -6248 -4426
1584 3242 3990 -14532 -6268 -4419
1583 3236 3990 -14533 -6271 -4389
1583 3240 3990 -14540 -6257 -4419
1582 3239 3991 -14542 -6195 -4523
1581 3207 3984 -14547 -6147 -4508
1581 3204 3982 -14533 -6173 -4488
1581 3203 3983 -14557 -6170 -4524
1582 3215 3987 -14564 -6201 -4487
1579 3207 3982 -14572 -6199 -4491
1578 3204 3982 -14530 -6230 -4539
1579 3204 3983 -14576 -6203 -4404
1580 3206 3984 -14586 -6077 -4521
1579 3204 3983 -14553 -6030 -4706
1578 3201 3982 -14553 -6037 -4746
1581 3203 3981 -14541 -6104 -4672
1581 3201 3980 -14561 -6081 -4664
1581 3200 3981 -14533 -6102 -4645
1578 3199 3979 -14528 -6089 -4630
1577 3199 3981 -14518 -6122 -4609
1578 3197 3980 -14513 -6124 -4618
1577 3196 3981 -14511 -6126 -4630
1578 3196 3979 -14509 -6142 -4610
1578 3195 3978 -14506 -6145 -4630
1578 3195 3977 -14500 -6152 -4634
1578 3193 3977 -14539 -6100 -4645
1579 3192 3978 -14523 -6095 -4656
1580 3190 3978 -14500 -6119 -4650
1578 3190 3978 -14494 -6124 -4658
1578 3188 3977 -14494 -6134 -4658
1578 3190 3980 -14498 -6158 -4647
1579 3189 3979 -14499 -6168 -4645
1578 3187 3978 -14494 -6158 -4644
1578 3187 3977 -14482 -6148 -4644
1577 3186 3977 -14481 -6138 -4650
1578 3184 3974 -14491 -6114 -4690
1576 3185 3974 -14489 -6122 -4694
1578 3183 3974 -14483 -6148 -4658
1577 3182 3974 -14488 -6136 -4660
1576 3182 3974 -14491 -6118 -4656
1577 3183 3974 -14482 -6128 -4640
1576 3180 3974 -14476 -6149 -4646
1576 3179 3973 -14479 -6157 -4659
1577 3178 3974 -14486 -6165 -4661
1575 3179 3974 -14489 -6154 -4669
1577 3177 3974 -14499 -6119 -4692
1576 3178 3975 -14498 -6116 -4708
1577 3177 3974 -14485 -6145 -4699
1577 3175 3973 -14477 -6167 -4692
1576 3173 3972 -14468 -6176 -4693
1576 3174 3972 -14460 -6171 -4700
1576 3173 3973 -14463 -6166 -4702
1577 3172 3971 -14470 -6161 -4693
1578 3172 3971 -14478 -6167 -4685
1577 3172 3971 -14485 -6154 -4696
1576 3174 3973 -14498 -6105 -4733
1576 3172 3972 -14493 -6111 -4749
1577 3170 3971 -14466 -6146 -4732
1576 3169 3971 -14464 -6148 -4720
1577 3168 3969 -14465 -6154 -4721
1576 3167 3972 -14468 -6169 -4715
1576 3166 3971 -14475 -6178 -4710
1576 3165 3969 -14477 -6170 -4724
1576 3165 3970 -14475 -6170 -4720
1575 3165 3971 -14467 -6178 -4712
1575 3164 3972 -14494 -6134 -4734
1576 3163 3971 -14493 -6152 -4733
1576 3163 3969 -14481 -6168 -4740
1575 3161 3969 -14477 -6174 -4746
1574 3161 3969 -14476 -6192 -4749
1576 3162 3970 -14475 -6186 -4746
1575 3160 3969 -14477 -6177 -4740
1577 3160 3967 -14478 -6170 -4745
1575 3160 3968 -14482 -6162 -4751
1575 3158 3968 -14499 -6150 -4776
1573 3156 3968 -14515 -6124 -4801
1574 3156 3967 -14500 -6135 -4797
1574 3156 3966 -14477 -6155 -4781
1574 3155 3967 -14463 -6161 -4764
1575 3155 3966 -14455 -6167 -4759
1573 3153 3965 -14458 -6172 -4768
1575 3156 3970 -14455 -6175 -4772
1577 3156 3968 -14447 -6178 -4770
1577 3154 3967 -14449 -6177 -4758
1575 3153 3966 -14463 -6158 -4757
1575 3153 3966 -14477 -6130 -4793
1573 3151 3965 -14474 -6133 -4804
1575 3151 3965 -14464 -6153 -4785
1573 3148 3963 -14458 -6163 -4779
1573 3148 3964 -14455 -6179 -4780
1576 3149 3963 -14456 -6182 -4775
1574 3148 3964 -14457 -6191 -4776
1575 3147 3962 -14455 -6205 -4780
1572 3146 3965 -14443 -6198 -4760
1573 3145 3963 -14442 -6190 -4760
1574 3144 3962 -14483 -6152 -4789
1573 3143 3962 -14499 -6135 -4801
1573 3144 3962 -14477 -6162 -4797
1574 3144 3962 -14461 -6172 -4797
1573 3144 3961 -14447 -6175 -4806
1575 3142 3961 -14444 -6180 -4806
1572 3141 3961 -14444 -6179 -4807
1574 3140 3960 -14443 -6172 -4815
1572 3140 3961 -14435 -6174 -4815
1573 3140 3959 -14430 -6188 -4825
1573 3139 3960 -14474 -6157 -4831
1573 3137 3959 -14462 -6169 -4811
1572 3138 3958 -14454 -6183 -4806
1575 3140 3959 -14449 -6196 -4818
1574 3139 3960 -14448 -6195 -4826
1572 3136 3959 -14445 -6201 -4830
1572 3135 3958 -14451 -6212 -4836
1572 3134 3959 -14450 -6217 -4836
1571 3134 3958 -14449 -6216 -4834
1570 3132 3959 -14482 -6160 -4842
1570 3132 3958 -14469 -6157 -4837
1571 3132 3956 -14451 -6179 -4830
1571 3134 3958 -14453 -6193 -4818
1572 3131 3958 -14450 -6192 -4823
1571 3132 3955 -14442 -6187 -4826
1571 3131 3957 -14437 -6194 -4819
1572 3130 3956 -14432 -6203 -4822
1572 3130 3956 -14432 -6205 -4837
1572 3129 3956 -14443 -6189 -4844
1573 3128 3955 -14453 -6158 -4863
1573 3127 3956 -14445 -6155 -4887
1572 3128 3955 -14436 -6181 -4878
1573 3127 3954 -14428 -6197 -4865
1570 3126 3955 -14424 -6193 -4861
1571 3125 3957 -14425 -6185 -4848
1571 3124 3955 -14420 -6195 -4836
1571 3124 3956 -14418 -6206 -4842
1570 3124 3954 -14427 -6200 -4845
1569 3124 3954 -14437 -6189 -4844
1573 3122 3953 -14452 -6150 -4858
1572 3122 3953 -14448 -6134 -4868
1571 3121 3953 -14430 -6159 -4867
1571 3122 3953 -14428 -6177 -4861
1570 3121 3954 -14426 -6189 -4875
1571 3120 3954 -14424 -6198 -4893
1571 3121 3952 -14426 -6205 -4887
1571 3120 3951 -14424 -6210 -4880
1572 3119 3951 -14421 -6211 -4883
1572 3119 3952 -14427 -6217 -4878
1571 3118 3951 -14463 -6181 -4879
1570 3117 3951 -14474 -6163 -4907
1571 3116 3951 -14442 -6199 -4927
1571 3116 3954 -14420 -6207 -4910
1569 3114 3952 -14413 -6206 -4881
1570 3114 3950 -14417 -6204 -4880
1569 3113 3951 -14421 -6201 -4894
1569 3114 3952 -14420 -6211 -4896
1569 3115 3950 -14418 -6224 -4898
1571 3113 3949 -14415 -6221 -4905
1570 3113 3949 -14439 -6181 -4913
1570 3112 3950 -14436 -6206 -4917
1569 3112 3950 -14430 -6218 -4917
1570 3111 3949 -14423 -6227 -4919
1570 3111 3948 -14425 -6225 -4916
1571 3108 3947 -14420 -6218 -4900
1570 3109 3947 -14415 -6222 -4896
1569 3109 3948 -14416 -6219 -4913
1570 3108 3948 -14412 -6214 -4922
1571 3109 3950 -14436 -6175 -4922
1570 3107 3950 -14428 -6185 -4921
1570 3106 3949 -14418 -6205 -4908
1568 3106 3949 -14411 -6215 -4912
1570 3105 3948 -14401 -6221 -4919
1569 3106 3949 -14398 -6230 -4908
1568 3101 3945 -14399 -6225 -4954
1569 3099 3945 -14398 -6241 -4947
1569 3100 3947 -14400 -6233 -4946
1567 3100 3946 -14409 -6191 -4966
1568 3098 3946 -14406 -6173 -4983
1570 3099 3946 -14404 -6199 -4965
1569 3100 3946 -14408 -6219 -4953
1570 3100 3946 -14403 -6216 -4955
1569 3098 3946 -14392 -6219 -4960
1568 3096 3944 -14391 -6227 -4951
1568 3096 3947 -14390 -6225 -4940
1568 3094 3943 -14384 -6223 -4939
1568 3095 3943 -14391 -6220 -4935
1571 3096 3946 -14404 -6197 -4954
1570 3095 3946 -14406 -6175 -4957
1568 3095 3945 -14390 -6185 -4949
1567 3092 3943 -14379 -6200 -4955
1568 3091 3943 -14385 -6217 -4951
1568 3093 3943 -14388 -6236 -4955
1567 3091 3942 -14387 -6241 -4972
1568 3090 3943 -14386 -6236 -4987
1566 3090 3943 -14388 -6242 -4984
1567 3091 3942 -14391 -6239 -4966
1567 3090 3943 -14398 -6178 -4970
1568 3089 3942 -14399 -6204 -4966
1567 3089 3943 -14400 -6226 -4963
1567 3088 3941 -14400 -6225 -4969
1566 3087 3941 -14394 -6242 -4981
1566 3087 3941 -14395 -6254 -4994
1566 3087 3942 -14398 -6252 -5001
1569 3085 3940 -14389 -6247 -5009
1566 3082 3940 -14395 -6219 -5004
1568 3080 3940 -14397 -6199 -5009
1567 3080 3939 -14392 -6216 -5010
1567 3081 3939 -14385 -6228 -5022
1567 3080 3938 -14389 -6229 -5041
1567 3079 3939 -14386 -6242 -5042
1566 3079 3937 -14385 -6250 -5034
1567 3080 3938 -14381 -6244 -5040
1566 3079 3938 -14371 -6241 -5035
1567 3079 3940 -14373 -6254 -5023
1567 3078 3938 -14382 -6242 -5032
1565 3078 3936 -14395 -6203 -5031
1567 3077 3938 -14395 -6194 -5024
1566 3078 3937 -14385 -6220 -5040
1566 3078 3938 -14379 -6240 -5050
1566 3077 3937 -14370 -6241 -5042
1568 3075 3936 -14372 -6238 -5045
1568 3076 3937 -14380 -6249 -5054
1567 3075 3936 -14375 -6251 -5066
1566 3075 3938 -14371 -6247 -5072
1568 3075 3936 -14380 -6237 -5059
1566 3074 3937 -14381 -6195 -5048
1566 3074 3937 -14372 -6190 -5035
1565 3073 3937 -14369 -6215 -5029
1567 3073 3934 -14371 -6225 -5043
1568 3073 3936 -14371 -6239 -5055
1567 3072 3936 -14370 -6245 -5046
1566 3072 3935 -14371 -6237 -5029
1567 3072 3935 -14371 -6236 -5033
1566 3071 3935 -14370 -6236 -5037
1567 3071 3936 -14370 -6244 -5045
1566 3071 3936 -14381 -6197 -5085
1566 3069 3935 -14376 -6219 -5083
1566 3070 3935 -14377 -6236 -5077
1567 3070 3935 -14371 -6244 -5081
1567 3070 3934 -14363 -6246 -5088
1567 3069 3934 -14359 -6239 -5079
1567 3068 3934 -14361 -6242 -5066
1566 3067 3936 -14368 -6253 -5067
1567 3066 3935 -14372 -6255 -5082
1567 3067 3934 -14392 -6222 -5086
1567 3066 3935 -14393 -6251 -5079
1567 3066 3934 -14380 -6261 -5074
1567 3065 3933 -14367 -6265 -5082
1566 3065 3932 -14368 -6271 -5088
1567 3064 3933 -14366 -6272 -5099
1567 3064 3933 -14364 -6273 -5096
1566 3063 3934 -14369 -6275 -5080
1566 3063 3932 -14370 -6274 -5083
1566 3065 3932 -14397 -6214 -5122
1565 3063 3933 -14393 -6218 -5125
1567 3062 3932 -14385 -6240 -5112
1567 3062 3932 -14384 -6250 -5100
1566 3063 3932 -14381 -6260 -5100
1566 3063 3933 -14375 -6260 -5097
1565 3063 3934 -14371 -6259 -5097
1566 3061 3935 -14371 -6262 -5107
1566 3059 3934 -14372 -6268 -5107
1564 3059 3934 -14371 -6262 -5108
1565 3060 3935 -14368 -6226 -5113
1566 3058 3934 -14366 -6212 -5115
1566 3058 3932 -14362 -6243 -5113
1566 3058 3932 -14360 -6267 -5110
1566 3059 3929 -14367 -6274 -5117
1565 3058 3929 -14367 -6278 -5125
1565 3061 3932 -14360 -6275 -5120
1565 3060 3933 -14357 -6273 -5122
1565 3058 3930 -14368 -6272 -5117
1565 3056 3930 -14378 -6267 -5100
1566 3055 3928 -14384 -6234 -5118
1565 3054 3929 -14385 -6217 -5132
1565 3055 3929 -14379 -6239 -5114
1565 3054 3929 -14375 -6256 -5117
1565 3054 3929 -14370 -6261 -5132
1566 3052 3929 -14363 -6265 -5142
1565 3051 3929 -14362 -6270 -5138
1565 3053 3929 -14358 -6269 -5137
1565 3053 3929 -14351 -6270 -5127
1564 3052 3928 -14349 -6269 -5112
1565 3053 3928 -14358 -6232 -5116
1565 3053 3929 -14366 -6216 -5115
1564 3050 3928 -14358 -6242 -5129
1565 3049 3929 -14357 -6255 -5144
1566 3050 3928 -14359 -6263 -5152
1565 3050 3928 -14356 -6262 -5158
1565 3050 3928 -14354 -6264 -5156
1565 3051 3929 -14356 -6274 -5160
1565 3053 3930 -14361 -6287 -5158
1565 3051 3931 -14362 -6294 -5154
1563 3049 3928 -14358 -6232 -5116
1564 3050 3929 -14366 -6216 -5115
1564 3050 3929 -14358 -6242 -5129
1564 3050 3928 -14357 -6255 -5144
1563 3049 3928 -14359 -6263 -5152
1563 3046 3926 -14356 -6262 -5158
1563 3046 3927 -14354 -6264 -5156
1568 3048 3930 -14356 -6274 -5160
1567 3048 3929 -14361 -6287 -5158
1565 3048 3927 -14362 -6294 -5154
1565 3047 3927 -14361 -6220 -5153
1565 3045 3927 -14355 -6234 -5145
1564 3044 3927 -14352 -6253 -5149
1564 3044 3925 -14357 -6259 -5161
1563 3044 3924 -14357 -6261 -5167
1564 3045 3926 -14354 -6269 -5166
1564 3044 3928 -14350 -6269 -5173
1564 3045 3927 -14351 -6267 -5177
1565 3045 3927 -14351 -6272 -5160
1563 3041 3927 -14351 -6259 -5149
1563 3041 3926 -14346 -6236 -5146
1562 3042 3925 -14343 -6253 -5148
1562 3043 3926 -14351 -6273 -5145
1564 3042 3925 -14351 -6275 -5155
1564 3042 3927 -14346 -6278 -5151
1567 3043 3925 -14338 -6269 -5145
1564 3042 3926 -14340 -6260 -5148
1564 3041 3925 -14351 -6261 -5137
1565 3042 3925 -14358 -6269 -5150
1565 3042 3925 -14373 -6259 -5173
1565 3031 3919 -14346 -6231 -5209
1565 3031 3921 -14344 -6264 -5208
1563 3032 3921 -14339 -6275 -5188
1564 3031 3923 -14330 -6276 -5183
1562 3031 3924 -14335 -6274 -5184
1563 3030 3923 -14335 -6266 -5194
1563 3031 3921 -14328 -6270 -5203
1565 3030 3921 -14326 -6284 -5195
1564 3030 3922 -14331 -6284 -5194
1564 3030 3922 -14335 -6224 -5215
1564 3029 3921 -14334 -6237 -5202
1563 3030 3923 -14326 -6254 -5200
1563 3027 3925 -14321 -6265 -5209
1563 3029 3924 -14322 -6277 -5210
1564 3027 3922 -14327 -6281 -5212
1563 3028 3922 -14328 -6274 -5202
1564 3027 3921 -14328 -6286 -5196
1563 3026 3921 -14330 -6293 -5205
1564 3027 3922 -14338 -6231 -5229
1562 3026 3920 -14332 -6239 -5223
1563 3022 3919 -14329 -6270 -5227
1563 3023 3924 -14339 -6275 -5230
1564 3023 3929 -14338 -6287 -5234
1564 3023 3928 -14334 -6288 -5250
1563 3025 3932 -14335 -6295 -5250
1564 3025 3924 -14336 -6288 -5246
1565 3022 3921 -14325 -6272 -5269
1563 3022 3919 -14321 -6274 -5241
1563 3021 3920 -14314 -6240 -5223
1563 3023 3921 -14302 -6233 -5253
1564 3023 3922 -14310 -6261 -5252
1563 3022 3919 -14315 -6259 -5235
1563 3021 3919 -14312 -6258 -5227
1563 3019 3919 -14316 -6262 -5235
1562 3003 3917 -14318 -6273 -5244
1561 3000 3916 -14314 -6281 -5246
1563 3009 3918 -14317 -6287 -5254
1562 3015 3919 -14319 -6296 -5266
1563 3014 3918 -14308 -6247 -5251
1561 3009 3918 -14302 -6247 -5274
1562 2997 3916 -14311 -6246 -5170
1560 2998 3917 -14322 -6142 -5287
1560 3000 3917 -14304 -6072 -5486
1562 3003 3917 -14300 -6148 -5420
1560 2981 3914 -14290 -6219 -5323
1561 2962 3924 -14298 -6296 -5209
1563 2907 3926 -14314 -6307 -5180
1577 3037 3961 -14335 -6042 -5508
1582 3202 3931 -14306 -6150 -5440
1623 3663 3985 -14317 -6265 -5329
1649 3908 4017 -14051 -6477 -4939
1634 3753 3986 -14139 -6833 -4473
1645 3936 4016 -14010 -6577 -6403
1679 4258 4080 -13961 -6079 -7892
1647 3894 4020 -14086 -4716 -7375
1622 3613 3994 -14156 -4924 -5071
1626 3503 4041 -11817 -10666 68
1645 3492 4150 -11457 -10735 -1568
1690 3586 4318 -13554 -9208 -1244
1756 3792 4526 -14234 -8577 46
1819 4092 4724 -13456 -9248 -499
1869 4361 4900 -12929 -9850 -1124
1942 4634 5135 -13442 -9259 -1763
1957 4566 5126 -14035 -8435 -1921
1884 4133 4810 -13100 -8914 -4212
1731 3420 4340 -13364 -8561 -5128
1556 2643 3893 -13928 -8355 -4713
1486 2350 3758 -13738 -9421 -3940
1462 2256 3724 -11681 -11563 -4107
1467 2275 3740 -7457 -13986 -4722
1431 2235 3655 6835 -21674 -571
1433 2195 3651 5405 -17106 -1470
1435 2174 3642 4189 -13119 -2304
1431 2159 3622 3643 -11608 -2158
1423 2146 3603 3874 -12962 -926
1417 2159 3596 4516 -15502 530
1417 2171 3597 4932 -16596 1662
1418 2184 3595 4756 -16251 2664
1416 2161 3582 4527 -16634 3924
1410 2134 3573 4889 -19405 5279
1410 2147 3573 5264 -23203 6069
1412 2179 3581 5033 -24686 6468
1423 2262 3608 4578 -23467 6765
1443 2349 3647 4273 -22129 6675
1442 2418 3665 3986 -21333 6383
1464 2515 3694 2356 -16273 5161
1484 2655 3745 1204 -12999 3885
1512 2752 3768 202 -10519 2693
1508 2745 3772 -3 -9535 1694
1500 2722 3754 730 -9718 717
1499 2700 3765 1452 -10041 -1
1482 2606 3722 1962 -10246 -295
1447 2370 3640 2740 -10729 -329
1382 2231 3618 3806 -11627 -76
1460 2259 3615 4804 -13203 580
1450 2260 3663 4962 -14764 1971
1478 2253 3755 5792 -18037 3700
1483 2264 3772 7625 -22723 3996
1501 2303 3814 7616 -22787 3853
1518 2340 3836 6111 -18829 4221
1519 2393 3830 6027 -16904 3794
1562 2467 3860 12392 -21235 -4300
1767 2910 4120 18825 -24988 -17485
1818 2966 4174 14079 -18607 -15955
1742 2870 4088 4199 -17900 334
1760 2871 4084 1001 -25103 740
1726 2810 4046 -2218 -23881 1899
1687 2710 3960 -2306 -19108 -14
1667 2661 3959 -3383 -17048 -1807
1652 2624 3934 -4277 -16075 -1596
1661 2602 3973 -4784 -15233 -1837
1644 2610 3982 -3879 -15439 -2606
1698 2682 4049 -2597 -15749 -2997
1743 2776 4146 -2221 -15543 -3230
1766 2786 4156 -556 -15990 -3543
1774 2829 4185 905 -16563 -3367
1788 2837 4210 1029 -16437 -2958
1787 2841 4211 329 -15803 -2421
1798 2860 4225 -782 -16021 -2470
1806 2861 4238 -547 -16679 -2756
1803 2868 4233 -84 -16468 -2506
1801 2834 4219 77 -16298 -2388
1797 2856 4198 58 -16340 -2268
1803 2841 4194 10 -16439 -2060
1803 2844 4206 102 -16328 -1943
1798 2857 4218 105 -16323 -2030
1786 2860 4254 26 -16386 -2159
1818 2881 4269 16 -16346 -2153
1800 2887 4291 13 -16376 -2082
1804 2886 4276 2 -16381 -2076
1806 2892 4312 -72 -16360 -2082
1798 2893 4288 -113 -16354 -2066
1814 2883 4267 -64 -16365 -2052
1796 2873 4250 -36 -16365 -2051
1831 2875 4232 -57 -16360 -2016
1817 2883 4238 -58 -16364 -1983
1820 2879 4236 -34 -16381 -1975
1809 2881 4249 -24 -16392 -1953
1820 2893 4243 -10 -16393 -1935
1817 2862 4252 -2 -16395 -1925
1810 2884 4277 -6 -16398 -1923
1818 2876 4266 -6 -16399 -1906
1819 2902 4265 -8 -16397 -1877
1832 2888 4270 -11 -16387 -1884
1800 2891 4269 -64 -16360 -1896
1820 2883 4270 -56 -16371 -1881
1813 2893 4304 -43 -16377 -1871
1823 2894 4256 -41 -16381 -1859
1821 2892 4268 -50 -16383 -1845
1818 2884 4246 -55 -16378 -1851
1826 2873 4269 -50 -16382 -1860
1795 2872 4253 -40 -16399 -1841
1816 2874 4256 -34 -16406 -1827
1812 2886 4280 -51 -16386 -1815
1831 2894 4283 -44 -16387 -1801
1844 2950 4327 -45 -16389 -1795
1855 2966 4356 -53 -16388 -1778
1848 2967 4352 -54 -16387 -1777
1856 2967 4351 -57 -16389 -1794
1853 2951 4346 -63 -16402 -1795
