2025-10-09 01:35:03    绿光---红外光---红光---X轴---Y轴---Z轴
50748 307901 280116 -2487 13275 -8482
50782 307903 280107 -2487 13337 -8471
50815 307916 280104 -2450 13484 -8509
50842 307883 280060 -2418 13535 -8542
50870 307862 280033 -2409 13543 -8611
50891 307820 280013 -2425 13591 -8714
50902 307764 279971 -2442 13673 -8776
50908 307714 279918 -2477 13620 -8795
50913 307659 279867 -2541 13582 -8744
50909 307622 279837 -2464 13592 -8725
50911 307596 279812 -2370 13618 -8772
50913 307570 279781 -2269 13715 -8829
50914 307526 279739 -2155 13804 -8865
50913 307503 279712 -2236 13839 -8869
50912 307488 279696 -2286 13842 -8865
50919 307512 279719 -2240 13791 -8815
50928 307518 279752 -2309 13735 -8810
50939 307521 279778 -2389 13745 -8853
50947 307522 279789 -2442 13685 -8889
50954 307541 279793 -2439 13653 -8833
50966 307559 279817 -2481 13675 -8773
50976 307572 279836 -2598 13701 -8775
50987 307563 279830 -2552 13703 -8766
50998 307561 279827 -2467 13722 -8780
51006 307559 279838 -2472 13781 -8796
51019 307574 279861 -2508 13835 -8788
51026 307572 279878 -2543 13831 -8743
51041 307583 279893 -2511 13797 -8702
51057 307591 279902 -2475 13787 -8676
51069 307599 279922 -2477 13775 -8673
51084 307626 279954 -2491 13784 -8676
51102 307644 279969 -2485 13792 -8641
51121 307633 279986 -2440 13784 -8614
51138 307650 279996 -2415 13772 -8616
51155 307667 280009 -2482 13757 -8640
51169 307676 280049 -2549 13782 -8652
51190 307709 280078 -2523 13794 -8666
51210 307721 280102 -2449 13782 -8704
51234 307736 280116 -2453 13763 -8720
51252 307726 280141 -2516 13773 -8724
51272 307709 280156 -2532 13805 -8687
51279 307662 280145 -2523 13821 -8632
51281 307624 280150 -2486 13824 -8617
51282 307595 280158 -2499 13855 -8614
51280 307574 280162 -2539 13865 -8586
51275 307549 280155 -2517 13829 -8572
51261 307533 280159 -2482 13825 -8626
51248 307538 280163 -2331 13836 -8662
51243 307544 280178 -2235 13859 -8672
51246 307566 280192 -2325 13894 -8703
51246 307590 280225 -2315 13888 -8722
51250 307610 280233 -2196 13810 -8708
51256 307634 280239 -2155 13756 -8672
51260 307640 280227 -2205 13745 -8616
51270 307626 280206 -2250 13740 -8579
51276 307625 280201 -2219 13725 -8585
51282 307612 280180 -2197 13726 -8593
51284 307594 280155 -2283 13738 -8587
51285 307576 280132 -2371 13761 -8524
51287 307558 280118 -2282 13793 -8463
51291 307550 280106 -2161 13874 -8473
51298 307559 280097 -2199 13969 -8519
51303 307553 280083 -2299 13975 -8580
51310 307561 280066 -2361 13950 -8648
51314 307558 280039 -2324 13936 -8700
51316 307545 280011 -2258 13928 -8733
51322 307527 279969 -2262 13792 -8822
51328 307521 279938 -2319 13776 -8848
51329 307513 279921 -2371 13748 -8873
51330 307518 279937 -2345 13639 -8853
51334 307525 279928 -2328 13529 -8818
51342 307497 279909 -2334 13525 -8819
51351 307482 279888 -2339 13542 -8848
51357 307484 279893 -2379 13553 -8885
51363 307481 279885 -2402 13541 -8906
51376 307489 279878 -2319 13518 -8990
51385 307497 279868 -2340 13524 -9012
51397 307485 279849 -2383 13522 -9029
51407 307498 279865 -2386 13528 -9063
51420 307484 279836 -2395 13539 -9098
51432 307457 279820 -2486 13541 -9144
51431 307430 279805 -2491 13515 -9161
51431 307385 279798 -2433 13498 -9111
51426 307375 279787 -2472 13502 -9061
51417 307349 279792 -2543 13508 -9070
51405 307328 279804 -2531 13492 -9116
51396 307329 279823 -2370 13468 -9144
51387 307323 279826 -2269 13493 -9146
51382 307334 279831 -2353 13480 -9150
51377 307288 279817 -2402 13397 -9157
51369 307253 279797 -2314 13356 -9132
51368 307233 279764 -2211 13368 -9110
51367 307225 279753 -2197 13391 -9101
51362 307225 279768 -2299 13397 -9096
51364 307229 279797 -2399 13385 -9125
51364 307243 279805 -2369 13431 -9133
51362 307264 279824 -2316 13430 -9137
51364 307270 279837 -2365 13420 -9132
51366 307258 279848 -2359 13451 -9098
51368 307266 279854 -2272 13459 -9078
51369 307263 279852 -2287 13504 -9060
51376 307268 279854 -2361 13518 -9076
51379 307261 279852 -2415 13486 -9081
51384 307257 279842 -2364 13452 -9075
51394 307245 279837 -2275 13421 -9077
51401 307249 279829 -2371 13464 -9112
51412 307244 279833 -2381 13489 -9113
51421 307242 279821 -2324 13462 -9090
51429 307230 279796 -2305 13458 -9079
51438 307239 279791 -2326 13460 -9069
51451 307249 279806 -2317 13438 -9052
51465 307244 279807 -2292 13432 -9052
51478 307256 279800 -2305 13451 -9070
51492 307260 279792 -2352 13457 -9077
51509 307273 279811 -2363 13463 -9066
51524 307282 279808 -2337 13452 -9072
51538 307291 279810 -2328 13450 -9094
51555 307299 279820 -2335 13450 -9111
51575 307315 279824 -2314 13436 -9119
51595 307331 279822 -2304 13441 -9115
51614 307341 279851 -2315 13441 -9094
51639 307358 279858 -2295 13402 -9081
51660 307345 279842 -2297 13455 -9104
51676 307312 279816 -2322 13496 -9115
51689 307265 279804 -2338 13448 -9047
51695 307239 279774 -2370 13455 -9034
51696 307226 279758 -2362 13478 -9081
51693 307182 279719 -2230 13515 -9096
51688 307159 279701 -2130 13519 -9108
51685 307148 279685 -2252 13531 -9129
51681 307149 279678 -2320 13473 -9131
51683 307148 279676 -2251 13424 -9131
51684 307132 279659 -2171 13413 -9117
51683 307128 279629 -2158 13397 -9119
51680 307081 279549 -2220 13397 -9130
51673 306982 279425 -2251 13406 -9175
51665 306867 279322 -2201 13460 -9170
51658 306826 279288 -2189 13481 -9126
51657 306849 279309 -2284 13505 -9141
51655 306909 279398 -2267 13506 -9141
51664 307004 279492 -2121 13438 -9131
51682 307076 279576 -2037 13399 -9164
51697 307134 279640 -2015 13399 -9217
51710 307189 279678 -2051 13426 -9212
51723 307222 279715 -2141 13417 -9157
51738 307228 279728 -2147 13357 -9139
51753 307247 279731 -2108 13348 -9163
51762 307256 279745 -2145 13373 -9162
51776 307290 279770 -2161 13368 -9160
51791 307300 279764 -2090 13394 -9193
51804 307267 279734 -2051 13414 -9205
51817 307277 279735 -2099 13408 -9181
51826 307246 279706 -2124 13462 -9174
51838 307206 279646 -2121 13489 -9190
51847 307157 279588 -2153 13456 -9196
51854 307100 279529 -2150 13427 -9202
51860 307055 279477 -2130 13387 -9229
51869 307026 279434 -2143 13333 -9231
51873 306990 279383 -2141 13300 -9238
51877 306973 279340 -2116 13292 -9277
51882 306954 279314 -2060 13277 -9280
51891 306946 279291 -2026 13265 -9278
51900 306946 279276 -2074 13316 -9300
51907 306941 279255 -2113 13382 -9328
51911 306902 279236 -2151 13367 -9299
51911 306857 279200 -2204 13370 -9260
51903 306835 279182 -2253 13349 -9245
51895 306806 279164 -2242 13331 -9285
51884 306787 279173 -2161 13354 -9319
51873 306787 279178 -2240 13374 -9326
51863 306785 279168 -2369 13349 -9323
51852 306780 279158 -2295 13311 -9309
51845 306803 279188 -2192 13290 -9268
51840 306825 279213 -2265 13331 -9234
51839 306823 279231 -2275 13302 -9235
51841 306849 279242 -2248 13299 -9259
51840 306876 279271 -2181 13327 -9213
51847 306887 279295 -2237 13326 -9198
51855 306919 279313 -2316 13307 -9228
51859 306933 279330 -2203 13324 -9223
51865 306937 279346 -2157 13344 -9242
51867 306945 279365 -2281 13358 -9248
51871 306957 279382 -2361 13367 -9243
51879 306968 279383 -2258 13337 -9256
51884 306982 279389 -2237 13321 -9256
51889 306991 279401 -2301 13327 -9247
51897 307031 279434 -2294 13326 -9247
51902 307043 279446 -2225 13329 -9259
51914 307067 279465 -2203 13334 -9250
51927 307095 279484 -2221 13315 -9234
51936 307103 279486 -2263 13315 -9221
51952 307123 279502 -2303 13346 -9229
51966 307151 279532 -2306 13372 -9253
51981 307195 279554 -2276 13337 -9254
52000 307216 279579 -2259 13310 -9251
52016 307241 279599 -2237 13316 -9249
52032 307261 279608 -2206 13300 -9241
52047 307283 279637 -2208 13295 -9237
52066 307327 279666 -2214 13301 -9225
52087 307354 279698 -2212 13315 -9227
52304 307727 280263 -2123 13298 -9332
52314 307769 280350 -2203 13318 -9344
52323 307819 280446 -2247 13317 -9313
52336 307882 280548 -2146 13258 -9270
52350 307943 280645 -2150 13238 -9266
52371 308004 280753 -2194 13209 -9272
52392 308060 280871 -2243 13197 -9301
52417 308092 280978 -2276 13217 -9338
52445 308130 281086 -2227 13260 -9326
52472 308168 281167 -2240 13289 -9303
52494 308171 281252 -2367 13343 -9297
52519 308196 281329 -2341 13395 -9282
52540 308256 281396 -2238 13379 -9282
52554 308311 281455 -2309 13346 -9288
52562 308346 281478 -2400 13350 -9282
52571 308372 281504 -2387 13325 -9248
52574 308407 281532 -2392 13316 -9228
52574 308505 281542 -2436 13453 -9320
52578 308751 281692 -2513 13794 -9583
52613 309086 282063 -2525 14213 -9748
52767 309408 282838 -2436 14185 -9552
52960 310187 283602 -2192 13289 -9165
51558 307669 275495 -2182 13292 -9139
37930 259722 222729 -2373 13402 -8873
31339 232794 200259 -2412 13323 -8638
36206 234203 210406 -2201 13041 -8557
53988 264560 256153 -2057 12856 -8541
74061 303637 310394 -2021 13003 -8752
85626 322042 338391 -2099 13265 -9026
88711 320499 340911 -2180 13537 -9146
89741 315782 338661 -2134 13723 -9141
89572 310653 334595 -2072 13540 -9047
89146 305385 330426 -2230 13179 -9120
88894 301455 327361 -2506 13050 -9412
88938 299589 326132 -2439 13119 -9613
88864 297021 324211 -2152 13157 -9713
88171 292788 320677 -2055 13030 -9832
87599 289704 318000 -2228 12955 -9896
87221 287627 316220 -2473 12961 -9852
86943 286018 314866 -2457 13048 -9798
87274 286924 315789 -2331 13148 -9727
86687 284164 313116 -2309 13101 -9951
88188 289748 319104 -2225 13018 -9934
89516 295222 323852 -2009 12993 -9539
90257 299972 328206 -2065 12911 -9495
92110 311224 337880 -2328 12881 -9289
92659 317940 343095 -2238 12927 -9106
92465 323582 346884 -2071 13068 -9271
90912 327440 347649 -2209 13219 -9285
86152 328241 341494 -2345 13226 -9241
73830 319391 318217 -2288 13256 -9203
58979 303109 288144 -2246 13108 -9166
50501 294796 271817 -2282 13131 -9470
45429 291622 263795 -2309 13468 -9790
44617 292950 264294 -2290 13545 -9809
44861 293472 265310 -2309 13407 -9728
45766 295721 267403 -2229 13326 -9651
46504 298179 269185 -2170 13217 -9545
47140 300147 270475 -2268 13150 -9468
48607 304995 273772 -2276 13247 -9455
49672 307512 276065 -2273 13319 -9399
50416 308995 277453 -2324 13283 -9292
50905 309797 279181 -2291 13304 -9269
52058 311468 283898 -2331 13310 -9246
53070 313388 287936 -2365 13284 -9255
53607 314210 289602 -2404 13312 -9237
53796 314471 290017 -2425 13395 -9227
53931 314655 290279 -2431 13415 -9220
54021 314720 290458 -2428 13387 -9185
54106 314721 290523 -2399 13403 -9157
54174 314772 290584 -2273 13319 -9399
54241 314817 290623 -2324 13283 -9292
54298 314864 290651 -2291 13304 -9269
54354 314891 290696 -2331 13310 -9246
54408 314921 290753 -2365 13284 -9255
54450 314919 290765 -2404 13312 -9237
54499 314952 290794 -2425 13395 -9227
54542 314992 290833 -2431 13415 -9220
54588 315032 290854 -2428 13387 -9185
54633 315029 290850 -2399 13403 -9157
54658 314978 290813 -2435 13387 -9113
54678 314937 290801 -2456 13394 -9109
54696 314922 290787 -2444 13418 -9099
54700 314897 290775 -2467 13466 -9078
54709 314887 290795 -2471 13483 -9077
54711 314867 290799 -2427 13456 -9069
54719 314869 290790 -2450 13446 -9026
54728 314867 290817 -2496 13464 -8971
54740 314862 290822 -2531 13481 -8955
54752 314837 290831 -2407 13474 -8999
54759 314825 290833 -2426 13512 -9020
54779 314808 290809 -2518 13551 -9039
54795 314783 290808 -2533 13523 -8993
54812 314731 290796 -2506 13520 -8951
54824 314711 290793 -2441 13515 -8936
54832 314660 290751 -2442 13518 -8924
54843 314628 290737 -2504 13548 -8914
54844 314562 290708 -2542 13566 -8925
54846 314511 290696 -2511 13588 -8917
54849 314468 290658 -2513 13593 -8911
55070 313775 290475 -2665 13573 -8884
55070 313742 290435 -2649 13554 -8886
55073 313727 290406 -2546 13516 -8893
55072 313697 290388 -2510 13478 -8904
55081 313697 290375 -2584 13493 -8919
55087 313679 290363 -2642 13543 -8926
55095 313685 290356 -2599 13563 -8925
55103 313682 290335 -2532 13563 -8938
55112 313677 290322 -2520 13586 -8954
55120 313680 290306 -2511 13582 -8952
55132 313662 290295 -2498 13559 -8958
55140 313675 290290 -2498 13586 -8954
55149 313684 290299 -2465 13577 -8939
55161 313685 290307 -2424 13530 -8945
55175 313724 290342 -2422 13530 -8959
55191 313748 290376 -2450 13541 -8957
55210 313772 290407 -2454 13517 -8968
55227 313761 290399 -2449 13514 -8986
55245 313756 290400 -2470 13501 -8999
55258 313735 290398 -2433 13440 -8991
55258 313727 290393 -2345 13449 -8973
55254 313701 290374 -2333 13557 -9002
55248 313647 290340 -2485 13576 -9047
55234 313614 290318 -2654 13498 -9053
55223 313626 290331 -2616 13476 -9024
55208 313548 290311 -2482 13468 -9030
55200 313486 290296 -2407 13425 -9084
55191 313451 290272 -2466 13466 -9112
55187 313433 290260 -2459 13499 -9110
55176 313401 290238 -2367 13446 -9098
55176 313435 290243 -2369 13407 -9073
55173 313403 290224 -2379 13407 -9039
55167 313370 290197 -2375 13413 -9038
55166 313382 290214 -2412 13422 -9050
55165 313398 290224 -2405 13449 -9079
55155 313385 290218 -2344 13489 -9060
55155 313336 290187 -2419 13491 -9055
55147 313308 290167 -2290 13520 -9031
55137 313284 290138 -2239 13519 -9021
55131 313255 290110 -2345 13552 -9027
55120 313232 290087 -2372 13582 -9028
55121 313225 290087 -2330 13531 -9010
55123 313242 290097 -2271 13486 -8992
55123 313234 290094 -2271 13497 -8976
55127 313222 290078 -2321 13512 -8981
55127 313219 290068 -2360 13523 -8978
55133 313225 290072 -2339 13514 -8985
55134 313238 290081 -2344 13552 -8984
55144 313283 290135 -2332 13551 -8967
55157 313317 290179 -2321 13535 -8979
55177 313362 290229 -2356 13538 -9006
55193 313417 290286 -2362 13490 -9010
55215 313449 290335 -2348 13457 -8992
55240 313456 290351 -2310 13470 -8993
55262 313509 290391 -2381 13471 -9043
55280 313526 290412 -2447 13435 -9050
55304 313543 290432 -2404 13437 -9060
55326 313564 290446 -2363 13437 -9063
55347 313572 290447 -2399 13462 -9069
55367 313572 290456 -2385 13471 -9057
55376 313538 290456 -2394 13438 -9023
55379 313522 290434 -2404 13454 -8982
55377 313501 290394 -2398 13462 -9002
55369 313463 290365 -2367 13456 -9059
55360 313416 290326 -2255 13484 -9095
55348 313393 290297 -2301 13525 -9112
55341 313374 290286 -2393 13529 -9108
55333 313369 290270 -2350 13480 -9088
55330 313363 290254 -2289 13430 -9063
55322 313330 290222 -2264 13404 -9054
55321 313340 290223 -2266 13400 -9042
55321 313340 290217 -2286 13403 -9050
55318 313324 290210 -2296 13421 -9091
55316 313348 290207 -2270 13443 -9065
55319 313362 290224 -2323 13458 -9050
55314 313346 290219 -2330 13470 -9088
55310 313336 290205 -2191 13467 -9101
55304 313314 290189 -2225 13486 -9119
55304 313334 290195 -2353 13506 -9136
55304 313338 290203 -2368 13500 -9144
55302 313321 290189 -2283 13474 -9145
55297 313288 290168 -2186 13440 -9139
55294 313261 290137 -2232 13410 -9119
55287 313260 290129 -2328 13393 -9104
55285 313259 290133 -2361 13411 -9100
55287 313245 290118 -2310 13415 -9141
55292 313255 290137 -2255 13389 -9181
55295 313282 290144 -2254 13359 -9177
55301 313272 290142 -2255 13374 -9166
55311 313299 290146 -2250 13394 -9142
55319 313318 290165 -2248 13378 -9134
55330 313344 290173 -2268 13394 -9152
55341 313347 290183 -2271 13402 -9160
55349 313351 290185 -2264 13374 -9169
55361 313362 290200 -2378 13414 -9156
55373 313374 290208 -2346 13428 -9149
55387 313379 290205 -2292 13452 -9149
55399 313374 290207 -2249 13446 -9170
55412 313390 290206 -2262 13457 -9170
55431 313401 290220 -2279 13486 -9158
55440 313403 290219 -2265 13468 -9142
55447 313377 290220 -2297 13440 -9094
55446 313383 290245 -2319 13450 -9048
55446 313389 290238 -2324 13480 -9070
55436 313361 290227 -2268 13462 -9102
55424 313330 290205 -2171 13437 -9091
55411 313299 290171 -2237 13477 -9086
55399 313301 290177 -2306 13471 -9096
55391 313311 290170 -2249 13447 -9104
55384 313314 290173 -2200 13426 -9102
55377 313288 290156 -2204 13402 -9099
55373 313325 290176 -2233 13395 -9089
55377 313344 290174 -2251 13404 -9075
55382 313326 290170 -2251 13436 -9100
55380 313330 290171 -2207 13456 -9088
55383 313357 290180 -2271 13479 -9099
55384 313355 290173 -2345 13485 -9127
55383 313333 290172 -2222 13460 -9115
55385 313323 290170 -2203 13436 -9133
55384 313328 290167 -2298 13427 -9154
55383 313323 290162 -2334 13397 -9174
55386 313320 290169 -2285 13361 -9193
55390 313331 290180 -2206 13361 -9216
55393 313343 290186 -2209 13364 -9222
55402 313344 290189 -2253 13381 -9229
55408 313332 290167 -2271 13395 -9226
55410 313315 290154 -2236 13386 -9212
55415 313311 290131 -2206 13390 -9214
55420 313307 290116 -2196 13408 -9213
55425 313303 290118 -2186 13417 -9190
55431 313300 290103 -2180 13434 -9163
55439 313304 290097 -2189 13420 -9152
55446 313292 290087 -2179 13399 -9153
55455 313297 290085 -2162 13399 -9156
55464 313299 290079 -2218 13402 -9151
55474 313286 290062 -2198 13395 -9176
55483 313287 290063 -2192 13393 -9180
55491 313298 290068 -2180 13381 -9160
55504 313302 290069 -2158 13393 -9142
55518 313308 290066 -2181 13421 -9132
55533 313300 290061 -2200 13466 -9148
55538 313276 290035 -2151 13456 -9139
55539 313229 290018 -2172 13435 -9147
55532 313192 289982 -2270 13452 -9160
55525 313187 289973 -2267 13422 -9153
55510 313165 289956 -2154 13405 -9198
55489 313117 289934 -2070 13417 -9230
55471 313087 289921 -2139 13416 -9244
55457 313097 289914 -2218 13405 -9254
55445 313110 289918 -2185 13381 -9239
55432 313119 289917 -2125 13338 -9217
55421 313108 289925 -2109 13314 -9210
55413 313134 289946 -2147 13324 -9202
55410 313153 289931 -2191 13398 -9196
55407 313157 289940 -2113 13436 -9166
55396 313155 289935 -2163 13467 -9154
55394 313186 289944 -2236 13469 -9170
55383 313172 289912 -2116 13451 -9140
55364 313089 289817 -2076 13452 -9122
55331 312949 289684 -2159 13478 -9143
55296 312816 289537 -2198 13510 -9172
55274 312729 289520 -2190 13529 -9184
55250 312630 289481 -2164 13543 -9205
55224 312480 289398 -2153 13506 -9167
55190 312264 289274 -2147 13494 -9112
55155 312031 289137 -2192 13610 -9114
55124 311776 288967 -2213 13788 -9119
55102 311586 288866 -2176 13794 -9055
55090 311513 288894 -2139 13736 -8950
55083 311512 288945 -2141 13782 -8901
55081 311511 288998 -2193 13675 -8837
55079 311507 289038 -2214 13418 -8716
55083 311536 289089 -2204 13375 -8651
55089 311558 289160 -2204 13561 -8662
55107 311526 289153 -2226 13710 -8664
55117 311559 289200 -2275 13602 -8624
55142 311547 289219 -2295 13644 -8636
55226 311471 289218 -2234 13823 -8659
55423 311896 289692 -2305 13745 -8671
55732 312960 290533 -2408 13925 -8816
55867 314970 290859 -2269 14406 -9132
47644 289181 256176 -2192 14519 -9197
39432 243429 222703 -2170 14161 -8953
80348 312205 325479 -2125 13827 -8772
90766 323751 345427 -2170 13629 -8696
92413 322890 346604 -2103 13412 -8605
93084 322415 347149 -1999 13233 -8508
94002 321877 347826 -1996 13309 -8546
94684 321121 348291 -1921 13559 -8565
94836 319517 347346 -1818 13478 -8533
94501 316777 345269 -1796 13263 -8649
94228 315070 343814 -1889 13437 -8722
93902 313627 342498 -1993 13656 -8743
93808 313228 341881 -2125 13534 -8864
93595 313228 341556 -2045 13520 -8782
94286 316816 344526 -2280 13713 -8878
94233 316865 344270 -2324 13736 -9001
94338 317784 344976 -2111 13592 -9075
94756 321985 348269 -2239 13505 -9314
94617 324454 349726 -2291 13342 -9542
94003 325909 350051 -2097 13111 -9460
93221 328336 350939 -2205 12974 -9303
91313 329984 349755 -2264 13005 -9285
86862 329175 343252 -2115 13187 -9254
76426 320778 322367 -2096 13309 -9245
56315 297993 280555 -2001 13232 -9248
45581 290887 265002 -1997 13204 -9087
45899 294761 268812 -2344 13284 -8852
47530 299696 273109 -2474 13175 -8883
51859 310889 285057 -2213 13271 -9312
55355 315755 294079 -2332 13461 -9261
55362 315732 294090 -2229 13463 -9252
55360 315593 294070 -2226 13421 -9210
55361 315570 294106 -2309 13428 -9177
55369 315584 294187 -2339 13446 -9163
55371 315581 294222 -2297 13403 -9134
55376 315549 294241 -2237 13352 -9092
55373 315543 294245 -2242 13366 -9076
55378 315514 294255 -2315 13422 -9080
55386 315501 294257 -2347 13437 -9101
55397 315487 294246 -2280 13447 -9060
55408 315466 294261 -2292 13470 -9038
55412 315439 294270 -2378 13498 -9078
55418 315440 294259 -2287 13514 -9077
55421 315405 294249 -2244 13516 -9048
55418 315368 294226 -2342 13554 -9019
55412 315322 294202 -2396 13537 -9022
55405 315250 294147 -2411 13475 -9033
55396 315184 294073 -2366 13494 -9013
55383 315138 294019 -2314 13510 -8993
55368 315086 293983 -2325 13507 -9025
55358 315048 293926 -2370 13536 -9057
55348 314993 293897 -2382 13523 -9041
55336 314965 293863 -2383 13516 -9042
55329 314944 293860 -2387 13511 -9042
55323 314932 293868 -2382 13526 -9042
55321 314917 293864 -2371 13480 -9029
55316 314917 293863 -2335 13448 -9022
55316 314912 293874 -2343 13471 -9022
55320 314913 293888 -2399 13483 -9019
55324 314928 293916 -2361 13475 -9025
55332 314931 293944 -2390 13529 -8952
55341 314934 293958 -2376 13539 -8922
55342 314909 293957 -2425 13537 -8934
55328 314857 293946 -2375 13554 -8952
55308 314846 293952 -2290 13590 -8937
55282 314825 293926 -2365 13651 -8945
55249 314795 293897 -2422 13666 -8966
55211 314780 293873 -2397 13584 -8945
55177 314743 293863 -2344 13547 -8938
55143 314743 293853 -2312 13551 -8896
55116 314729 293858 -2360 13567 -8929
55094 314706 293843 -2336 13637 -8961
55063 314658 293819 -2285 13614 -8933
55048 314697 293843 -2386 13604 -8895
55036 314689 293860 -2355 13627 -8882
55024 314646 293846 -2250 13586 -8883
55013 314636 293867 -2274 13610 -8903
54988 314583 293832 -2309 13572 -8948
54973 314598 293868 -2338 13503 -8966
54966 314666 293973 -2344 13548 -8958
54964 314709 294062 -2280 13562 -8959
54965 314722 294118 -2249 13525 -8965
54963 314770 294180 -2333 13554 -8961
54963 314795 294232 -2380 13588 -8973
54961 314790 294259 -2323 13594 -8986
54961 314715 294275 -2266 13573 -8980
54949 314580 294271 -2270 13533 -8967
54952 314563 294273 -2288 13529 -8960
54960 314541 294273 -2295 13557 -8970
54970 314527 294258 -2300 13553 -8983
54980 314516 294243 -2309 13536 -8981
54988 314492 294234 -2324 13532 -8984
54997 314440 294177 -2297 13505 -9006
55008 314424 294153 -2275 13479 -9015
55017 314415 294147 -2316 13513 -9009
55029 314412 294127 -2297 13523 -9014
55045 314387 294098 -2282 13501 -9020
55054 314345 294057 -2316 13510 -9011
55065 314323 294022 -2379 13529 -8992
55067 314291 293969 -2421 13518 -9016
55053 314190 293901 -2281 13481 -9067
55026 314140 293871 -2204 13489 -9075
54990 314090 293813 -2306 13504 -9097
54949 314032 293777 -2358 13486 -9133
54905 313981 293731 -2299 13436 -9132
54863 313958 293725 -2215 13412 -9102
54827 313909 293693 -2192 13398 -9089
54793 313893 293665 -2232 13362 -9106
54760 313859 293653 -2287 13350 -9123
54728 313838 293635 -2421 13518 -9016
54709 313847 293631 -2281 13481 -9067
54695 313835 293619 -2204 13489 -9075
54674 313793 293585 -2306 13504 -9097
54656 313771 293554 -2358 13486 -9133
54641 313770 293541 -2299 13436 -9132
54622 313765 293514 -2215 13412 -9102
54601 313724 293494 -2192 13398 -9089
54587 313714 293477 -2232 13362 -9106
54566 313673 293431 -2287 13350 -9123
54547 313649 293387 -2280 13438 -9099
54530 313649 293370 -2345 13451 -9101
54511 313634 293346 -2332 13455 -9121
54493 313598 293297 -2223 13465 -9140
54483 313583 293283 -2245 13488 -9150
54474 313576 293289 -2311 13465 -9155
54470 313576 293305 -2286 13408 -9139
54467 313577 293307 -2227 13373 -9121
54468 313568 293293 -2204 13390 -9129
54463 313529 293260 -2226 13401 -9161
54463 313513 293250 -2256 13398 -9182
54463 313508 293237 -2260 13411 -9172
54468 313490 293235 -2238 13430 -9152
54471 313523 293265 -2222 13430 -9145
54477 313509 293259 -2242 13411 -9134
54482 313491 293236 -2256 13405 -9112
54493 313505 293240 -2274 13419 -9139
54504 313522 293246 -2265 13412 -9153
54510 313519 293233 -2214 13377 -9151
54500 313482 293214 -2253 13390 -9181
54485 313463 293209 -2240 13347 -9204
54459 313433 293190 -2227 13347 -9210
54429 313430 293195 -2249 13377 -9213
54401 313440 293209 -2217 13383 -9207
54378 313421 293186 -2208 13357 -9179
54355 313420 293192 -2273 13364 -9141
54341 313436 293192 -2291 13394 -9155
54332 313457 293210 -2314 13396 -9211
54325 313451 293210 -2242 13373 -9225
54325 313490 293237 -2212 13394 -9219
54328 313487 293234 -2298 13427 -9212
54326 313468 293236 -2258 13397 -9187
54327 313512 293241 -2192 13339 -9140
54333 313528 293277 -2204 13327 -9127
54334 313539 293293 -2266 13334 -9130
54331 313509 293288 -2293 13307 -9132
54329 313505 293312 -2273 13317 -9156
54330 313499 293317 -2244 13370 -9111
54330 313505 293309 -2318 13411 -9114
54333 313491 293306 -2396 13438 -9176
54340 313471 293306 -2278 13427 -9183
54347 313470 293313 -2262 13413 -9178
54356 313476 293303 -2338 13409 -9173
54365 313493 293322 -2327 13393 -9176
54382 313493 293324 -2281 13355 -9168
54397 313524 293350 -2225 13323 -9165
54415 313560 293418 -2203 13337 -9180
54434 313582 293444 -2216 13338 -9206
54459 313603 293464 -2247 13344 -9209
54479 313597 293465 -2221 13383 -9241
54620 313605 293524 -2231 13475 -9158
54606 313583 293532 -2178 13422 -9160
54590 313557 293534 -2228 13407 -9115
54572 313563 293533 -2275 13422 -9095
54565 313565 293549 -2326 13412 -9144
54555 313551 293544 -2264 13383 -9192
54547 313553 293542 -2219 13364 -9208
54542 313545 293557 -2359 13420 -9181
54546 313546 293554 -2282 13400 -9149
54548 313535 293536 -2263 13375 -9136
54550 313527 293539 -2233 13370 -9127
54558 313558 293562 -2204 13361 -9132
54562 313558 293574 -2272 13352 -9160
54563 313552 293574 -2299 13400 -9146
54566 313525 293573 -2287 13419 -9139
54570 313524 293570 -2318 13415 -9150
54572 313527 293556 -2261 13423 -9142
54576 313521 293552 -2248 13425 -9156
54581 313520 293564 -2316 13428 -9178
54585 313512 293553 -2359 13419 -9205
54597 313506 293554 -2349 13402 -9207
54610 313524 293559 -2251 13387 -9183
54621 313521 293569 -2199 13387 -9173
54635 313524 293575 -2245 13406 -9173
54649 313543 293588 -2313 13404 -9177
54671 313559 293595 -2298 13387 -9180
54689 313583 293618 -2229 13390 -9166
54707 313580 293616 -2206 13378 -9169
54725 313598 293635 -2290 13391 -9177
54743 313603 293659 -2253 13378 -9174
54762 313620 293668 -2205 13391 -9175
54782 313627 293669 -2193 13366 -9160
54804 313625 293671 -2228 13355 -9151
54822 313659 293687 -2247 13361 -9154
54843 313692 293715 -2250 13364 -9170
54865 313678 293709 -2261 13383 -9182
54888 313695 293730 -2264 13386 -9180
54911 313716 293749 -2264 13407 -9204
54936 313733 293758 -2262 13384 -9173
54949 313699 293755 -2293 13400 -9144
54948 313668 293743 -2279 13412 -9143
54947 313657 293738 -2255 13377 -9145
54934 313625 293724 -2297 13383 -9113
54916 313606 293731 -2345 13398 -9125
54903 313619 293766 -2329 13394 -9195
54893 313636 293782 -2214 13398 -9211
54886 313639 293807 -2229 13417 -9214
54879 313640 293825 -2357 13404 -9218
54876 313628 293823 -2324 13347 -9184
54868 313621 293819 -2206 13322 -9149
54871 313632 293834 -2152 13332 -9142
54878 313622 293834 -2220 13336 -9145
54882 313599 293824 -2321 13327 -9159
54885 313592 293819 -2328 13342 -9185
54887 313571 293799 -2241 13372 -9177
54880 313532 293758 -2242 13366 -9176
54868 313464 293690 -2360 13387 -9197
54857 313377 293600 -2340 13406 -9219
54831 313228 293398 -2256 13385 -9243
54773 312867 292904 -2316 13387 -9257
54697 312335 292354 -2412 13366 -9261
54666 311874 291845 -2433 13326 -9236
54662 312814 291581 -2362 13317 -9217
49427 296880 266033 -2278 13390 -9282
35211 247167 220608 -2309 13665 -9518
36130 242627 217888 -2407 14183 -9857
40487 248405 227273 -2417 14334 -9838
42947 256189 236290 -2363 13950 -9493
43889 256593 237867 -2193 13459 -9208
44688 255496 238019 -2098 13077 -8874
46908 255126 240654 -2259 12910 -8604
56827 269464 263852 -2271 12861 -8722
68867 291873 295653 -2256 12835 -8692
78167 308579 320708 -2197 13048 -8751
82413 311793 327950 -1890 13315 -9068
84192 312139 330138 -1827 13417 -9082
85614 312775 332005 -1946 13426 -9098
87350 313936 334554 -2009 13387 -9186
88980 315678 337438 -2081 13438 -9314
90347 317046 339835 -2062 13488 -9497
91409 317678 341527 -1960 13514 -9570
92136 317875 342481 -1895 13391 -9495
92396 317541 342524 -1891 13226 -9498
92762 319287 344218 -1901 13248 -9618
92660 319811 344509 -1989 13400 -9581
92609 321396 345455 -2031 13428 -9495
92243 323254 346373 -1997 13319 -9391
91462 325690 347129 -1955 13202 -9315
89695 326606 345669 -1921 13044 -9327
86274 326064 341107 -1894 13097 -9254
81727 322576 332731 -1874 13388 -9145
73940 314535 316273 -1881 13446 -9079
65286 303522 297493 -1893 13303 -9029
61574 298662 289351 -1942 13206 -8988
56904 293206 279421 -1947 13113 -9058
50336 285517 265752 -2049 13083 -9101
45487 279836 256494 -2123 13210 -9166
42804 279324 254269 -2090 13454 -9358
42138 282521 256524 -2225 13732 -9646
42613 286373 260445 -2299 13638 -9667
44177 291703 265396 -2240 13343 -9454
45865 297205 270149 -2096 13263 -9377
48864 305657 278133 -2048 13236 -9435
51478 310762 286483 -2140 13270 -9372
52830 313569 291680 -2190 13341 -9270
53351 314086 293299 -2166 13317 -9320
53529 313920 293416 -2158 13331 -9396
53657 313848 293479 -2172 13297 -9381
53769 313872 293548 -2218 13252 -9360
53864 313881 293602 -2273 13318 -9298
53953 313888 293628 -2252 13418 -9240
54038 313867 293623 -2215 13442 -9195
54120 313853 293607 -2280 13436 -9189
54196 313863 293604 -2367 13412 -9196
54271 313886 293659 -2351 13384 -9144
54340 313903 293669 -2308 13394 -9091
54409 313883 293671 -2329 13409 -9097
54470 313898 293690 -2339 13438 -9106
54535 313881 293703 -2327 13460 -9077
54590 313869 293696 -2405 13477 -9039
54640 313829 293698 -2449 13516 -9018
54676 313763 293665 -2401 13529 -8991
54706 313717 293657 -2414 13537 -8952
54726 313672 293642 -2429 13534 -8925
54744 313613 293627 -2460 13519 -8941
54757 313557 293597 -2433 13507 -8963
54769 313515 293587 -2373 13509 -8954
54783 313486 293578 -2465 13578 -8949
54796 313464 293577 -2519 13616 -8945
54811 313412 293548 -2458 13608 -8926
54825 313366 293526 -2422 13596 -8897
54851 313347 293522 -2434 13581 -8877
54870 313299 293504 -2479 13582 -8872
54891 313243 293471 -2539 13589 -8860
54912 313212 293447 -2521 13612 -8865
54929 313195 293400 -2437 13635 -8829
54941 313152 293354 -2511 13668 -8877
54955 313119 293334 -2399 13655 -8839
54969 313095 293315 -2394 13654 -8805
54985 313098 293298 -2528 13681 -8811
55000 313075 293282 -2587 13641 -8828
55015 313064 293282 -2563 13614 -8818
55032 313039 293268 -2472 13616 -8817
55049 313029 293262 -2463 13632 -8833
55065 313003 293250 -2528 13641 -8843
55075 312928 293196 -2524 13639 -8851
55092 312897 293180 -2465 13630 -8839
55115 312884 293171 -2472 13616 -8852
55138 312890 293169 -2535 13618 -8869
55163 312869 293156 -2561 13603 -8884
55190 312867 293157 -2528 13583 -8897
55215 312861 293149 -2496 13601 -8889
55248 312874 293138 -2494 13605 -8896
55272 312892 293143 -2514 13562 -8909
55297 312861 293112 -2467 13548 -8944
55316 312850 293101 -2495 13549 -8957
55338 312849 293088 -2516 13552 -8958
55360 312860 293095 -2459 13556 -8954
55378 312848 293066 -2435 13575 -8945
55386 312796 293042 -2454 13589 -8917
55378 312754 293008 -2477 13569 -8931
55370 312739 292997 -2420 13544 -8994
55354 312683 292956 -2308 13536 -9010
55332 312632 292916 -2336 13568 -9010
55307 312568 292866 -2428 13578 -9017
55283 312505 292792 -2436 13579 -9007
55256 312439 292739 -2357 13581 -8995
55230 312388 292695 -2330 13553 -8979
55204 312338 292656 -2375 13506 -8954
55189 312323 292645 -2427 13488 -8954
55184 312328 292643 -2421 13476 -8983
55176 312307 292641 -2329 13474 -8950
55166 312281 292640 -2392 13515 -8938
55159 312267 292612 -2497 13553 -8961
55154 312240 292618 -2397 13548 -8944
55149 312256 292639 -2379 13576 -8939
55145 312242 292648 -2447 13621 -8933
55142 312225 292641 -2432 13575 -8925
55142 312221 292640 -2414 13536 -8927
55137 312209 292648 -2361 13535 -8934
55140 312211 292674 -2310 13526 -8937
55142 312234 292702 -2363 13518 -8955
55155 312234 292725 -2427 13526 -8981
55171 312253 292742 -2392 13510 -8978
55189 312292 292783 -2349 13517 -8963
55205 312309 292796 -2340 13546 -8981
55225 312322 292810 -2359 13547 -8998
55239 312329 292813 -2382 13527 -9008
55252 312361 292830 -2334 13529 -9021
55271 312378 292836 -2282 13548 -9032
55285 312396 292864 -2311 13538 -9047
55296 312402 292881 -2373 13492 -9063
55316 312413 292894 -2359 13450 -9083
55334 312434 292920 -2307 13434 -9085
55352 312466 292941 -2332 13425 -9089
55366 312454 292938 -2360 13417 -9111
55382 312466 292933 -2369 13426 -9109
55400 312490 292954 -2386 13456 -9087
55415 312497 292947 -2337 13464 -9084
55431 312497 292939 -2318 13455 -9094
55425 312427 292892 -2396 13447 -9065
55412 312404 292889 -2428 13419 -9047
55401 312431 292912 -2429 13417 -9087
55385 312439 292926 -2322 13408 -9115
55368 312445 292935 -2382 13497 -9118
55352 312430 292921 -2398 13499 -9086
55334 312418 292918 -2375 13432 -9054
55324 312435 292914 -2386 13376 -9045
55315 312440 292923 -2418 13357 -9068
55308 312442 292937 -2464 13377 -9097
55309 312472 292940 -2492 13393 -9126
55317 312480 292934 -2440 13402 -9110
55317 312473 292927 -2457 13426 -9083
55318 312510 292924 -2531 13479 -9084
55320 312535 292924 -2449 13462 -9079
55317 312521 292905 -2424 13430 -9092
55313 312496 292873 -2513 13458 -9106
55308 312493 292864 -2533 13456 -9108
55305 312488 292867 -2484 13419 -9088
55305 312498 292866 -2400 13400 -9078
55306 312512 292887 -2396 13421 -9097
55310 312523 292910 -2438 13428 -9112
55312 312485 292906 -2466 13398 -9106
55312 312493 292923 -2469 13391 -9080
55321 312501 292917 -2443 13431 -9084
55329 312489 292935 -2447 13456 -9113
55337 312494 292929 -2465 13431 -9116
55345 312500 292936 -2482 13396 -9108
55353 312476 292927 -2475 13402 -9100
55362 312464 292907 -2439 13400 -9108
55371 312477 292921 -2419 13378 -9121
55384 312489 292922 -2449 13379 -9134
55391 312506 292928 -2480 13393 -9134
55400 312509 292921 -2473 13394 -9116
55414 312479 292906 -2463 13394 -9118
55428 312509 292912 -2491 13428 -9129
55442 312523 292929 -2494 13465 -9139
55461 312526 292900 -2417 13403 -9141
55464 312491 292881 -2456 13350 -9117
55455 312427 292820 -2505 13411 -9092
55440 312414 292786 -2535 13441 -9119
55420 312382 292766 -2475 13393 -9164
55398 312377 292764 -2364 13366 -9183
55377 312377 292753 -2480 13397 -9175
55360 312378 292751 -2473 13368 -9147
55343 312383 292754 -2400 13332 -9144
55331 312386 292767 -2418 13308 -9149
55320 312377 292761 -2483 13308 -9163
55318 312415 292795 -2515 13314 -9178
55316 312417 292789 -2487 13332 -9161
55320 312414 292813 -2478 13371 -9130
55318 312445 292836 -2533 13395 -9109
55324 312465 292844 -2440 13410 -9104
55323 312465 292852 -2438 13447 -9137
55318 312452 292852 -2529 13422 -9132
55316 312440 292860 -2517 13372 -9109
55316 312458 292844 -2416 13366 -9095
55315 312456 292858 -2411 13390 -9085
55316 312462 292865 -2497 13394 -9089
55320 312459 292868 -2518 13411 -9095
55322 312455 292860 -2461 13432 -9087
55325 312460 292870 -2429 13416 -9100
55328 312463 292874 -2458 13409 -9128
55337 312462 292865 -2440 13409 -9122
55346 312474 292873 -2428 13371 -9108
55355 312484 292868 -2454 13348 -9104
55366 312478 292874 -2498 13360 -9109
55377 312482 292863 -2506 13380 -9104
55383 312472 292836 -2473 13374 -9103
55394 312473 292822 -2460 13366 -9117
55402 312466 292812 -2475 13377 -9122
55411 312457 292808 -2487 13406 -9130
55419 312447 292783 -2480 13447 -9153
55424 312438 292760 -2431 13419 -9147
55434 312463 292756 -2438 13362 -9126
55444 312462 292756 -2499 13403 -9083
55451 312442 292743 -2529 13432 -9094
55445 312385 292724 -2487 13410 -9160
55434 312381 292718 -2356 13380 -9171
55419 312377 292719 -2427 13393 -9153
55396 312358 292711 -2533 13434 -9139
55377 312346 292717 -2443 13396 -9120
55358 312322 292716 -2397 13365 -9092
55338 312326 292712 -2410 13376 -9087
55322 312323 292717 -2458 13368 -9096
55310 312319 292727 -2504 13355 -9112
55295 312289 292722 -2502 13379 -9140
55286 312320 292736 -2437 13413 -9112
55280 312308 292708 -2477 13435 -9095
55273 312271 292702 -2529 13443 -9114
55267 312281 292695 -2368 13414 -9111
55263 312273 292683 -2350 13405 -9092
55251 312245 292663 -2472 13435 -9091
55240 312214 292653 -2511 13400 -9105
55233 312179 292632 -2462 13348 -9095
55219 312150 292611 -2354 13367 -9093
55209 312134 292599 -2337 13391 -9112
55199 312109 292579 -2420 13388 -9121
55186 312058 292537 -2467 13387 -9126
55171 311985 292455 -2425 13390 -9142
55151 311897 292350 -2394 13424 -9135
55136 311786 292237 -2403 13459 -9121
55113 311676 292114 -2415 13462 -9136
55087 311572 291994 -2418 13488 -9171
55050 311419 291814 -2392 13490 -9190
55014 311199 291589 -2344 13555 -9258
54968 310983 291392 -2384 13779 -9399
54971 311011 291339 -2467 14034 -9540
55034 312158 291575 -2543 14162 -9506
54081 311766 286364 -2486 14167 -9341
41457 269416 237635 -2244 13942 -9152
40705 244315 226446 -2067 13359 -8906
81626 312458 327775 -2275 13167 -8524
87853 313467 335038 -2376 13206 -8445
88173 309138 332151 -2254 13332 -8477
88470 306899 330580 -2023 13566 -8427
89054 305395 330026 -1789 13575 -8595
89381 303989 329567 -1864 13448 -8733
89574 302218 328574 -2056 13557 -8730
89778 301500 328377 -2037 13817 -8764
90522 303031 330336 -2001 13821 -8791
91023 303603 331243 -1977 13521 -8910
91523 304661 332501 -1964 13468 -8948
92048 306780 334462 -2010 13525 -8907
93017 310768 338195 -2160 13596 -8966
93406 312583 339789 -2107 13608 -9030
93622 314056 340904 -2059 13539 -9031
93814 315876 342329 -2113 13442 -9048
94012 318405 344147 -2042 13422 -9000
94031 320059 345242 -2038 13471 -8990
93944 321684 346199 -2135 13604 -9056
93771 323138 346934 -2143 13614 -9079
93421 325586 348120 -2045 13333 -8999
92432 327813 348469 -1966 13075 -8973
90236 328451 346403 -2029 13053 -8919
86090 326879 340256 -2232 13203 -8890
80796 322688 330309 -2322 13521 -9082
73235 315027 314583 -2246 13676 -9320
61524 300533 288848 -2130 13568 -9372
50197 288211 266182 -2097 13495 -9345
43239 283533 256876 -2176 13466 -9427
43099 287017 260424 -2258 13418 -9449
44818 292259 265734 -2298 13404 -9410
46574 297326 270213 -2264 13468 -9448
48266 302301 274796 -2225 13447 -9435
50982 308640 282672 -2190 13279 -9348
52156 310909 286536 -2213 13192 -9289
53199 313230 290501 -2321 13332 -9284
53697 313993 291972 -2365 13529 -9268
53921 314197 292515 -2329 13513 -9210
54077 314165 292700 -2338 13419 -9128
54197 314080 292740 -2446 13464 -9153
54285 314000 292740 -2339 13456 -9150
54339 313904 292691 -2333 13440 -9107
54376 313837 292676 -2460 13467 -9102
54411 313756 292662 -2496 13503 -9102
54431 313697 292672 -2434 13524 -9052
54449 313618 292672 -2360 13512 -9032
54467 313534 292650 -2385 13485 -9015
54474 313495 292644 -2481 13477 -8985
54492 313498 292671 -2338 13419 -9128
54513 313457 292704 -2446 13464 -9153
54529 313419 292726 -2339 13456 -9150
54550 313427 292748 -2333 13440 -9107
54577 313430 292772 -2460 13467 -9102
54601 313410 292791 -2496 13503 -9102
54618 313383 292801 -2434 13524 -9052
54643 313388 292807 -2360 13512 -9032
54663 313375 292816 -2385 13485 -9015
54680 313343 292804 -2481 13477 -8985
54697 313294 292792 -2478 13542 -8981
54711 313267 292785 -2440 13524 -8916
54724 313247 292754 -2533 13506 -8873
54740 313229 292735 -2525 13543 -8897
54754 313197 292696 -2411 13551 -8907
54769 313166 292670 -2429 13545 -8902
54780 313145 292655 -2493 13552 -8898
54795 313141 292649 -2514 13573 -8878
54813 313147 292646 -2489 13590 -8872
54832 313153 292653 -2436 13580 -8889
54847 313128 292634 -2441 13556 -8909
54864 313133 292631 -2525 13557 -8905
54883 313172 292659 -2622 13606 -8901
54904 313165 292647 -2649 13631 -8920
54926 313161 292641 -2590 13641 -8923
54945 313153 292654 -2524 13660 -8921
54974 313164 292659 -2501 13646 -8915
54996 313164 292682 -2526 13619 -8900
55009 313120 292679 -2561 13594 -8894
55010 313095 292665 -2546 13567 -8886
55011 313062 292652 -2520 13558 -8860
55008 313036 292648 -2513 13614 -8864
54997 313017 292666 -2485 13615 -8873
54991 312997 292686 -2490 13593 -8851
54990 312975 292684 -2507 13625 -8820
54992 312959 292686 -2510 13597 -8821
54992 312942 292670 -2489 13598 -8857
54998 312911 292657 -2380 13620 -8873
55008 312924 292658 -2381 13618 -8872
55027 312928 292668 -2500 13634 -8883
55040 312907 292682 -2545 13630 -8899
55049 312885 292692 -2478 13590 -8883
55061 312892 292711 -2384 13562 -8853
55072 312883 292736 -2380 13560 -8856
55083 312872 292752 -2466 13567 -8869
55093 312850 292760 -2513 13591 -8895
55107 312835 292753 -2435 13639 -8879
55115 312830 292758 -2404 13605 -8848
55125 312822 292763 -2511 13584 -8842
55137 312802 292768 -2461 13621 -8836
55155 312770 292764 -2407 13624 -8868
55175 312760 292766 -2471 13621 -8858
55193 312748 292767 -2499 13602 -8842
55216 312742 292781 -2423 13603 -8828
55236 312742 292775 -2362 13604 -8849
55258 312736 292766 -2403 13607 -8873
55278 312733 292756 -2469 13618 -8861
55296 312747 292763 -2464 13631 -8843
55317 312738 292745 -2417 13640 -8856
55338 312731 292747 -2445 13613 -8905
55358 312733 292752 -2502 13586 -8887
55386 312762 292766 -2495 13583 -8870
55411 312754 292766 -2492 13583 -8868
55437 312762 292786 -2510 13562 -8855
55465 312777 292802 -2518 13548 -8852
55492 312804 292831 -2542 13555 -8856
55513 312780 292834 -2513 13544 -8873
55518 312733 292822 -2471 13547 -8886
55521 312735 292809 -2541 13590 -8922
55517 312717 292816 -2540 13589 -8914
55504 312686 292821 -2546 13582 -8886
55495 312656 292823 -2555 13556 -8881
55485 312645 292836 -2581 13571 -8902
55475 312623 292817 -2467 13584 -8925
55473 312610 292808 -2368 13567 -8949
55470 312583 292781 -2500 13584 -8976
55466 312542 292724 -2570 13568 -8971
55472 312532 292698 -2480 13535 -8943
55476 312500 292658 -2393 13531 -8925
55478 312440 292600 -2367 13531 -8914
55480 312422 292561 -2407 13502 -8922
55482 312417 292548 -2456 13506 -8948
55481 312405 292507 -2408 13552 -8977
55478 312372 292485 -2325 13545 -8954
55474 312354 292446 -2397 13546 -8950
55470 312328 292421 -2417 13568 -8999
55471 312333 292413 -2241 13543 -9007
55470 312338 292419 -2249 13532 -9014
55473 312374 292438 -2371 13526 -9037
55480 312371 292444 -2378 13494 -9046
55486 312389 292449 -2325 13457 -9053
55490 312400 292438 -2262 13440 -9067
55498 312398 292445 -2256 13440 -9090
55511 312414 292455 -2294 13421 -9128
55525 312440 292472 -2346 13427 -9138
55539 312441 292465 -2324 13464 -9107
55551 312430 292460 -2235 13481 -9103
55564 312415 292450 -2238 13466 -9116
55581 312415 292436 -2306 13461 -9118
55590 312426 292445 -2328 13445 -9119
55606 312432 292434 -2302 13407 -9114
55618 312408 292400 -2255 13400 -9109
55628 312385 292367 -2237 13388 -9098
55639 312361 292337 -2252 13388 -9103
55651 312361 292324 -2260 13408 -9125
55666 312377 292324 -2265 13405 -9133
55685 312372 292316 -2276 13384 -9131
55694 312357 292304 -2295 13390 -9134
55694 312292 292269 -2333 13415 -9146
55690 312295 292264 -2357 13454 -9174
55679 312286 292261 -2297 13453 -9185
55661 312271 292247 -2256 13407 -9151
55646 312255 292234 -2337 13393 -9097
55634 312261 292218 -2389 13379 -9103
55622 312221 292198 -2379 13380 -9157
55610 312225 292193 -2270 13371 -9161
55604 312220 292188 -2220 13379 -9155
55592 312242 292209 -2329 13422 -9150
55593 312263 292192 -2347 13427 -9136
55588 312248 292197 -2284 13404 -9123
55587 312241 292179 -2260 13385 -9106
55587 312255 292171 -2302 13354 -9110
55586 312250 292180 -2350 13346 -9131
55583 312249 292172 -2347 13385 -9150
55582 312230 292166 -2259 13428 -9103
55579 312229 292155 -2284 13456 -9075
55578 312236 292159 -2373 13502 -9079
55583 312246 292169 -2256 13500 -9055
55589 312266 292185 -2359 13473 -9080
55597 312274 292191 -2396 13444 -9106
55602 312277 292188 -2350 13389 -9111
55610 312288 292178 -2270 13359 -9114
55624 312287 292179 -2249 13384 -9132
55638 312295 292180 -2304 13418 -9145
55655 312306 292180 -2348 13427 -9145
55672 312304 292186 -2324 13429 -9138
55694 312296 292174 -2288 13433 -9119
55715 312294 292178 -2300 13428 -9113
55738 312300 292189 -2326 13437 -9119
55760 312301 292184 -2324 13430 -9124
55780 312289 292192 -2305 13409 -9127
55803 312327 292210 -2263 13402 -9127
55830 312314 292210 -2237 13400 -9120
55848 312336 292221 -2262 13403 -9120
55871 312369 292238 -2301 13390 -9126
55890 312389 292237 -2313 13375 -9130
55907 312380 292225 -2291 13384 -9129
55910 312322 292202 -2357 13473 -9140
55907 312339 292196 -2321 13483 -9129
55901 312347 292201 -2281 13462 -9100
55888 312326 292196 -2342 13469 -9038
55876 312312 292196 -2364 13478 -9015
55865 312311 292190 -2367 13476 -9069
55862 312296 292175 -2271 13461 -9112
55855 312311 292195 -2220 13457 -9119
55851 312305 292194 -2347 13492 -9116
55843 312272 292177 -2356 13492 -9101
55849 312313 292194 -2288 13476 -9082
55855 312325 292184 -2262 13447 -9093
55854 312314 292179 -2288 13386 -9116
55862 312328 292191 -2347 13363 -9119
55867 312338 292190 -2363 13375 -9131
55868 312337 292187 -2271 13401 -9119
55869 312320 292174 -2269 13416 -9134
55870 312305 292178 -2375 13425 -9151
55874 312332 292178 -2292 13419 -9124
55879 312340 292185 -2213 13427 -9109
55886 312349 292212 -2285 13461 -9115
55895 312342 292220 -2355 13441 -9136
55904 312355 292228 -2354 13397 -9117
55915 312366 292230 -2258 13390 -9106
55929 312371 292225 -2212 13403 -9117
55941 312378 292226 -2258 13418 -9125
55955 312372 292223 -2296 13426 -9125
55971 312386 292230 -2271 13421 -9126
55986 312383 292233 -2233 13422 -9134
56001 312387 292225 -2233 13437 -9135
56017 312395 292238 -2269 13457 -9144
56037 312422 292257 -2285 13446 -9147
56053 312438 292266 -2277 13413 -9136
56075 312459 292287 -2286 13388 -9132
56093 312475 292318 -2273 13370 -9142
56119 312485 292333 -2243 13345 -9153
56140 312505 292357 -2247 13341 -9154
56157 312507 292350 -2271 13369 -9152
56170 312490 292329 -2279 13391 -9148
56191 312503 292332 -2265 13417 -9144
56211 312498 292320 -2288 13437 -9152
56227 312453 292270 -2283 13415 -9150
56228 312374 292190 -2314 13418 -9136
56210 312249 292055 -2300 13439 -9149
56181 312097 291852 -2243 13418 -9143
56142 311973 291679 -2277 13414 -9106
56100 311768 291513 -2319 13446 -9076
56063 311575 291384 -2318 13427 -9119
56026 311372 291252 -2238 13423 -9175
55995 311162 291116 -2332 13597 -9212
55973 310870 290925 -2420 13594 -9162
56009 310509 290671 -2346 13473 -9072
56236 311499 291202 -2203 13392 -8980
55992 313315 289729 -2154 13503 -8968
43721 273280 241252 -2257 13748 -9074
42703 245702 227406 -2345 14023 -9291
80084 304997 318416 -2347 14361 -9499
88032 312353 332579 -2238 14512 -9361
88601 311740 332879 -2107 13228 -8828
89437 311426 333711 -2048 12911 -8541
90345 311629 334845 -2081 12991 -8397
90882 311390 335066 -2196 13098 -8387
91324 310699 334871 -2091 13227 -8316
92005 311089 335853 -1781 13497 -8411
93033 312805 338161 -1697 13763 -8615
93717 313643 339439 -1850 13806 -8709
94057 313793 339938 -1998 13837 -8760
94315 314013 340313 -2031 13909 -8837
94866 316151 342447 -1926 13822 -8929
95483 319078 345067 -1874 13568 -9015
95978 322125 347673 -1928 13410 -9018
96437 324445 349638 -1946 13540 -9013
96293 324251 349301 -1894 13741 -8967
96637 327434 351878 -1932 13825 -8826
96411 328518 352284 -1999 13646 -8820
95901 329271 352119 -1996 13468 -9024
94889 330651 351706 -2005 13464 -9281
93034 331386 349912 -1973 13573 -9149
90458 330645 346403 -1922 13567 -8925
86075 327567 338603 -1921 13371 -8959
78910 320209 323984 -1900 13256 -8948
68966 307797 302123 -1861 13156 -8898
56739 291561 275214 -1936 13224 -8944
47749 281983 259248 -2165 13516 -9021
44451 280742 256561 -2228 13644 -9123
44175 283538 259466 -2071 13440 -9242
45246 286580 263238 -2085 13247 -9242
47064 292328 268426 -2200 13274 -9311
48827 297634 273908 -2232 13477 -9568
51267 303720 280709 -2143 13485 -9495
53024 307576 286535 -2163 13476 -9428
54071 310205 290801 -2231 13480 -9406
55130 312895 294809 -2196 13379 -9458
55668 314003 296213 -2138 13295 -9458
55820 313927 296317 -2151 13322 -9330
55914 313844 296386 -2187 13348 -9220
55976 313772 296411 -2221 13368 -9205
56034 313655 296403 -2268 13428 -9241
56082 313533 296365 -2262 13465 -9182
56130 313499 296392 -2334 13498 -9109
56167 313447 296383 -2414 13546 -9074
56199 313419 296389 -2293 13543 -9019
56225 313400 296371 -2268 13486 -9002
56256 313398 296396 -2358 13506 -8993
56293 313420 296432 -2397 13572 -8986
56328 313445 296462 -2414 13536 -8957
56364 313463 296510 -2360 13509 -8914
56402 313468 296567 -2347 13558 -8898
56438 313490 296616 -2427 13579 -8868
56474 313498 296634 -2483 13604 -8836
56513 313512 296676 -2450 13637 -8836
56552 313546 296727 -2440 13628 -8819
56594 313556 296756 -2478 13646 -8781
56629 313541 296772 -2492 13667 -8762
56665 313522 296781 -2482 13680 -8749
56701 313489 296771 -2507 13706 -8731
56732 313451 296768 -2562 13719 -8737
56770 313431 296765 -2543 13713 -8773
56803 313416 296759 -2504 13728 -8780
56834 313429 296777 -2496 13739 -8751
56869 313452 296788 -2462 13710 -8717
56900 313443 296798 -2457 13716 -8700
56912 313384 296786 -2490 13719 -8664
56917 313374 296763 -2545 13718 -8645
56919 313353 296755 -2594 13748 -8691
56913 313309 296732 -2476 13746 -8725
56904 313266 296708 -2392 13736 -8731
56897 313250 296700 -2503 13729 -8736
56892 313223 296678 -2550 13707 -8749
56886 313198 296652 -2488 13694 -8756
56884 313168 296627 -2431 13687 -8743
56879 313142 296607 -2428 13682 -8744
56887 313169 296625 -2475 13685 -8759
56889 313191 296653 -2544 13676 -8776
56897 313164 296647 -2491 13696 -8769
56907 313170 296648 -2460 13697 -8758
56913 313142 296616 -2568 13697 -8738
56910 313095 296589 -2521 13704 -8743
56905 313033 296529 -2412 13716 -8779
56906 312962 296470 -2453 13773 -8795
56908 312906 296418 -2520 13733 -8810
56915 312851 296372 -2518 13667 -8830
56920 312785 296338 -2433 13675 -8844
56923 312728 296271 -2355 13659 -8848
56930 312674 296202 -2359 13638 -8857
56933 312612 296139 -2405 13659 -8868
56936 312581 296061 -2425 13657 -8883
56936 312554 296009 -2377 13649 -8924
56935 312504 295926 -2349 13636 -8899
56940 312447 295838 -2317 13602 -8881
56944 312414 295765 -2303 13594 -8888
56946 312369 295697 -2298 13635 -8908
56948 312321 295650 -2293 13624 -8918
56954 312298 295617 -2297 13616 -8930
56957 312256 295570 -2309 13641 -8945
56961 312149 295479 -2292 13621 -8936
56962 312066 295400 -2321 13594 -8942
56956 312002 295357 -2384 13615 -8953
56958 311979 295324 -2372 13618 -8952
56956 311919 295275 -2356 13562 -8942
56932 311858 295229 -2352 13544 -8871
56908 311844 295226 -2364 13565 -8857
56877 311807 295182 -2367 13576 -8921
56839 311745 295148 -2270 13571 -8937
56794 311681 295108 -2231 13584 -8929
56757 311628 295077 -2326 13619 -8932
56720 311608 295053 -2332 13573 -8918
56683 311552 295025 -2301 13564 -8898
56652 311494 294972 -2321 13582 -8897
56621 311438 294935 -2375 13603 -8902
56592 311408 294901 -2399 13571 -8919
56561 311362 294866 -2349 13576 -8890
56529 311312 294826 -2340 13599 -8898
56510 311287 294776 -2358 13607 -8918
56481 311202 294706 -2263 13606 -8875
56449 311176 294674 -2262 13588 -8882
56419 311152 294647 -2346 13601 -8924
56390 311141 294621 -2359 13584 -8951
56363 311111 294580 -2327 13562 -8947
56332 311086 294563 -2265 13571 -8930
56302 311065 294537 -2221 13601 -8925
56278 311057 294526 -2242 13603 -8920
56256 311049 294502 -2295 13607 -8918
56235 311015 294484 -2309 13630 -8923
56220 311000 294471 -2293 13637 -8914
56202 311015 294480 -2274 13623 -8892
56189 311008 294485 -2289 13598 -8890
56177 311015 294486 -2315 13599 -8908
56164 310994 294463 -2316 13627 -8908
56152 311006 294489 -2289 13605 -8903
56143 311065 294531 -2273 13554 -8902
56139 311111 294552 -2290 13536 -8913
56137 311145 294571 -2301 13516 -8913
56140 311212 294604 -2296 13516 -8899
56142 311261 294623 -2264 13535 -8905
56141 311275 294623 -2232 13527 -8908
56131 311282 294608 -2330 13587 -8906
56110 311245 294578 -2332 13613 -8938
56085 311280 294600 -2296 13605 -9004
56056 311277 294600 -2228 13578 -9027
56022 311279 294609 -2285 13571 -9019
55992 311308 294646 -2312 13560 -9007
55960 311364 294696 -2263 13500 -9001
55935 311341 294676 -2219 13463 -8987
55906 311324 294678 -2255 13451 -8971
55878 311296 294644 -2386 13493 -9056
55860 311260 294625 -2363 13499 -9030
55857 311228 294593 -2329 13508 -9012
55853 311192 294571 -2339 13527 -9023
55844 311188 294597 -2260 13510 -9023
55842 311214 294595 -2204 13457 -9051
55835 311217 294594 -2270 13450 -9081
55823 311215 294592 -2342 13461 -9090
55812 311218 294582 -2338 13433 -9085
55804 311241 294583 -2297 13420 -9095
55794 311267 294611 -2309 13436 -9102
55785 311291 294651 -2351 13446 -9104
55779 311299 294664 -2370 13474 -9106
55770 311309 294682 -2347 13488 -9094
55766 311315 294681 -2324 13478 -9074
55758 311320 294693 -2319 13483 -9066
55758 311338 294706 -2321 13481 -9068
55755 311345 294721 -2350 13466 -9068
55756 311370 294743 -2377 13447 -9063
55762 311411 294776 -2365 13433 -9067
55769 311431 294808 -2363 13442 -9087
55773 311494 294845 -2385 13459 -9083
55783 311535 294869 -2420 13465 -9056
55792 311547 294890 -2445 13503 -9028
55803 311587 294918 -2396 13515 -9017
55812 311598 294939 -2387 13492 -9001
55821 311596 294936 -2433 13498 -8947
55819 311575 294959 -2421 13498 -8942
55802 311558 294972 -2436 13516 -8990
55784 311567 294987 -2337 13500 -9028
55754 311542 294995 -2299 13499 -9056
55724 311532 295017 -2403 13537 -9070
55697 311504 295025 -2392 13532 -9053
55670 311503 295046 -2320 13486 -9015
55645 311507 295069 -2285 13471 -9004
55626 311487 295083 -2343 13477 -9016
55607 311455 295081 -2414 13447 -9018
55592 311465 295096 -2427 13442 -9027
55587 311463 295103 -2350 13474 -8993
55584 311429 295109 -2368 13486 -8990
55573 311434 295115 -2445 13495 -9035
55571 311445 295122 -2322 13491 -9040
55563 311439 295114 -2288 13500 -9023
55556 311440 295122 -2408 13524 -9015
55551 311419 295120 -2469 13519 -9022
55543 311402 295117 -2432 13499 -9020
55537 311398 295118 -2340 13485 -9013
55536 311392 295117 -2342 13489 -8995
55528 311375 295134 -2398 13499 -8978
55531 311368 295139 -2424 13515 -8975
55533 311386 295168 -2374 13543 -9005
55540 311387 295216 -2382 13515 -8985
55552 311372 295253 -2418 13518 -8968
55561 311363 295274 -2431 13527 -8967
55574 311369 295310 -2422 13516 -8969
55583 311367 295330 -2418 13514 -8968
55597 311373 295359 -2404 13509 -8976
55611 311383 295368 -2414 13500 -8979
55622 311380 295370 -2421 13495 -8971
55638 311386 295378 -2428 13518 -8982
55653 311399 295388 -2450 13549 -8997
55662 311393 295390 -2420 13546 -8987
55678 311409 295412 -2408 13542 -8940
55697 311401 295415 -2410 13551 -8919
55709 311395 295395 -2450 13549 -8959
55704 311340 295379 -2386 13534 -9005
55689 311322 295393 -2299 13530 -9006
55676 311319 295397 -2402 13577 -8996
55646 311316 295408 -2456 13583 -8993
55618 311300 295418 -2402 13535 -8976
55592 311294 295439 -2327 13507 -8962
55565 311279 295432 -2317 13493 -8962
55540 311275 295441 -2398 13492 -8963
55521 311234 295426 -2429 13493 -8962
55499 311205 295399 -2351 13503 -8978
55482 311203 295398 -2283 13525 -8946
55480 311215 295400 -2384 13550 -8936
55472 311200 295397 -2435 13573 -8957
55462 311160 295382 -2276 13558 -8949
55459 311182 295370 -2286 13556 -8954
55444 311154 295354 -2432 13571 -8959
55434 311124 295335 -2459 13587 -8952
55422 311057 295289 -2365 13595 -8946
55411 311002 295252 -2281 13588 -8953
55401 310930 295199 -2274 13625 -8968
55388 310860 295143 -2332 13661 -8980
55376 310762 295071 -2380 13664 -8957
55361 310590 294952 -2330 13710 -8918
55342 310368 294778 -2268 13754 -8877
55317 310082 294589 -2268 13718 -8851
55302 309824 294421 -2307 13701 -8823
55298 309605 294290 -2293 13703 -8753
55306 309428 294179 -2234 13720 -8698
55327 309312 294111 -2218 13772 -8701
55377 309248 294058 -2228 13894 -8768
55523 309541 294219 -2268 14237 -8933
55816 310955 294990 -2319 14606 -9049
56034 313955 296077 -2231 14608 -8928
53000 307711 283032 -2120 14076 -8690
39365 252884 227906 -2142 13240 -8422
73181 296257 303487 -2132 13106 -8260
88235 315462 334456 -2078 13030 -8261
89235 312365 333844 -2030 13209 -8239
89613 312192 334491 -1914 13511 -8262
90153 310358 334103 -1763 13808 -8537
90337 309233 333814 -1780 13862 -8719
90566 308123 333365 -1881 13879 -8727
90599 306419 332349 -1905 13926 -8798
90908 306013 332716 -2120 14076 -8690
91549 307160 334294 -2142 13240 -8422
92415 309271 336736 -2132 13106 -8260
92961 310188 337930 -2078 13030 -8261
93270 311222 339093 -2030 13209 -8239
93947 314779 342338 -1914 13511 -8262
94782 318907 346088 -1763 13808 -8537
94721 318946 345972 -1780 13862 -8719
95153 322572 348829 -1881 13879 -8727
95392 325873 351450 -1905 13926 -8798
95387 327404 352341 -1951 13800 -8918
95042 326926 351662 -1985 13654 -8903
94854 329691 353392 -1992 13536 -8993
94074 332421 354239 -1901 13502 -9025
92452 333186 352792 -1903 13484 -8852
89728 332481 349079 -1982 13538 -8848
86313 329423 342634 -1992 13623 -9097
80930 324030 331860 -2026 13518 -9243
72894 314642 314913 -2003 13501 -9104
64352 302934 295676 -1994 13571 -9054
53092 287929 271321 -2045 13502 -9254
45063 280930 259912 -2011 13402 -9099
42771 281204 260004 -1927 13252 -8882
43368 283120 262877 -1892 13122 -8991
44530 286975 266614 -2017 13171 -9109
46335 292606 272384 -2072 13408 -9222
49146 300014 280151 -1965 13473 -9257
50942 304291 286124 -1983 13338 -9220
52058 307175 290543 -2128 13401 -9263
53238 310415 294940 -2260 13504 -9272
53914 311957 296870 -2176 13448 -9370
54175 312179 297313 -2051 13478 -9502
54314 312150 297497 -2045 13460 -9525
54401 312089 297563 -2100 13370 -9402
54471 312037 297561 -2146 13415 -9271
54527 311929 297494 -2158 13464 -9232
54567 311820 297456 -2158 13399 -9205
54602 311797 297450 -2173 13369 -9155
54633 311766 297469 -2218 13461 -9117
54654 311738 297485 -2280 13558 -9103
54677 311713 297493 -2308 13545 -9057
54697 311686 297500 -2334 13543 -8972
54718 311664 297484 -2337 13577 -8918
54741 311612 297451 -2338 13604 -8932
54762 311540 297412 -2258 13583 -8920
54787 311504 297404 -2195 13577 -8879
54818 311528 297417 -2326 13638 -8869
54848 311462 297407 -2384 13651 -8857
54877 311352 297358 -2310 13645 -8812
54908 311276 297332 -2276 13646 -8773
54933 311187 297304 -2324 13665 -8748
54950 311134 297273 -2399 13699 -8724
54965 311082 297262 -2412 13702 -8722
54982 311048 297256 -2356 13717 -8734
54994 311037 297269 -2344 13746 -8702
55010 311019 297275 -2425 13782 -8647
55023 310998 297260 -2410 13803 -8628
55034 310968 297257 -2287 13799 -8619
55048 310962 297266 -2334 13823 -8627
55062 310958 297276 -2435 13762 -8697
55080 310942 297280 -2426 13772 -8683
55100 310926 297283 -2380 13796 -8657
55119 310919 297270 -2359 13794 -8640
55139 310897 297243 -2409 13812 -8635
55161 310872 297241 -2467 13835 -8624
55183 310835 297214 -2426 13825 -8616
55203 310782 297192 -2366 13819 -8608
55225 310740 297162 -2371 13837 -8600
55249 310720 297157 -2438 13791 -8657
55276 310696 297153 -2441 13797 -8644
55302 310678 297152 -2420 13816 -8595
55319 310622 297135 -2387 13799 -8556
55322 310539 297086 -2416 13791 -8564
55322 310515 297070 -2419 13824 -8603
55318 310476 297051 -2381 13834 -8622
55307 310416 297019 -2405 13828 -8613
55296 310376 296985 -2412 13839 -8575
55288 310334 296951 -2422 13843 -8564
55279 310319 296940 -2438 13841 -8615
55272 310318 296936 -2331 13814 -8643
55274 310300 296935 -2322 13810 -8654
55271 310276 296917 -2451 13826 -8655
55278 310246 296892 -2451 13793 -8652
55284 310189 296873 -2373 13766 -8647
55293 310108 296817 -2353 13749 -8632
55304 310100 296786 -2381 13721 -8617
55313 310048 296740 -2411 13720 -8610
55315 309995 296688 -2412 13711 -8645
55321 309939 296651 -2374 13694 -8655
55328 309893 296603 -2444 13715 -8676
55335 309846 296565 -2540 13764 -8703
55348 309798 296528 -2405 13778 -8697
55352 309759 296485 -2337 13772 -8710
55359 309720 296445 -2433 13767 -8719
55371 309710 296429 -2454 13749 -8749
55377 309697 296410 -2423 13719 -8781
55389 309683 296400 -2361 13680 -8788
55398 309680 296374 -2308 13666 -8803
55407 309671 296361 -2336 13645 -8838
55409 309671 296332 -2371 13656 -8851
55416 309663 296299 -2323 13666 -8843
55423 309655 296284 -2265 13647 -8831
55429 309630 296263 -2240 13644 -8822
55430 309625 296242 -2241 13640 -8820
55437 309615 296212 -2250 13659 -8814
55438 309612 296201 -2276 13675 -8829
55447 309592 296182 -2302 13669 -8867
55456 309589 296180 -2301 13619 -8883
55462 309618 296178 -2311 13589 -8896
55474 309611 296169 -2332 13618 -8907
55484 309583 296124 -2320 13616 -8900
55478 309522 296100 -2283 13596 -8888
55464 309513 296069 -2276 13617 -8874
55445 309476 296043 -2306 13650 -8858
55420 309446 296014 -2298 13644 -8873
55392 309416 296000 -2273 13617 -8884
55372 309418 295980 -2273 13601 -8842
55352 309397 295952 -2299 13610 -8823
55331 309385 295935 -2294 13580 -8944
55315 309339 295895 -2251 13596 -8952
55294 309322 295875 -2345 13619 -8958
55282 309346 295867 -2356 13596 -8949
55273 309331 295846 -2255 13546 -8916
55262 309276 295797 -2192 13549 -8910
55249 309282 295769 -2209 13556 -8921
55239 309282 295761 -2259 13523 -8937
55226 309271 295748 -2275 13516 -8971
55214 309266 295743 -2246 13573 -8965
55203 309255 295715 -2313 13570 -8971
55190 309236 295699 -2249 13556 -8956
55185 309244 295680 -2192 13556 -8967
55172 309255 295656 -2287 13586 -8984
55164 309241 295650 -2341 13553 -8993
55156 309223 295649 -2297 13496 -8993
55152 309203 295628 -2213 13492 -8992
55147 309182 295588 -2150 13515 -8994
55143 309186 295574 -2174 13505 -9008
55141 309179 295550 -2244 13501 -9029
55139 309189 295540 -2280 13535 -9044
55135 309188 295523 -2272 13539 -9033
55137 309177 295518 -2225 13506 -9013
55135 309184 295513 -2181 13490 -9019
55139 309219 295500 -2188 13494 -9032
55141 309219 295480 -2215 13470 -9038
55145 309213 295457 -2217 13452 -9052
55150 309238 295454 -2223 13459 -9058
55152 309248 295445 -2247 13441 -9071
55159 309266 295428 -2263 13443 -9094
55156 309222 295395 -2270 13480 -9091
55133 309196 295369 -2269 13520 -9077
55111 309214 295353 -2227 13517 -9088
55080 309163 295275 -2217 13467 -9086
55047 309067 295162 -2285 13450 -9036
55008 309010 295063 -2299 13478 -9002
54981 309012 295057 -2345 13527 -9035
54961 309005 295024 -2304 13517 -9086
54944 308969 294992 -2204 13482 -9088
54928 308967 295015 -2280 13528 -9052
54932 308992 295051 -2317 13563 -9033
54935 309000 295071 -2256 13529 -9022
54935 309005 295106 -2197 13465 -8990
54943 309046 295141 -2230 13427 -8956
54946 309051 295150 -2270 13465 -8956
54945 309034 295157 -2246 13486 -8983
54949 309045 295179 -2201 13449 -8925
54949 309042 295196 -2253 13464 -8908
54957 309081 295221 -2269 13549 -8957
54962 309095 295241 -2233 13585 -8961
54968 309099 295255 -2346 13609 -8974
54973 309103 295250 -2336 13615 -8982
54982 309117 295242 -2241 13589 -8980
54990 309126 295251 -2182 13558 -8978
55001 309125 295254 -2226 13531 -8974
55013 309141 295264 -2274 13554 -8976
55028 309151 295285 -2251 13579 -8972
55043 309161 295285 -2208 13579 -8962
55058 309152 295301 -2227 13580 -8964
55072 309169 295326 -2274 13556 -8969
55089 309187 295354 -2259 13563 -8980
55105 309210 295375 -2231 13574 -8968
55122 309208 295387 -2230 13569 -8943
55143 309221 295411 -2250 13570 -8928
55165 309241 295426 -2259 13574 -8932
55181 309251 295449 -2243 13570 -8952
55199 309255 295457 -2245 13563 -8952
55195 309195 295447 -2271 13606 -8941
55197 309234 295485 -2277 13637 -8945
55190 309235 295501 -2268 13599 -8940
55177 309219 295505 -2310 13597 -8910
55165 309205 295527 -2314 13610 -8880
55157 309205 295513 -2353 13595 -8912
55148 309210 295521 -2307 13605 -8966
55142 309207 295514 -2215 13585 -8954
55137 309169 295498 -2299 13575 -8941
55131 309146 295502 -2333 13586 -8948
55139 309176 295502 -2248 13565 -8915
55143 309161 295510 -2169 13553 -8892
55143 309146 295506 -2221 13562 -8897
55153 309164 295507 -2320 13579 -8889
55158 309181 295527 -2334 13562 -8895
55160 309201 295560 -2249 13568 -8901
55164 309179 295560 -2196 13602 -8880
55168 309172 295565 -2288 13637 -8860
55176 309182 295570 -2277 13640 -8867
55185 309185 295568 -2178 13631 -8880
55189 309175 295574 -2221 13647 -8893
55195 309171 295573 -2321 13614 -8910
55201 309186 295587 -2360 13566 -8907
55210 309187 295583 -2271 13578 -8907
55219 309207 295578 -2186 13592 -8910
55227 309191 295566 -2228 13581 -8911
55238 309167 295530 -2291 13596 -8919
55244 309115 295478 -2261 13620 -8904
55252 309070 295442 -2189 13624 -8892
55261 309029 295411 -2198 13620 -8909
55268 309017 295383 -2233 13619 -8925
55275 308991 295352 -2245 13627 -8923
55278 308961 295317 -2274 13630 -8918
55281 308943 295296 -2284 13612 -8908
55283 308935 295276 -2269 13639 -8908
55284 308931 295278 -2237 13618 -8888
55288 308952 295307 -2191 13575 -8869
55291 308996 295361 -2179 13602 -8884
55292 308997 295377 -2202 13608 -8896
55277 308951 295373 -2215 13676 -8887
55263 308949 295365 -2230 13754 -8870
55241 308928 295355 -2211 13684 -8852
55216 308899 295358 -2208 13618 -8837
55191 308885 295379 -2256 13570 -8789
55174 308901 295402 -2290 13542 -8761
55160 308926 295413 -2280 13653 -8829
55149 308939 295424 -2169 13715 -8875
55140 308935 295443 -2125 13709 -8858
55132 308919 295437 -2219 13706 -8850
55138 308965 295462 -2245 13671 -8853
55140 308944 295449 -2182 13640 -8827
55132 308913 295436 -2148 13628 -8811
55137 308939 295454 -2248 13606 -8851
55136 308937 295459 -2240 13630 -8876
55128 308902 295435 -2171 13685 -8865
55125 308830 295376 -2178 13674 -8846
55113 308787 295342 -2262 13701 -8839
55103 308744 295313 -2204 13683 -8814
55102 308743 295308 -2156 13649 -8800
55103 308664 295243 -2238 13723 -8820
55104 308594 295189 -2335 13736 -8842
55112 308534 295164 -2346 13690 -8844
55143 308560 295148 -2290 13660 -8859
55202 308785 295142 -2216 13679 -8866
55302 309813 295354 -2210 13700 -8822
55426 311943 295910 -2278 13729 -8802
55214 314224 296295 -2292 13859 -8875
49238 296781 271133 -2225 13965 -8900
49654 265430 252679 -2186 13993 -8827
84303 313359 328761 -2244 14104 -8758
88846 309733 330986 -2303 14370 -8789
89499 304279 328253 -2303 14588 -8820
89431 300222 325740 -2150 14486 -8755
89446 299138 325498 -1998 13932 -8648
89888 298781 326230 -2002 13366 -8535
89998 296980 325311 -2021 13258 -8395
89887 295188 323957 -1985 13150 -8331
89801 294476 323296 -1918 13008 -8302
89721 294381 323062 -1961 13369 -8212
89378 293098 321757 -1943 13548 -8243
89502 293719 322378 -1830 13388 -8351
90241 296849 325436 -2047 13691 -8432
91334 301494 329925 -2103 14060 -8776
92550 307266 335251 -1958 13788 -8763
93312 311083 338614 -2038 13500 -8685
93473 312967 340011 -2128 13603 -8690
93696 316329 342607 -2026 13826 -8721
93960 320343 345572 -1967 13813 -8831
93930 323147 347440 -2093 13723 -8964
93649 325267 348447 -2124 13636 -9030
92763 328400 349448 -2017 13462 -9170
91144 329558 348295 -1963 13392 -9339
88412 328355 344186 -1932 13391 -9270
83841 324668 335823 -2010 13307 -9251
77480 318041 323165 -2349 13288 -9313
70192 308437 307004 -2415 13323 -9162
61043 295264 285924 -2098 13251 -8904
51971 284001 267460 -2083 13189 -8839
45659 278797 258856 -2212 13282 -9019
43046 278721 258003 -2156 13452 -9077
42993 279533 259863 -2219 13521 -9097
44137 283175 263909 -2294 13503 -9313
46375 291081 271588 -2256 13462 -9329
50058 300822 282029 -2115 13389 -9353
51824 304895 288106 -2080 13349 -9439
53318 308899 293961 -2187 13401 -9495
54297 311114 297259 -2232 13438 -9452
54630 311458 297916 -2162 13403 -9334
54766 311379 298004 -2127 13405 -9286
54850 311255 297955 -2134 13416 -9314
54921 311205 297950 -2165 13371 -9288
54997 311224 297981 -2221 13340 -9231
55064 311207 297955 -2235 13390 -9182
55132 311163 297917 -2224 13471 -9144
55188 311158 297887 -2244 13493 -9100
55247 311120 297894 -2269 13431 -9066
55302 311049 297892 -2267 13406 -9044
55339 310942 297869 -2304 13502 -9023
55362 310860 297839 -2301 13571 -9007
55384 310810 297844 -2298 13556 -8958
55393 310756 297825 -2378 13551 -8885
55399 310703 297814 -2452 13566 -8864
55403 310660 297790 -2451 13561 -8889
55404 310595 297776 -2335 13545 -8915
55408 310539 297744 -2312 13589 -8915
55409 310505 297742 -2407 13661 -8887
55421 310453 297714 -2404 13652 -8884
55426 310427 297690 -2359 13624 -8881
55440 310423 297676 -2363 13606 -8862
55455 310384 297651 -2373 13590 -8852
55461 310325 297614 -2376 13575 -8832
55476 310336 297603 -2408 13561 -8846
55481 310308 297578 -2377 13622 -8869
55484 310288 297570 -2341 13628 -8846
55490 310269 297549 -2431 13631 -8822
55497 310231 297529 -2429 13651 -8826
55503 310208 297503 -2329 13642 -8850
55504 310189 297487 -2373 13675 -8864
55514 310157 297456 -2435 13660 -8868
55520 310141 297440 -2425 13648 -8873
55531 310111 297425 -2372 13629 -8860
55546 310084 297414 -2351 13617 -8858
55555 310074 297385 -2379 13645 -8866
55566 310057 297381 -2373 13660 -8870
55585 310038 297368 -2368 13660 -8862
55605 310015 297349 -2346 13658 -8840
55625 310011 297355 -2318 13661 -8823
55645 310014 297343 -2341 13679 -8819
55664 310009 297346 -2360 13673 -8816
55691 309961 297310 -2329 13654 -8802
55713 309961 297292 -2326 13658 -8817
55731 309946 297266 -2347 13621 -8833
55754 309886 297221 -2341 13606 -8819
55771 309843 297190 -2369 13667 -8803
55779 309795 297160 -2358 13702 -8810
55773 309752 297134 -2319 13673 -8804
55765 309710 297080 -2362 13667 -8775
55747 309640 297011 -2378 13670 -8762
55725 309569 296950 -2368 13650 -8795
55700 309517 296895 -2305 13645 -8840
55677 309454 296828 -2236 13652 -8855
55655 309406 296772 -2294 13682 -8870
55630 309347 296693 -2372 13692 -8874
55613 309275 296620 -2362 13665 -8862
55591 309268 296588 -2297 13651 -8842
55588 309263 296551 -2216 13629 -8833
55574 309237 296524 -2190 13594 -8837
55564 309214 296488 -2265 13586 -8849
55555 309218 296466 -2304 13603 -8879
55541 309196 296434 -2252 13628 -8835
55525 309171 296402 -2283 13642 -8830
55508 309131 296352 -2334 13646 -8881
55493 309104 296310 -2231 13638 -8870
55475 309090 296267 -2252 13667 -8874
55460 309065 296231 -2352 13684 -8891
55447 309060 296209 -2355 13648 -8888
55438 309038 296178 -2306 13605 -8883
55427 309033 296153 -2219 13583 -8896
55419 309001 296118 -2219 13566 -8904
55415 308976 296059 -2304 13563 -8920
55408 308929 296007 -2344 13594 -8929
55406 308898 295963 -2310 13599 -8947
55401 308844 295916 -2268 13587 -8973
55398 308808 295873 -2265 13601 -8959
55402 308791 295844 -2300 13610 -8949
55406 308770 295818 -2291 13596 -8948
55407 308737 295776 -2259 13561 -8943
55408 308722 295742 -2266 13523 -8961
55408 308699 295706 -2282 13517 -8990
55409 308689 295681 -2259 13533 -8990
55411 308726 295684 -2264 13542 -8974
55417 308726 295664 -2279 13528 -8981
55417 308711 295632 -2275 13539 -8972
55409 308690 295602 -2251 13576 -8986
55387 308628 295553 -2203 13556 -8980
55364 308644 295550 -2227 13514 -8947
55334 308616 295535 -2267 13522 -8923
55302 308597 295524 -2289 13545 -8936
55276 308575 295476 -2270 13558 -8977
55248 308551 295446 -2174 13561 -9018
55221 308527 295395 -2276 13579 -9026
55198 308505 295375 -2204 13542 -8995
55180 308484 295330 -2138 13511 -8963
55164 308497 295336 -2139 13497 -8972
55155 308516 295327 -2181 13503 -8980
55143 308506 295312 -2221 13514 -8984
55131 308532 295316 -2214 13533 -8998
55122 308574 295311 -2178 13542 -8971
55099 308570 295276 -2253 13552 -8954
55080 308556 295263 -2171 13574 -8996
55060 308538 295216 -2210 13585 -8992
55035 308523 295180 -2287 13612 -8997
55013 308510 295157 -2266 13589 -8983
54994 308496 295136 -2205 13569 -8960
54977 308488 295133 -2195 13589 -8957
54965 308488 295141 -2231 13579 -8950
54960 308506 295183 -2230 13574 -8941
54953 308523 295204 -2205 13582 -8937
54949 308534 295244 -2187 13585 -8927
54948 308554 295265 -2192 13571 -8921
54950 308545 295294 -2201 13551 -8912
54957 308555 295305 -2210 13555 -8900
54962 308543 295297 -2203 13562 -8902
54966 308548 295309 -2180 13581 -8894
54977 308544 295333 -2163 13607 -8899
54989 308552 295371 -2180 13651 -8920
55001 308553 295372 -2209 13633 -8931
55018 308581 295387 -2231 13622 -8930
55030 308579 295401 -2278 13678 -8914
55041 308577 295411 -2275 13661 -8913
55045 308549 295427 -2232 13599 -8897
55039 308566 295464 -2270 13590 -8839
55040 308586 295480 -2308 13586 -8814
55026 308568 295487 -2342 13619 -8846
55010 308574 295508 -2235 13657 -8878
54997 308581 295524 -2148 13650 -8864
54988 308590 295528 -2295 13693 -8854
54980 308606 295528 -2346 13697 -8863
54974 308607 295527 -2230 13645 -8851
54965 308608 295536 -2185 13624 -8826
54970 308661 295574 -2236 13626 -8812
54973 308667 295587 -2286 13635 -8805
54972 308634 295566 -2287 13665 -8829
54977 308651 295602 -2188 13682 -8809
54982 308664 295608 -2224 13681 -8805
55056 308780 295791 -2188 13719 -8804
55068 308790 295807 -2211 13701 -8803
55084 308814 295818 -2206 13683 -8800
55102 308825 295835 -2241 13651 -8804
55117 308839 295846 -2251 13648 -8793
55136 308853 295861 -2247 13649 -8793
55156 308880 295872 -2220 13677 -8810
55176 308894 295902 -2214 13689 -8826
55192 308923 295917 -2225 13653 -8832
55214 308922 295926 -2210 13642 -8833
55233 308930 295929 -2217 13679 -8835
55252 308955 295939 -2233 13714 -8850
55271 308940 295939 -2220 13701 -8865
55285 308937 295938 -2256 13691 -8812
55288 308903 295942 -2269 13670 -8807
55281 308908 295948 -2226 13648 -8860
55273 308916 295949 -2127 13644 -8851
55256 308893 295957 -2184 13689 -8857
55239 308870 295948 -2280 13728 -8872
55223 308886 295950 -2214 13726 -8853
55212 308885 295954 -2131 13698 -8826
55200 308876 295959 -2141 13667 -8818
55193 308847 295932 -2217 13649 -8837
55182 308803 295880 -2245 13649 -8851
55181 308819 295898 -2211 13681 -8867
55186 308833 295895 -2133 13707 -8833
55187 308802 295891 -2144 13665 -8814
55185 308807 295886 -2234 13678 -8811
55195 308827 295903 -2166 13695 -8801
55193 308832 295890 -2129 13688 -8801
55192 308818 295873 -2196 13726 -8810
55188 308788 295845 -2250 13746 -8846
55195 308756 295813 -2270 13716 -8861
55201 308738 295779 -2191 13675 -8849
55202 308716 295757 -2158 13714 -8828
55217 308712 295752 -2190 13750 -8819
55226 308708 295715 -2205 13708 -8810
55235 308728 295696 -2197 13741 -8799
55247 308783 295706 -2159 13820 -8782
55260 308816 295708 -2110 13739 -8761
55266 308808 295686 -2179 13661 -8717
55271 308842 295657 -2292 13716 -8691
55277 308898 295623 -2236 13728 -8730
55277 308994 295619 -2229 13830 -8736
55271 309074 295616 -2250 13788 -8705
55274 309148 295561 -2254 13734 -8669
55284 309272 295549 -2229 13880 -8695
55344 309633 295615 -2163 14045 -8713
55488 310705 295954 -2133 14222 -8724
55709 312962 296972 -2196 14607 -8814
55207 314631 296517 -2174 14959 -8820
45060 282198 255002 -1974 14645 -8773
62665 282949 281319 -1913 13673 -8686
87899 316257 333151 -2084 13127 -8451
90114 308976 330593 -2125 13175 -8240
90285 302737 327076 -1924 13066 -8177
89880 298137 324040 -1915 13210 -8196
89850 296549 323831 -2023 13488 -8296
90191 295205 323541 -1743 13480 -8377
90054 292881 321907 -1683 13752 -8433
89812 290779 320142 -1983 14079 -8592
89642 289581 319168 -1696 13926 -8848
89440 288651 318291 -1802 13770 -8789
89334 288269 317809 -1951 13714 -8727
89101 287645 317117 -1964 13723 -8779
89561 289532 318957 -1911 13771 -8858
90377 293045 322253 -1883 13760 -8793
91423 297501 326566 -1940 13636 -8775
91934 300457 329078 -2074 13444 -8970
92876 305248 333458 -1916 13483 -9099
93435 308314 336094 -1876 13679 -9084
93909 310969 338434 -2071 13719 -9159
94316 313631 340850 -2032 13567 -9221
94846 317797 344357 -1962 13350 -9054
94732 320694 346140 -1930 13207 -8913
94187 324662 348228 -1903 13083 -9010
92662 326596 347889 -1963 13141 -9049
89843 325914 344166 -2059 13383 -9137
84858 323124 336224 -2040 13564 -9218
78063 316497 323129 -1994 13532 -9234
69254 305839 304825 -2045 13437 -9301
60062 293396 284364 -2096 13477 -9344
51239 284130 268462 -2051 13490 -9366
45724 280060 261782 -2031 13434 -9334
43428 279938 261237 -2071 13490 -9280
43739 281635 263821 -2041 13523 -9257
45047 286227 268917 -2013 13443 -9260
47866 294275 276834 -2093 13418 -9256
50328 299924 283914 -2131 13422 -9250
51531 302915 287932 -2095 13400 -9198
52152 304322 290547 -2148 13475 -9145
53235 307197 294589 -2253 13545 -9137
54016 309296 297090 -2292 13506 -9092
54385 310181 297961 -2301 13495 -8997
54662 310611 298537 -2287 13487 -8965
54765 310552 298553 -2248 13497 -8966
54809 310495 298526 -2178 13529 -8943
54846 310462 298515 -2167 13566 -8933
54865 310423 298479 -2295 13648 -8933
54877 310392 298425 -2367 13691 -8939
54891 310331 298376 -2327 13669 -8919
54900 310289 298324 -2344 13590 -8879
54913 310236 298282 -2389 13579 -8863
54922 310184 298221 -2415 13588 -8853
54927 310122 298208 -2377 13638 -8856
54941 310116 298198 -2354 13645 -8803
54958 310107 298204 -2421 13664 -8759
54967 310056 298174 -2387 13686 -8757
54977 310020 298137 -2284 13661 -8752
54987 310006 298095 -2357 13702 -8747
54986 309957 298035 -2467 13734 -8769
54986 309919 298008 -2461 13700 -8795
54982 309875 297970 -2393 13640 -8782
54974 309831 297915 -2328 13641 -8768
54972 309804 297867 -2350 13688 -8781
54966 309778 297816 -2426 13714 -8778
54959 309757 297780 -2448 13716 -8767
54955 309744 297747 -2397 13702 -8757
54950 309683 297699 -2356 13701 -8748
54942 309646 297647 -2351 13714 -8769
54931 309642 297615 -2359 13707 -8790
54927 309622 297566 -2378 13669 -8786
54918 309563 297498 -2379 13659 -8791
54910 309554 297449 -2367 13650 -8799
54901 309542 297409 -2367 13626 -8804
54893 309533 297382 -2417 13670 -8814
54884 309487 297330 -2413 13699 -8822
54878 309476 297288 -2349 13650 -8805
54868 309464 297247 -2386 13636 -8778
54858 309437 297207 -2389 13656 -8762
54841 309387 297131 -2377 13662 -8782
54809 309325 297077 -2368 13677 -8843
54780 309349 297070 -2277 13670 -8878
54737 309301 297036 -2311 13663 -8861
54697 309259 296996 -2364 13690 -8829
54658 309223 296963 -2308 13692 -8805
54621 309200 296925 -2261 13652 -8785
54581 309180 296895 -2276 13627 -8779
54547 309165 296877 -2342 13616 -8778
54515 309122 296841 -2386 13624 -8803
54488 309099 296829 -2362 13660 -8822
54470 309072 296782 -2358 13670 -8810
54447 309008 296742 -2445 13674 -8789
54426 308979 296719 -2385 13669 -8786
54408 308985 296706 -2279 13647 -8803
54389 308978 296700 -2355 13673 -8804
54373 308987 296703 -2433 13688 -8801
54356 308974 296700 -2398 13656 -8787
54346 308982 296700 -2304 13623 -8777
54338 309008 296704 -2282 13640 -8795
54330 309006 296698 -2359 13678 -8804
54324 309004 296703 -2410 13675 -8813
54323 309042 296719 -2366 13686 -8820
54323 309046 296722 -2305 13721 -8806
54324 309075 296738 -2283 13705 -8796
54330 309093 296749 -2293 13674 -8800
54336 309084 296748 -2317 13687 -8797
54345 309097 296747 -2311 13684 -8801
54356 309094 296742 -2300 13655 -8810
54366 309099 296739 -2313 13653 -8817
54379 309130 296758 -2305 13636 -8818
54398 309158 296769 -2376 13644 -8842
54417 309140 296758 -2364 13670 -8849
54436 309182 296774 -2310 13660 -8840
54453 309224 296811 -2336 13661 -8779
54471 309205 296800 -2346 13679 -8746
54484 309190 296813 -2371 13699 -8797
54480 309158 296814 -2290 13702 -8840
54480 309175 296817 -2209 13697 -8852
54466 309155 296828 -2332 13715 -8852
54451 309170 296860 -2377 13692 -8856
54437 309153 296888 -2306 13652 -8863
54428 309146 296902 -2240 13643 -8845
54417 309153 296901 -2237 13631 -8820
54409 309138 296908 -2286 13624 -8809
54403 309090 296901 -2317 13628 -8832
54401 309130 296932 -2245 13674 -8833
54409 309142 296930 -2214 13691 -8820
54415 309136 296944 -2300 13686 -8796
54417 309094 296925 -2250 13681 -8793
54427 309093 296921 -2168 13663 -8828
54431 309081 296919 -2236 13676 -8853
54433 309083 296923 -2345 13660 -8866
54433 309037 296895 -2346 13632 -8839
54434 309016 296889 -2243 13625 -8831
54437 309018 296883 -2190 13622 -8835
54444 308998 296877 -2226 13614 -8821
54448 308977 296869 -2269 13624 -8844
54456 308988 296884 -2246 13665 -8873
54461 308970 296875 -2192 13677 -8877
54473 308993 296898 -2179 13662 -8871
54487 309027 296921 -2231 13639 -8868
54503 309034 296938 -2274 13614 -8862
54516 309058 296960 -2260 13598 -8861
54534 309083 296981 -2257 13589 -8858
54553 309089 296995 -2280 13608 -8847
54576 309092 297003 -2287 13621 -8843
54593 309107 297021 -2276 13604 -8849
54615 309116 297053 -2278 13601 -8852
54639 309105 297064 -2256 13632 -8851
54795 309091 297130 -2286 13662 -8890
54778 309061 297132 -2201 13648 -8867
54761 309064 297125 -2129 13632 -8825
54749 309042 297126 -2123 13630 -8809
54734 309037 297115 -2151 13657 -8811
54721 308997 297090 -2142 13674 -8806
54709 308985 297095 -2094 13679 -8789
54701 308997 297127 -2080 13682 -8751
54698 309050 297171 -2198 13689 -8751
54699 309110 297200 -2257 13699 -8789
54698 309097 297205 -2151 13674 -8817
54704 309103 297220 -2184 13689 -8840
54717 309113 297241 -2287 13692 -8866
54726 309079 297237 -2294 13669 -8889
54733 309055 297235 -2224 13640 -8897
54738 309016 297211 -2127 13594 -8910
54745 308984 297186 -2126 13589 -8939
54750 308976 297173 -2215 13572 -8969
54755 308935 297144 -2250 13548 -8976
54761 308906 297113 -2209 13551 -8983
54831 308720 296786 -2214 13556 -8974
54834 308698 296765 -2237 13550 -8963
54840 308680 296743 -2236 13540 -8956
54848 308654 296713 -2228 13545 -8942
54853 308661 296702 -2214 13540 -8945
54858 308662 296693 -2193 13524 -8950
54867 308633 296655 -2180 13525 -8953
54875 308631 296651 -2201 13535 -8971
54884 308645 296638 -2213 13538 -8980
54885 308591 296598 -2202 13559 -8974
54883 308535 296540 -2230 13588 -8965
54864 308472 296512 -2188 13602 -8958
54844 308470 296501 -2162 13581 -8967
54823 308483 296508 -2177 13548 -8965
54796 308481 296508 -2195 13583 -8958
54764 308452 296481 -2152 13610 -8965
54735 308423 296462 -2122 13573 -8958
54710 308399 296419 -2179 13555 -8915
54688 308391 296414 -2185 13538 -8902
54669 308368 296379 -2183 13526 -8959
54647 308300 296343 -2133 13521 -9009
54634 308341 296345 -2089 13537 -9022
54625 308321 296318 -2179 13578 -9022
54607 308267 296293 -2185 13571 -9000
54596 308281 296278 -2112 13541 -8962
54587 308253 296232 -2105 13544 -8944
54567 308203 296185 -2163 13533 -8970
54541 308113 296099 -2221 13518 -8988
54506 307971 295958 -2229 13524 -8982
54467 307901 295870 -2208 13558 -8958
54429 307840 295800 -2309 13574 -8930
54392 307764 295726 -2253 13595 -8940
54353 307702 295670 -2146 13583 -8947
54312 307629 295596 -2211 13593 -8955
54272 307601 295559 -2294 13570 -8954
54241 307588 295546 -2279 13546 -8933
54219 307573 295531 -2202 13588 -8924
54189 307519 295494 -2158 13575 -8916
54165 307524 295487 -2195 13555 -8900
54140 307530 295468 -2240 13619 -8891
54122 307570 295462 -2226 13651 -8891
54104 307592 295439 -2190 13644 -8885
54092 307604 295424 -2151 13636 -8864
54083 307676 295416 -2166 13647 -8837
54083 307746 295430 -2217 13657 -8835
54077 307761 295396 -2222 13686 -8845
54058 307749 295336 -2192 13680 -8832
54057 307832 295341 -2164 13623 -8815
54057 307845 295311 -2182 13611 -8808
54037 307779 295237 -2232 13644 -8799
54019 307742 295204 -2230 13721 -8807
53994 307681 295171 -2159 13744 -8808
53983 307850 295201 -2154 13670 -8770
53985 308018 295258 -2214 13706 -8742
54003 308326 295349 -2188 13825 -8766
54045 308841 295458 -2117 13773 -8760
54107 309916 295673 -2197 13740 -8713
54020 311231 295884 -2267 13837 -8666
52537 308368 290072 -2272 13750 -8649
41711 269815 243985 -2247 13654 -8685
64963 288727 289412 -2155 13816 -8721
86728 316233 333724 -2220 13997 -8714
87586 306249 327227 -2283 14077 -8719
87094 297233 320644 -2226 14168 -8708
86499 290443 315703 -2168 14352 -8667
85949 285662 311938 -2121 14555 -8653
85686 282925 309900 -2014 14559 -8607
85521 280595 308116 -1903 13954 -8475
85355 279055 306847 -2013 13235 -8345
85375 278713 306534 -2165 13192 -8287
85280 278405 306165 -1973 13148 -8411
85680 280244 307854 -1802 13529 -8419
86543 283766 311241 -1956 13861 -8390
87641 288414 315688 -2056 13891 -8400
88623 292384 319448 -1953 13719 -8459
89247 294859 321788 -1910 13759 -8555
89736 297483 324303 -1898 13883 -8655
90840 302798 329183 -1961 13825 -8709
91315 305498 331678 -2070 13715 -8837
92173 310062 335857 -1996 13728 -8892
92614 313980 339077 -1972 13682 -8918
92671 317333 341351 -1967 13702 -9012
92125 320444 342943 -1938 13667 -9247
90663 321631 342169 -1912 13481 -9289
87880 322104 339198 -2037 13454 -9110
82148 318877 329896 -2067 13448 -9070
72807 309860 312307 -1986 13463 -9051
63169 297305 291617 -2005 13440 -8998
54748 287442 275180 -2027 13315 -9060
47827 281557 265275 -2012 13328 -9041
44023 279372 261921 -1961 13433 -8981
43354 278959 262739 -1990 13590 -9013
44133 281700 265914 -2098 13535 -9029
45552 286590 271150 -2144 13324 -9061
48931 295428 280868 -2106 13433 -9181
50937 300337 287225 -2013 13628 -9319
52396 303862 293249 -1986 13542 -9301
53582 307111 297091 -2094 13434 -9226
54077 308288 298399 -2096 13530 -9226
54268 308398 298692 -2009 13662 -9231
54381 308514 298768 -2019 13587 -9227
54495 308632 298858 -2079 13413 -9170
54554 308597 298885 -2101 13436 -9084
54598 308528 298873 -2095 13562 -9016
54636 308530 298853 -2123 13585 -8961
54673 308534 298841 -2210 13613 -8951
54702 308538 298822 -2254 13645 -8971
54726 308559 298810 -2229 13688 -8980
54754 308570 298809 -2263 13739 -8926
54782 308585 298820 -2358 13770 -8861
54800 308627 298847 -2331 13772 -8833
54821 308666 298869 -2202 13756 -8787
54843 308666 298890 -2255 13778 -8728
54855 308705 298908 -2384 13757 -8687
54870 308748 298939 -2397 13738 -8659
54888 308743 298944 -2345 13748 -8635
54904 308741 298942 -2280 13784 -8617
54917 308751 298948 -2271 13820 -8601
54928 308742 298939 -2344 13807 -8620
54936 308757 298938 -2343 13862 -8596
54898 308558 298796 -2310 13866 -8561
54869 308527 298777 -2297 13870 -8522
54846 308521 298777 -2320 13864 -8521
54824 308516 298769 -2324 13861 -8566
54805 308503 298763 -2203 13857 -8587
54785 308457 298746 -2217 13884 -8584
54772 308473 298755 -2319 13910 -8602
54765 308489 298747 -2299 13829 -8625
54757 308483 298758 -2253 13845 -8597
54746 308433 298729 -2276 13860 -8560
54745 308470 298726 -2327 13846 -8558
54741 308461 298710 -2291 13847 -8587
54734 308456 298695 -2194 13894 -8564
54723 308415 298662 -2240 13891 -8548
54714 308368 298628 -2337 13871 -8546
54705 308337 298595 -2230 13873 -8531
54698 308282 298548 -2201 13867 -8566
54691 308256 298507 -2305 13856 -8622
54687 308212 298471 -2342 13828 -8635
54683 308154 298427 -2305 13817 -8603
54680 308099 298365 -2231 13830 -8598
54678 308038 298303 -2197 13829 -8604
54674 307964 298235 -2218 13819 -8614
54669 307871 298138 -2259 13837 -8629
54663 307805 298057 -2265 13832 -8640
54656 307731 297979 -2228 13809 -8653
54648 307664 297897 -2228 13796 -8673
54637 307606 297828 -2283 13765 -8719
54631 307558 297769 -2272 13738 -8737
54624 307507 297706 -2238 13733 -8737
54615 307417 297598 -2238 13733 -8753
54603 307369 297524 -2246 13739 -8767
54592 307315 297462 -2250 13690 -8794
54574 307186 297349 -2233 13641 -8816
54547 307090 297247 -2233 13647 -8833
54508 306981 297153 -2259 13684 -8848
54467 306938 297114 -2266 13710 -8879
54413 306823 297009 -2252 13669 -8932
54352 306713 296929 -2260 13630 -8923
54294 306671 296861 -2276 13631 -8843
53493 305898 295889 -2180 13496 -9043
53466 305867 295855 -2249 13494 -9046
53445 305845 295816 -2237 13508 -9033
53424 305833 295795 -2170 13522 -9021
53404 305801 295765 -2134 13509 -9022
53387 305810 295758 -2152 13510 -9028
53374 305806 295750 -2215 13488 -9043
53360 305821 295758 -2204 13483 -9051
53347 305802 295731 -2176 13463 -9055
53334 305829 295755 -2196 13464 -9058
53328 305816 295747 -2218 13474 -9060
53322 305842 295749 -2229 13467 -9074
53318 305912 295792 -2230 13454 -9090
53304 305858 295776 -2221 13447 -9087
53282 305778 295704 -2257 13472 -9081
53240 305690 295682 -2266 13500 -9091
53216 305781 295727 -2236 13478 -9091
53187 305816 295746 -2285 13440 -9059
53146 305828 295763 -2312 13444 -8993
53105 305833 295775 -2339 13473 -9001
53070 305858 295781 -2316 13505 -9076
53039 305892 295790 -2187 13497 -9106
53018 305920 295823 -2226 13504 -9074
52987 305925 295810 -2315 13505 -9028
52971 305968 295853 -2271 13433 -9004
52959 305987 295831 -2206 13415 -8991
52946 305940 295827 -2229 13463 -8999
52933 305961 295850 -2295 13474 -9018
52932 306023 295870 -2316 13450 -9051
52912 305993 295861 -2270 13481 -9073
52895 305955 295839 -2226 13494 -9037
52878 305911 295826 -2311 13498 -9003
52865 305925 295831 -2286 13530 -9006
52858 305967 295854 -2180 13503 -9009
52852 305997 295870 -2259 13497 -9015
52844 305999 295870 -2332 13510 -9027
52842 306032 295905 -2330 13480 -9041
52842 306061 295915 -2281 13473 -9042
52844 306074 295932 -2230 13474 -9033
52843 306059 295926 -2262 13491 -9030
52842 306034 295926 -2297 13512 -9024
52846 306033 295925 -2276 13518 -9026
52848 306051 295938 -2232 13524 -9030
52863 306123 295973 -2203 13515 -9025
52880 306165 296014 -2227 13506 -9016
52888 306146 296018 -2268 13485 -9004
52903 306200 296049 -2274 13501 -9012
52920 306297 296095 -2269 13515 -9015
52935 306307 296113 -2278 13507 -9007
52959 306389 296168 -2299 13488 -8999
52981 306444 296208 -2293 13503 -8995
52998 306416 296205 -2273 13522 -8991
53009 306388 296215 -2286 13557 -8982
53000 306332 296206 -2260 13558 -8992
53007 306449 296262 -2258 13503 -9002
52995 306444 296278 -2354 13523 -8947
52976 306436 296295 -2370 13529 -8970
52955 306413 296283 -2285 13545 -9009
52940 306428 296284 -2234 13543 -9024
52932 306458 296301 -2340 13549 -9017
52920 306463 296319 -2316 13535 -8990
52915 306418 296304 -2236 13506 -8957
52908 306406 296303 -2204 13496 -8948
52915 306455 296322 -2278 13493 -8967
52920 306452 296343 -2358 13502 -8993
52921 306438 296347 -2366 13499 -9014
52931 306466 296363 -2291 13532 -9011
52929 306423 296334 -2262 13559 -8994
52929 306450 296358 -2330 13559 -8972
52931 306458 296374 -2264 13531 -8965
52935 306456 296384 -2205 13501 -8967
52937 306465 296394 -2298 13542 -8976
52941 306474 296398 -2357 13559 -8995
52947 306497 296416 -2297 13506 -8983
52954 306483 296391 -2212 13476 -8974
52957 306443 296358 -2234 13497 -8968
52966 306452 296355 -2290 13505 -8981
52966 306353 296300 -2297 13509 -8994
52958 306233 296235 -2257 13573 -8973
52950 306143 296175 -2223 13620 -8968
52935 306009 296073 -2223 13619 -8972
52918 305923 296003 -2249 13590 -8953
52898 305814 295948 -2273 13552 -8934
52872 305701 295860 -2236 13542 -8941
52838 305574 295761 -2220 13552 -8955
52794 305426 295642 -2326 13602 -8969
52760 305408 295592 -2326 13570 -8943
52733 305476 295567 -2350 13573 -8926
52698 305524 295486 -2355 13579 -8908
52662 305723 295434 -2324 13611 -8903
52649 306046 295421 -2331 13687 -8896
52625 306293 295325 -2365 13764 -8870
52568 306635 295135 -2347 13854 -8854
52370 306881 294645 -2267 13898 -8806
51850 306477 293263 -2268 13974 -8671
49854 300142 284507 -2291 14169 -8714
40043 265133 242832 -2211 14352 -8736
59936 282895 281715 -2017 14310 -8681
85526 317263 335762 -1945 13896 -8523
87016 306301 328194 -1973 13481 -8371
85651 293616 317439 -1968 13439 -8322
84420 284235 309729 -1929 13466 -8378
83584 278709 305014 -1902 13411 -8473
82462 272818 299797 -2008 13509 -8501
81764 268533 296049 -2097 13613 -8410
81884 267938 295899 -1945 13626 -8370
82214 268620 296733 -1742 13815 -8495
82596 269591 297850 -1726 14007 -8606
83598 273098 301404 -1930 13900 -8630
84383 275989 304228 -2088 13886 -8681
85197 279258 307401 -2008 13943 -8714
85761 281458 309467 -1959 13739 -8844
86171 283337 311305 -1969 13531 -8997
86897 286369 314189 -1914 13542 -9017
87261 288025 315787 -1923 13589 -9044
87792 290116 317873 -1985 13622 -9000
88450 292988 320713 -1980 13603 -9003
89266 296806 324527 -2000 13601 -9074
90408 302692 330103 -2065 13589 -8971
91178 308339 335195 -2044 13480 -8854
91314 312734 338513 -1998 13372 -8842
90790 314864 339349 -2001 13297 -8918
89815 315350 338627 -1960 13361 -9031
88663 316663 338174 -1932 13468 -9118
86933 316837 336157 -1962 13506 -9228
84544 316618 333125 -1937 13532 -9164
81912 315248 328939 -1937 13471 -9056
78071 312405 322195 -1981 13323 -9131
72780 307554 312228 -2005 13330 -9231
66098 299712 298387 -2077 13489 -9244
58209 289345 281099 -2120 13561 -9176
50979 282281 268460 -2088 13479 -9083
45472 278425 261910 -2071 13349 -9063
42754 278811 262697 -2094 13310 -9141
44236 283286 269694 -2069 13332 -9229
48246 294218 282605 -2132 13375 -9212
50719 300289 290556 -2187 13422 -9151
51951 303331 295392 -2075 13408 -9152
52911 306086 298424 -2082 13460 -9239
53364 307271 299451 -2220 13551 -9321
53603 307669 299882 -2284 13468 -9280
53706 307768 299917 -2273 13413 -9230
53834 308038 300016 -2300 13525 -9235
53907 307988 299953 -2383 13564 -9121
53949 307891 299868 -2436 13554 -9075
53985 307882 299834 -2315 13531 -9059
54013 307852 299796 -2285 13511 -9070
54036 307798 299762 -2416 13552 -9033
54056 307753 299727 -2457 13564 -8958
54072 307684 299676 -2415 13536 -8906
50604 297284 288635 -2056 13291 -9370
50587 297329 288647 -2017 13269 -9383
50568 297324 288630 -1966 13255 -9369
50554 297365 288632 -2018 13280 -9361
50546 297437 288656 -2054 13274 -9347
50533 297447 288641 -2087 13220 -9333
50532 297542 288674 -2072 13194 -9350
50525 297535 288659 -2056 13179 -9380
50522 297447 288628 -2112 13146 -9399
50506 297387 288595 -2183 13145 -9432
50497 297350 288569 -2171 13156 -9389
50487 297320 288551 -2142 13177 -9361
50479 297346 288575 -2106 13213 -9380
50469 297278 288545 -2016 13247 -9376
50460 297255 288535 -2065 13270 -9377
50457 297260 288561 -2183 13273 -9377
50462 297309 288605 -2197 13248 -9381
50470 297379 288665 -2132 13225 -9391
50481 297422 288715 -2062 13252 -9403
50493 297428 288757 -2044 13259 -9401
50505 297411 288776 -2067 13252 -9418
50517 297410 288813 -2085 13267 -9424
50540 297524 288898 -2032 13268 -9391
50564 297585 288933 -1964 13280 -9340
50582 297591 288957 -1944 13294 -9318
50609 297647 289015 -1991 13333 -9328
50631 297669 289047 -1957 13309 -9337
50653 297693 289083 -1914 13274 -9318
50685 297764 289137 -1898 13267 -9313
50705 297703 289154 -1897 13288 -9322
50660 297625 289351 -1833 13262 -9392
50664 297637 289364 -1848 13238 -9374
50676 297641 289390 -1865 13227 -9391
50673 297509 289349 -1906 13284 -9393
50669 297453 289333 -1930 13273 -9396
50673 297453 289328 -1886 13269 -9396
50673 297474 289351 -1848 13281 -9431
50668 297439 289345 -1875 13296 -9450
50658 297347 289306 -1892 13262 -9447
50653 297314 289291 -1878 13259 -9441
50656 297348 289312 -1848 13281 -9453
50656 297349 289316 -1830 13280 -9468
50653 297329 289308 -1858 13253 -9468
50660 297360 289328 -1900 13275 -9474
50671 297404 289355 -1877 13311 -9476
50678 297362 289343 -1843 13266 -9463
50688 297366 289353 -1837 13220 -9472
50703 297447 289370 -1827 13225 -9477
50718 297421 289341 -1818 13207 -9487
50720 297185 289245 -1822 13168 -9536
50712 296907 289123 -1823 13149 -9553
50708 296795 289078 -1815 13127 -9529
50716 296780 289074 -1812 13134 -9539
50707 296606 288983 -1827 13174 -9547
50696 296528 288927 -1833 13184 -9534
50692 296486 288891 -1817 13194 -9580
50683 296380 288842 -1808 13192 -9627
50664 296282 288797 -1802 13161 -9634
50622 296105 288699 -1795 13133 -9629
50557 295819 288528 -1792 13110 -9645
50468 295500 288329 -1761 13111 -9668
50400 295460 288275 -1744 13130 -9691
50337 295365 288213 -1781 13199 -9757
50266 295181 288108 -1750 13131 -9709
50210 295094 288066 -1744 13094 -9670
50168 295086 288046 -1735 13077 -9670
50114 294897 287950 -1748 13065 -9692
50059 294782 287885 -1789 13090 -9709
50023 294770 287848 -1784 13097 -9738
50009 294895 287906 -1714 13103 -9713
49994 294858 287899 -1715 13125 -9687
49975 294848 287902 -1752 13121 -9686
49955 294882 287910 -1657 13226 -9645
49947 294997 287967 -1719 13206 -9673
49940 295031 288006 -1756 13174 -9694
49919 294983 287997 -1770 13151 -9678
49911 295009 288021 -1733 13109 -9648
49921 295125 288082 -1718 13089 -9643
49922 295171 288094 -1746 13152 -9683
49927 295225 288128 -1779 13199 -9703
49943 295331 288168 -1767 13152 -9692
49974 295555 288282 -1717 13170 -9660
50005 295708 288348 -1746 13160 -9655
50034 295809 288404 -1746 13122 -9656
50081 296034 288529 -1745 13104 -9652
50119 296155 288596 -1760 13141 -9663
50157 296253 288658 -1765 13148 -9669
50185 296255 288691 -1765 13121 -9664
50216 296287 288720 -1774 13101 -9668
50240 296270 288743 -1788 13093 -9676
50264 296255 288740 -1820 13185 -9659
50285 296211 288727 -1821 13189 -9684
50296 296086 288674 -1803 13161 -9681
50313 296081 288683 -1795 13144 -9620
50323 296041 288674 -1791 13125 -9592
50333 295939 288648 -1802 13120 -9624
50330 295827 288615 -1775 13115 -9665
50316 295737 288581 -1765 13114 -9689
50303 295717 288578 -1805 13147 -9715
50271 295628 288529 -1807 13168 -9704
50235 295535 288496 -1767 13151 -9654
50200 295502 288451 -1756 13147 -9614
50166 295386 288391 -1787 13121 -9596
50122 295209 288286 -1831 13090 -9608
50055 294835 288097 -1857 13105 -9665
49969 294371 287841 -1817 13137 -9710
49879 293946 287600 -1775 13128 -9687
49798 293578 287373 -1816 13102 -9702
49706 293250 287167 -1843 13085 -9722
49645 293037 287043 -1798 13080 -9685
49593 292947 286978 -1837 13122 -9665
49555 292849 286934 -1891 13126 -9678
49508 292746 286861 -1861 13069 -9675
49469 292650 286823 -1830 13059 -9656
49423 292489 286733 -1807 13087 -9677
49351 292158 286533 -1811 13105 -9715
49231 291576 286157 -1829 13129 -9754
49093 291072 285789 -1831 13120 -9772
49001 290785 285593 -1815 13082 -9751
48911 290433 285379 -1801 13099 -9726
48795 289921 285045 -1817 13141 -9712
48666 289378 284745 -1830 13125 -9721
48519 288818 284331 -1824 13078 -9749
48412 288525 284079 -1812 13050 -9743
48344 288374 283911 -1806 13039 -9720
48288 288273 283790 -1817 13020 -9715
48259 288279 283773 -1825 13008 -9715
48251 288363 283806 -1833 13038 -9716
48250 288457 283842 -1837 13056 -9733
48241 288485 283854 -1826 13042 -9748
48250 288618 283926 -1817 13141 -9712
48251 288678 283955 -1830 13125 -9721
48250 288681 283952 -1824 13078 -9749
48260 288758 283983 -1812 13050 -9743
48261 288766 283983 -1806 13039 -9720
48254 288709 283951 -1817 13020 -9715
48247 288691 283951 -1825 13008 -9715
48227 288654 283939 -1833 13038 -9716
48207 288647 283929 -1837 13056 -9733
48182 288660 283949 -1826 13042 -9748
48165 288724 283996 -1884 13114 -9708
48128 288612 283937 -1850 13093 -9712
48092 288534 283898 -1846 13056 -9699
48072 288575 283914 -1873 13068 -9649
48061 288630 283944 -1877 13052 -9655
48039 288568 283915 -1855 13064 -9717
48032 288612 283940 -1816 13072 -9750
47997 288398 283792 -1833 13078 -9765
47970 288262 283696 -1856 13094 -9731
47941 288189 283624 -1841 13092 -9669
47919 288115 283550 -1826 13087 -9649
47895 288056 283503 -1823 13069 -9677
47884 288055 283501 -1851 13065 -9707
47870 288029 283492 -1860 13062 -9706
47862 288014 283480 -1832 13069 -9696
47851 287988 283466 -1816 13094 -9639
47846 288009 283476 -1866 13121 -9640
47839 288003 283473 -1882 13122 -9694
47842 288039 283488 -1820 13092 -9679
47855 288115 283541 -1862 13101 -9656
47862 288104 283534 -1939 13124 -9641
47869 288144 283567 -1928 13107 -9650
47881 288180 283594 -1885 13086 -9667
47893 288209 283607 -1843 13078 -9681
47899 288177 283591 -1840 13076 -9697
47907 288180 283607 -1855 13070 -9706
47938 288316 283699 -1848 13061 -9695
47966 288373 283756 -1836 13066 -9693
47978 288339 283756 -1833 13065 -9689
48006 288447 283849 -1850 13075 -9679
48028 288484 283869 -1884 13116 -9666
48047 288471 283884 -1885 13132 -9667
48086 288617 283983 -1865 13117 -9662
48118 288663 284025 -1855 13087 -9648
48134 288619 284030 -1836 13064 -9675
48130 288504 283998 -1830 13048 -9699
48123 288421 283979 -1846 13041 -9700
48097 288270 283900 -1851 13050 -9708
48062 288078 283815 -1848 13048 -9715
48044 287989 283801 -1855 13098 -9713
47967 287584 283523 -1859 13104 -9657
47811 286870 282909 -1863 13071 -9605
47569 285929 281992 -1871 13073 -9597
47242 284832 280703 -1880 13071 -9668
46663 282981 278018 -1840 13089 -9728
45933 280919 274989 -1814 13070 -9746
44575 277410 269381 -1847 13028 -9752
43119 273258 262735 -1841 12978 -9745
41211 266556 254225 -1837 12985 -9759
37765 253779 238937 -1903 13143 -9815
38173 249958 233578 -1926 13078 -9820
70005 297301 307525 -1915 13023 -9805
84136 304603 327446 -1872 13070 -9746
83255 287343 312509 -1868 13126 -9705
82040 280167 305631 -1922 13141 -9691
80429 272603 298420 -1888 13284 -9756
80923 274300 300258 -1802 13688 -10020
81122 273936 300142 -1876 14062 -10148
81528 274607 301148 -1854 13501 -9523
82081 275677 302534 -1707 13123 -9344
84425 275896 303608 -1554 13169 -9536
84860 277695 305374 -1535 13062 -9343
85526 280447 308207 -1595 13194 -9486
86488 284610 312504 -1635 13427 -9741
87803 290915 318977 -1560 13423 -9705
88835 297391 325173 -1459 13273 -9518
88879 302927 329759 -1404 13142 -9488
88026 306031 331378 -1545 13113 -9534
86630 307342 330901 -1640 13251 -9482
84601 306891 328129 -1593 13321 -9470
81560 305790 323504 -1584 13329 -9488
76070 302897 314522 -1511 13171 -9454
69346 296899 302057 -1533 12928 -9437
63211 289851 289476 -1495 12809 -9450
57320 283228 277813 -1354 12797 -9497
53934 280349 271873 -1512 13072 -9613
49407 276420 263708 -1738 13417 -9720
44799 271584 255907 -1748 13464 -9847
41712 269418 252896 -1695 13330 -9828
41030 269205 253835 -1662 13159 -9729
41138 268821 255458 -1720 13012 -9798
41376 268950 256440 -1806 12976 -9922
41608 269734 257311 -1795 13103 -9962
42112 271937 259205 -1759 13328 -9877
43217 275716 263685 -1768 13267 -9813
44492 279429 268304 -1818 13054 -9755
45830 283387 273392 -1795 12992 -9703
46821 285925 277238 -1784 13035 -9763
47260 286668 279108 -1946 13192 -9731
47639 287475 280490 -1899 13115 -9708
48102 288818 282168 -1840 13059 -9692
48534 289991 283898 -1816 13056 -9698
48787 290581 284710 -1841 13064 -9714
49057 291413 285593 -1882 13055 -9697
49270 292080 286157 -1886 13074 -9656
49466 292653 286733 -1854 13129 -9631
49889 293917 288229 -1839 13123 -9622
50134 294331 288955 -1926 13147 -9589
50157 293941 288873 -1909 13151 -9602
50128 293474 288655 -1872 13153 -9591
50196 293661 288873 -1861 13151 -9572
50281 293833 289113 -1853 13130 -9587
50386 294074 289537 -1865 13117 -9564
50537 294354 290006 -1906 13153 -9526
50786 295052 290731 -1926 13250 -9544
50904 295408 291072 -1899 13314 -9566
51006 295857 291447 -1947 13175 -9507
51106 296338 291846 -1925 13184 -9524
51207 296818 292220 -1856 13201 -9554
51315 297300 292577 -1872 13247 -9562
51391 297500 292800 -1899 13280 -9554
51417 297421 292848 -1888 13245 -9542
51476 297654 293005 -1873 13184 -9498
51521 297743 293077 -1844 13154 -9455
51564 297820 293149 -1850 13182 -9437
51582 297773 293142 -1915 13232 -9425
51603 297733 293129 -1957 13272 -9422
51594 297546 293048 -1907 13278 -9383
51599 297500 293020 -1892 13266 -9399
51600 297421 292990 -1923 13264 -9420
51598 297328 292949 -1854 13265 -9382
51605 297348 292946 -1849 13317 -9370
51623 297396 292960 -1920 13340 -9383
51637 297441 292979 -1927 13286 -9392
51648 297425 292973 -1911 13260 -9379
51659 297385 292944 -1893 13283 -9368
51680 297437 292966 -1920 13298 -9369
51693 297379 292942 -1946 13286 -9389
51708 297397 292949 -1945 13266 -9415
51746 297560 293027 -1938 13257 -9417
51775 297593 293036 -1909 13256 -9404
51799 297593 293036 -1895 13235 -9406
51836 297704 293092 -1889 13230 -9407
51884 297890 293165 -1880 13237 -9405
51900 297793 293129 -1876 13223 -9416
51930 297841 293147 -1885 13221 -9422
51970 297972 293200 -1926 13260 -9426
51994 297951 293182 -1896 13242 -9435
52006 297827 293124 -1916 13257 -9454
52005 297753 293071 -1904 13239 -9493
52023 297854 293105 -1875 13217 -9493
52030 297830 293075 -1877 13223 -9450
52022 297749 293028 -1888 13212 -9445
52007 297647 292966 -1883 13220 -9482
51992 297506 292889 -1822 13230 -9509
51968 297350 292799 -1905 13296 -9517
51956 297258 292737 -1904 13264 -9535
51920 296960 292584 -1843 13209 -9536
51856 296483 292337 -1804 13194 -9548
51816 296248 292193 -1810 13185 -9563
51746 295758 291922 -1827 13157 -9561
51672 295277 291661 -1822 13141 -9571
51593 294855 291408 -1797 13168 -9589
51539 294610 291245 -1783 13169 -9545
51482 294374 291107 -1810 13186 -9528
51421 294153 290959 -1758 13181 -9551
51362 293925 290811 -1779 13196 -9583
51308 293738 290680 -1822 13187 -9581
51273 293642 290606 -1822 13163 -9578
51236 293539 290544 -1814 13142 -9583
51213 293515 290517 -1799 13135 -9607
51184 293419 290455 -1794 13137 -9616
51143 293244 290328 -1817 13142 -9623
51109 293136 290254 -1839 13168 -9630
51090 293064 290207 -1833 13199 -9598
51051 292892 290093 -1818 13202 -9600
51040 292880 290091 -1816 13175 -9631
51022 292819 290048 -1819 13126 -9635
50982 292590 289900 -1818 13105 -9642
50955 292472 289821 -1814 13107 -9651
50944 292470 289814 -1826 13097 -9637
50927 292379 289742 -1828 13090 -9637
50924 292391 289745 -1816 13094 -9660
50909 292308 289690 -1826 13086 -9674
50889 292180 289607 -1843 13073 -9655
50892 292260 289644 -1834 13094 -9656
50895 292258 289643 -1827 13143 -9665
50862 292073 289515 -1817 13155 -9653
50841 291988 289494 -1806 13117 -9665
50815 291921 289454 -1832 13087 -9636
50790 291892 289425 -1839 13065 -9611
50770 291936 289468 -1834 13071 -9670
50748 291916 289455 -1788 13092 -9714
50696 291750 289341 -1766 13114 -9732
50663 291702 289316 -1848 13156 -9728
50642 291708 289312 -1868 13137 -9689
50612 291650 289271 -1824 13092 -9667
50569 291481 289155 -1808 13074 -9665
50559 291522 289175 -1811 13052 -9678
50510 291291 289009 -1831 13037 -9695
50490 291262 288989 -1842 13037 -9711
50479 291293 289005 -1816 13073 -9679
50465 291249 288957 -1812 13085 -9659
50452 291259 288956 -1847 13084 -9676
50449 291292 288987 -1767 13111 -9611
50428 291212 288940 -1827 13096 -9643
50424 291258 288953 -1851 13097 -9676
50443 291412 289052 -1838 13082 -9669
50474 291633 289207 -1813 13059 -9678
50497 291745 289281 -1819 13053 -9711
50527 291930 289394 -1851 13061 -9726
50576 292179 289542 -1861 13067 -9706
50612 292355 289633 -1841 13076 -9682
50680 292753 289870 -1872 13133 -9669
50745 293029 290026 -1888 13113 -9689
50799 293189 290128 -1869 13070 -9682
50849 293360 290222 -1857 13047 -9662
50905 293557 290316 -1850 13064 -9662
50949 293632 290348 -1848 13075 -9680
50970 293531 290294 -1841 13056 -9701
51001 293588 290319 -1847 13049 -9692
51040 293669 290370 -1849 13057 -9690
51046 293511 290292 -1846 13083 -9706
51065 293514 290284 -1890 13117 -9705
51092 293570 290304 -1898 13134 -9709
51095 293400 290221 -1850 13104 -9711
51078 293182 290087 -1861 13069 -9687
51045 292934 289966 -1883 13076 -9644
51063 293025 289993 -1911 13091 -9642
51060 292990 289992 -1873 13106 -9680
51063 293026 290021 -1805 13104 -9689
51063 293061 290041 -1847 13113 -9691
51073 293102 290071 -1878 13127 -9671
51081 293152 290109 -1856 13141 -9622
51094 293200 290150 -1832 13134 -9589
51092 293130 290142 -1841 13093 -9587
51122 293325 290256 -1864 13073 -9598
51132 293244 290238 -1878 13077 -9629
51155 293325 290306 -1866 13125 -9639
51176 293370 290339 -1856 13146 -9623
51203 293423 290392 -1878 13150 -9617
51206 293369 290371 -1842 13149 -9590
51237 293509 290454 -1836 13136 -9577
51260 293531 290476 -1936 13188 -9577
51274 293557 290491 -1973 13191 -9580
51306 293681 290563 -1921 13144 -9580
51348 293882 290664 -1874 13115 -9571
51386 293982 290745 -1858 13097 -9590
51446 294234 290883 -1874 13089 -9599
51557 294817 291210 -1876 13088 -9594
51660 295256 291475 -1841 13109 -9606
51739 295479 291629 -1854 13114 -9634
51793 295531 291682 -1936 13104 -9638
51826 295486 291688 -1968 13188 -9567
51859 295448 291683 -1927 13181 -9563
51873 295325 291643 -1928 13134 -9571
51885 295207 291598 -1922 13123 -9572
51897 295112 291554 -1897 13120 -9585
51901 294984 291485 -1873 13119 -9617
51921 295023 291490 -1870 13133 -9630
51958 295132 291553 -1873 13131 -9634
51973 295054 291503 -1875 13119 -9631
51989 295014 291480 -1943 13169 -9600
52029 295164 291555 -1904 13150 -9614
52050 295148 291547 -1892 13120 -9610
52065 295040 291497 -1892 13121 -9540
52072 294967 291471 -1894 13116 -9522
52088 295058 291520 -1879 13115 -9570
52102 295125 291565 -1833 13114 -9591
52103 295132 291564 -1857 13155 -9611
52123 295258 291648 -1873 13177 -9608
52129 295276 291653 -1864 13166 -9578
52134 295346 291688 -1874 13169 -9567
52150 295409 291724 -1866 13155 -9564
52161 295428 291738 -1867 13138 -9559
52170 295430 291731 -1872 13139 -9596
52208 295635 291819 -1853 13151 -9654
52226 295601 291798 -1818 13168 -9634
52240 295577 291795 -1856 13161 -9636
52242 295481 291746 -1885 13149 -9646
52255 295461 291728 -1805 13135 -9613
52244 295304 291649 -1837 13132 -9620
52234 295175 291568 -1948 13160 -9642
52222 295055 291494 -1942 13150 -9644
52211 294922 291429 -1877 13112 -9626
52196 294806 291355 -1837 13094 -9627
52173 294646 291277 -1844 13085 -9629
52147 294442 291182 -1867 13073 -9641
52112 294244 291060 -1866 13071 -9650
52092 294123 290992 -1847 13079 -9668
52079 294025 290926 -1841 13105 -9664
52054 293856 290820 -1852 13131 -9635
52035 293740 290741 -1885 13166 -9623
52018 293621 290667 -1896 13171 -9628
51989 293403 290539 -1872 13121 -9632
51957 293216 290422 -1863 13084 -9625
51923 293000 290288 -1853 13091 -9639
51875 292726 290106 -1844 13102 -9663
51829 292492 289945 -1843 13103 -9688
51794 292344 289820 -1832 13107 -9693
51737 292063 289620 -1836 13108 -9673
51670 291746 289394 -1859 13119 -9667
51642 291624 289303 -1863 13172 -9607
51598 291428 289146 -1866 13143 -9591
51557 291207 288980 -1870 13158 -9545
51532 291112 288920 -1896 13155 -9542
51507 291019 288878 -1896 13111 -9559
51353 290146 288232 -1820 13156 -9623
50758 287618 286182 -1814 13498 -9851
49862 284745 283345 -1857 13853 -10015
47440 277249 272638 -1885 13898 -10036
39407 249612 236719 -1618 13698 -9680
70166 287880 300818 -1466 13474 -9290
85302 300076 324278 -1475 13106 -9018
84192 289051 314204 -1543 12681 -9131
83641 286950 311956 -1827 12473 -9079
84218 286943 312385 -1932 12905 -9018
85003 290188 315706 -1403 13444 -9018
86091 292747 318803 -1052 13692 -8983
87256 291977 319478 -1248 13741 -9360
87814 288825 317783 -1360 13389 -9760
88172 287054 316894 -1178 13267 -9468
88626 286434 316870 -1126 13299 -9097
89033 286281 317279 -1133 13298 -9051
89107 285132 316387 -1202 13204 -9185
89160 284829 316335 -1120 13163 -9227
89212 284828 316316 -1025 13319 -9315
89180 284839 316280 -1035 13581 -9283
89068 284626 315903 -1164 13675 -9278
88527 282932 313966 -1248 13619 -9300
88168 281854 312715 -1212 13473 -9368
87759 280815 311492 -1231 13287 -9414
87825 281691 312250 -1258 13300 -9352
87922 282739 313178 -1331 13339 -9305
88224 284747 315070 -1365 13213 -9366
88677 287989 318247 -1259 13073 -9365
89807 294733 324755 -1329 12991 -9304
90032 300489 329389 -1488 13105 -9509
89361 302610 330188 -1463 13382 -9729
88134 303084 329135 -1478 13455 -9750
85933 304335 327377 -1524 13306 -9640
82419 303946 322780 -1553 13197 -9706
78723 301708 316520 -1636 13189 -9868
73407 297139 306505 -1620 13171 -9831
68165 291791 296667 -1592 13242 -9849
63390 286026 286379 -1661 13337 -9848
59225 282820 279504 -1657 13290 -9806
56891 280818 274957 -1596 13173 -9876
54780 278796 270397 -1600 13070 -9888
51769 275336 264204 -1673 13050 -9810
48650 271264 258088 -1744 13111 -9704
46370 268731 253738 -1769 13125 -9660
44714 267795 251486 -1737 13101 -9682
43184 267148 251150 -1709 13112 -9633
42269 267165 252895 -1767 13139 -9612
42432 267462 255136 -1803 13154 -9649
42550 267959 256164 -1724 13131 -9669
42879 269093 257715 -1730 13103 -9694
44434 271585 263899 -1797 13045 -9692
46251 275853 269864 -1812 13018 -9658
46931 278856 272413 -1744 13111 -9704
47306 280678 273603 -1769 13125 -9660
47785 282969 275857 -1737 13101 -9682
48377 285475 278306 -1709 13112 -9633
48850 287039 280496 -1767 13139 -9612
49251 288377 282106 -1803 13154 -9649
49915 290628 284903 -1724 13131 -9669
50576 292717 287476 -1730 13103 -9694
51185 294016 289797 -1797 13045 -9692
51682 295189 291314 -1812 13018 -9658
51944 295812 292168 -1800 13130 -9619
52182 296507 292806 -1794 13122 -9662
52338 296734 293163 -1802 13074 -9668
52411 296740 293197 -1840 13128 -9675
52450 296679 293147 -1846 13187 -9662
52539 297017 293299 -1816 13161 -9646
52635 297329 293465 -1809 13170 -9641
52718 297545 293588 -1827 13172 -9645
52729 297330 293506 -1831 13138 -9658
52719 297125 293382 -1842 13147 -9650
52728 297103 293365 -1848 13157 -9636
52732 297103 293350 -1861 13177 -9640
52725 297130 293359 -1881 13197 -9633
52737 297343 293456 -1869 13164 -9624
52740 297473 293525 -1860 13140 -9586
52740 297570 293569 -1852 13133 -9510
52804 298059 293837 -1849 13132 -9493
52865 298474 294020 -1875 13178 -9521
52917 298922 294221 -1844 13194 -9530
52949 299065 294312 -1829 13206 -9518
