2025-10-09 01:35:03    绿光---红外光---红光---X轴---Y轴---Z轴
63882 401427 420246 -14062 7884 1613
63989 401453 420204 -13999 7866 1484
64082 401457 420181 -14019 7856 1353
64167 401457 420153 -14055 7845 1191
64206 401429 420127 -14072 7839 1028
64090 401265 420055 -14094 7809 933
63805 401003 419937 -14158 7747 915
63424 400735 419828 -14233 7665 972
63037 400509 419734 -14278 7579 1079
62707 400367 419683 -14295 7490 1218
62455 400278 419631 -14284 7333 1481
62280 400231 419607 -14375 7329 1572
62155 400185 419594 -14499 7360 1624
62079 400190 419587 -14598 7394 1687
62055 400231 419592 -14669 7423 1753
62091 400289 419625 -14703 7444 1783
62162 400358 419625 -14687 7470 1768
62221 400374 419622 -14655 7506 1715
62249 400383 419616 -14628 7538 1670
62233 400350 419601 -14516 7571 1640
62191 400314 419587 -14491 7596 1614
62147 400285 419563 -14453 7623 1596
62105 400253 419543 -14401 7663 1596
62087 400249 419556 -14382 7702 1616
62092 400265 419554 -14416 7738 1633
62109 400285 419565 -14467 7778 1632
62146 400317 419574 -14497 7805 1630
62200 400358 419597 -14506 7811 1631
62273 400418 419618 -14474 7810 1615
62356 400472 419645 -14421 7797 1589
62452 400536 419691 -14412 7782 1563
62553 400614 419707 -14413 7773 1536
62666 400680 419749 -14387 7767 1513
62777 400734 419782 -14378 7762 1498
62890 400805 419821 -14379 7748 1490
63003 400872 419844 -14371 7743 1490
63122 400947 419898 -14359 7750 1492
63248 401019 419927 -14359 7761 1495
63368 401082 419956 -14380 7770 1500
63480 401132 419979 -14384 7775 1495
63540 401140 420003 -14396 7795 1502
63434 401003 419947 -14417 7823 1503
63149 400761 419856 -14409 7832 1496
62752 400488 419761 -14408 7836 1481
62353 400283 419676 -14418 7833 1465
62001 400121 419623 -14419 7811 1463
61729 400045 419597 -14398 7781 1455
61532 399999 419576 -14397 7767 1434
61391 399950 419559 -14440 7773 1395
61302 399944 419553 -14469 7733 1306
61244 399930 419543 -14483 7731 1286
61243 399959 419548 -14465 7728 1244
61296 400010 419567 -14420 7720 1177
61357 400046 419577 -14373 7730 1093
61392 400062 419574 -14326 7729 1039
61387 400036 419565 -14309 7703 1047
61359 400005 419527 -14334 7678 1088
61327 399986 419518 -14346 7651 1146
61292 399967 419511 -14317 7579 1220
61277 399963 419511 -14373 7579 1268
61279 399950 419514 -14456 7592 1336
61301 399973 419500 -14533 7602 1399
61354 400013 419507 -14559 7608 1439
61419 400046 419538 -14552 7614 1462
61498 400106 419569 -14550 7622 1471
61584 400171 419595 -14555 7628 1458
61682 400230 419619 -14551 7630 1449
61782 400281 419629 -14442 7611 1458
61897 400334 419659 -14406 7587 1443
62019 400410 419703 -14406 7572 1449
62143 400474 419725 -14382 7583 1484
62266 400535 419753 -14355 7606 1540
62389 400587 419777 -14349 7619 1593
62511 400640 419790 -14367 7630 1640
62634 400701 419815 -14412 7651 1695
62753 400754 419845 -14455 7686 1741
62871 400811 419880 -14484 7695 1796
62994 400885 419909 -14477 7669 1871
63117 400945 419923 -14480 7650 1923
63226 400990 419948 -14512 7651 1938
63291 401001 419966 -14517 7643 1945
63197 400863 419915 -14516 7633 1940
62913 400607 419807 -14528 7631 1922
62503 400332 419696 -14517 7620 1911
62075 400083 419603 -14476 7606 1903
61705 399921 419541 -14453 7595 1885
61414 399814 419482 -14476 7584 1849
61204 399739 419444 -14484 7586 1824
61046 399699 419431 -14476 7590 1816
60937 399682 419423 -14475 7587 1804
60871 399680 419421 -14466 7577 1796
60842 399685 419425 -14465 7554 1786
60878 399750 419448 -14474 7537 1776
60929 399788 419468 -14473 7518 1762
60972 399814 419470 -14447 7496 1755
60979 399803 419460 -14445 7494 1757
60952 399772 419444 -14485 7492 1755
60914 399743 419449 -14468 7481 1767
60877 399717 419431 -14509 7506 1763
60851 399708 419417 -14521 7528 1751
60851 399721 419409 -14517 7537 1744
60875 399733 419426 -14518 7547 1748
60920 399766 419436 -14504 7550 1747
60977 399808 419453 -14493 7546 1741
61055 399847 419479 -14497 7544 1733
61149 399901 419493 -14500 7539 1725
61253 399963 419532 -14485 7518 1743
61368 400009 419537 -14465 7502 1768
61492 400102 419575 -14470 7516 1772
61623 400174 419620 -14489 7525 1758
61755 400228 419632 -14506 7524 1749
61888 400293 419665 -14513 7524 1751
62025 400375 419689 -14499 7526 1750
62153 400433 419720 -14483 7522 1755
62286 400497 419753 -14494 7516 1754
62409 400545 419772 -14505 7522 1741
62530 400597 419789 -14493 7521 1742
62649 400664 419822 -14472 7512 1759
62767 400719 419837 -14473 7510 1756
62890 400766 419851 -14484 7522 1745
63018 400826 419866 -14485 7522 1740
63144 400873 419882 -14495 7504 1747
63255 400916 419892 -14496 7493 1765
63277 400876 419858 -14498 7482 1773
63109 400673 419761 -14506 7467 1784
62783 400395 419679 -14486 7460 1809
62380 400128 419543 -14437 7451 1830
62008 399946 419454 -14404 7467 1842
61696 399801 419392 -14453 7518 1821
61473 399727 419360 -14544 7547 1779
61314 399691 419325 -14594 7546 1762
61219 399689 419314 -14602 7534 1757
61163 399680 419295 -14580 7510 1738
61142 399692 419276 -14552 7473 1713
61182 399748 419276 -14541 7429 1713
61253 399798 419259 -14533 7394 1719
61309 399809 419237 -14529 7380 1717
61339 399824 419243 -14494 7366 1709
61333 399798 419213 -14504 7379 1674
61297 399735 419143 -14529 7393 1675
61260 399713 419098 -14578 7391 1695
61227 399697 419077 -14607 7394 1712
61229 399698 419075 -14612 7413 1722
61250 399717 419077 -14611 7409 1741
61298 399763 419085 -14611 7392 1752
61363 399806 419104 -14615 7387 1757
61446 399858 419110 -14523 7390 1714
61545 399900 419135 -14511 7408 1672
61657 399978 419180 -14529 7407 1646
61777 400039 419220 -14559 7409 1642
61908 400097 419250 -14577 7416 1652
62039 400175 419281 -14569 7406 1654
62174 400260 419330 -14562 7392 1646
62310 400337 419376 -14566 7381 1642
62447 400396 419405 -14578 7363 1636
62581 400473 419425 -14493 7340 1633
62716 400524 419452 -14486 7344 1626
62847 400590 419484 -14495 7369 1622
62968 400651 419523 -14508 7390 1626
63091 400703 419558 -14536 7399 1648
63219 400749 419561 -14557 7414 1679
63342 400815 419585 -14568 7443 1716
63468 400867 419618 -14587 7467 1752
63565 400906 419651 -14607 7472 1791
63554 400833 419616 -14591 7478 1825
63348 400614 419525 -14525 7480 1856
62987 400337 419424 -14481 7504 1852
62575 400082 419331 -14502 7542 1814
62197 399905 419243 -14533 7560 1795
61890 399792 419178 -14538 7571 1792
61669 399738 419149 -14530 7586 1784
61518 399706 419123 -14518 7593 1760
61426 399671 419123 -14493 7581 1739
61377 399679 419115 -14477 7571 1718
61367 399714 419115 -14471 7572 1713
61411 399768 419152 -14441 7562 1739
61489 399830 419160 -14472 7559 1744
61549 399866 419162 -14456 7553 1752
61573 399862 419163 -14449 7556 1746
61556 399839 419147 -14486 7544 1746
61528 399808 419130 -14501 7538 1754
61492 399794 419150 -14482 7540 1761
61467 399783 419143 -14463 7549 1753
61460 399786 419125 -14468 7569 1747
61478 399798 419143 -14425 7570 1755
61515 399836 419141 -14438 7590 1751
61580 399877 419166 -14466 7603 1751
61655 399933 419183 -14488 7609 1765
61746 399991 419209 -14501 7592 1765
61844 400053 419214 -14496 7574 1750
61963 400099 419245 -14485 7573 1758
62086 400191 419270 -14477 7573 1767
62219 400252 419300 -14482 7564 1762
62349 400343 419345 -14442 7539 1750
62484 400407 419369 -14449 7531 1725
62619 400472 419393 -14464 7530 1711
62757 400537 419425 -14475 7523 1716
62887 400610 419453 -14494 7504 1728
63021 400672 419477 -14504 7498 1748
63146 400736 419505 -14501 7508 1751
63274 400805 419536 -14508 7514 1746
63396 400858 419580 -14520 7508 1755
63523 400931 419611 -14519 7498 1770
63646 400982 419621 -14504 7488 1795
63781 401048 419641 -14504 7485 1800
63912 401124 419677 -14512 7486 1786
64028 401171 419678 -14493 7482 1780
64043 401110 419647 -14478 7489 1774
63858 400879 419524 -14514 7519 1767
63504 400615 419421 -14560 7538 1764
63076 400344 419317 -14571 7534 1771
62661 400130 419214 -14568 7522 1767
62314 399995 419166 -14547 7513 1747
62045 399913 419127 -14500 7493 1752
61866 399885 419124 -14483 7477 1761
61745 399878 419130 -14500 7463 1734
61676 399897 419145 -14498 7448 1713
61631 399914 419159 -14492 7442 1697
61635 399960 419202 -14517 7446 1690
61697 400059 419278 -14530 7454 1708
61763 400129 419335 -14526 7471 1715
61801 400176 419377 -14552 7486 1707
61803 400161 419395 -14570 7489 1710
61766 400106 419400 -14471 7488 1740
61721 400100 419419 -14483 7505 1730
61679 400101 419416 -14495 7509 1719
61654 400081 419422 -14494 7500 1713
61650 400102 419428 -14488 7492 1713
61656 400075 419392 -14466 7495 1708
61662 399999 419284 -14471 7505 1731
61680 399923 419167 -14531 7521 1773
61715 399863 419052 -14579 7541 1762
61771 399845 418973 -14536 7543 1801
61847 399822 418918 -14559 7545 1791
61937 399871 418908 -14574 7567 1705
62034 399900 418899 -14535 7563 1663
62146 399990 418973 -14490 7533 1652
62287 400168 419136 -14455 7515 1635
62453 400370 419332 -14461 7526 1596
62626 400609 419551 -14486 7580 1529
62796 400735 419653 -14462 7610 1550
62966 400944 419855 -14468 7587 1602
63136 401171 420072 -14473 7556 1586
63308 401429 420356 -14473 7559 1517
63461 401603 420507 -14492 7585 1445
63589 401696 420582 -14468 7611 1408
63708 401791 420663 -14421 7619 1413
63827 401864 420727 -14420 7628 1443
63948 401966 420805 -14428 7641 1463
64071 402054 420846 -14410 7631 1485
64185 402079 420838 -14417 7620 1503
64266 402057 420785 -14441 7642 1498
64196 401900 420674 -14453 7690 1449
63922 401579 420488 -14464 7730 1421
63526 401266 420337 -14491 7754 1453
63100 400984 420198 -14479 7745 1512
62734 400818 420113 -14444 7720 1549
62423 400695 420049 -14469 7703 1542
62172 400582 419978 -14495 7685 1530
61965 400486 419918 -14458 7668 1542
61808 400435 419846 -14424 7633 1576
61694 400384 419796 -14434 7590 1616
61626 400379 419793 -14430 7562 1641
61609 400388 419774 -14447 7589 1632
61651 400436 419767 -14450 7614 1628
61695 400462 419759 -14462 7627 1619
61725 400461 419745 -14484 7633 1628
61723 400425 419704 -14479 7626 1658
61703 400382 419674 -14463 7615 1682
61660 400359 419657 -14459 7627 1694
61625 400315 419624 -14470 7636 1698
61604 400310 419617 -14443 7606 1701
61607 400310 419592 -14458 7612 1700
61630 400314 419582 -14483 7618 1716
61683 400354 419572 -14506 7619 1733
61756 400391 419579 -14511 7621 1735
61847 400445 419588 -14511 7622 1722
61949 400515 419604 -14521 7610 1705
62063 400578 419637 -14506 7590 1694
62186 400644 419653 -14477 7570 1703
62311 400729 419687 -14453 7562 1718
62442 400780 419703 -14427 7549 1725
62580 400848 419741 -14424 7544 1725
62715 400921 419762 -14453 7555 1720
62851 401003 419801 -14482 7550 1716
62990 401058 419812 -14482 7542 1711
63127 401123 419833 -14463 7533 1712
63259 401179 419854 -14454 7521 1721
63382 401237 419884 -14466 7518 1718
63462 401236 419863 -14501 7528 1703
63394 401101 419795 -14491 7528 1761
63142 400841 419678 -14499 7539 1760
62766 400577 419585 -14503 7546 1750
62366 400340 419473 -14503 7548 1746
62006 400186 419397 -14508 7543 1736
61719 400074 419349 -14506 7527 1718
61507 400011 419309 -14506 7521 1710
61365 399983 419291 -14521 7531 1709
61280 399972 419285 -14527 7538 1717
61239 399974 419275 -14515 7537 1719
61235 399995 419277 -14491 7528 1761
61289 400059 419295 -14499 7539 1760
61373 400131 419316 -14503 7546 1750
61446 400172 419327 -14503 7548 1746
61489 400175 419323 -14508 7543 1736
61503 400156 419321 -14506 7527 1718
61493 400124 419309 -14506 7521 1710
61482 400124 419288 -14521 7531 1709
61473 400114 419268 -14527 7538 1717
61484 400133 419277 -14515 7537 1719
61513 400159 419270 -14468 7525 1737
61571 400190 419286 -14492 7546 1704
61647 400239 419299 -14499 7555 1688
61738 400307 419328 -14488 7558 1689
61851 400376 419374 -14475 7560 1686
61973 400439 419385 -14476 7552 1686
62105 400515 419424 -14467 7543 1688
62244 400592 419451 -14466 7545 1679
62394 400692 419499 -14484 7556 1677
62549 400781 419543 -14468 7549 1718
62700 400836 419582 -14465 7538 1742
62844 400922 419604 -14510 7531 1722
62990 400978 419635 -14537 7522 1712
63139 401054 419654 -14558 7503 1708
63293 401121 419666 -14579 7473 1703
63440 401191 419701 -14555 7459 1705
63575 401249 419706 -14469 7462 1698
63660 401265 419718 -14390 7484 1680
63582 401124 419680 -14381 7510 1674
63304 400876 419587 -14418 7541 1737
62920 400598 419500 -14462 7576 1768
62512 400360 419397 -14502 7598 1802
62151 400205 419330 -14511 7614 1822
61862 400096 419258 -14509 7635 1824
61655 400029 419230 -14511 7650 1811
61509 399996 419190 -14508 7662 1776
61424 399992 419180 -14491 7674 1749
61386 399999 419172 -14460 7680 1725
61384 400010 419169 -14416 7684 1717
61434 400080 419188 -14369 7676 1719
61518 400147 419207 -14369 7666 1711
61583 400170 419227 -14415 7652 1713
61628 400181 419215 -14429 7628 1725
61634 400149 419194 -14421 7615 1726
61619 400120 419172 -14442 7614 1738
61604 400118 419151 -14462 7611 1773
61597 400100 419146 -14458 7615 1797
61608 400096 419143 -14450 7631 1786
61643 400130 419150 -14447 7638 1762
61703 400171 419161 -14423 7621 1762
61782 400231 419174 -14411 7626 1762
61873 400274 419179 -14424 7652 1750
61979 400316 419206 -14419 7656 1746
62092 400389 419226 -14416 7660 1737
62222 400450 419231 -14405 7671 1731
62358 400526 419254 -14391 7671 1730
62506 400628 419300 -14401 7670 1725
62651 400682 419311 -14409 7672 1730
62802 400763 419343 -14421 7661 1750
62953 400840 419376 -14392 7617 1805
63106 400922 419414 -14421 7620 1806
63255 401002 419438 -14458 7619 1795
63399 401086 419469 -14480 7617 1776
63536 401143 419521 -14470 7618 1759
63679 401211 419544 -14453 7612 1754
63812 401246 419528 -14449 7622 1755
63958 401334 419560 -14446 7634 1751
64099 401392 419587 -14444 7631 1756
64231 401448 419613 -14420 7621 1773
64287 401421 419599 -14406 7618 1754
64153 401230 419522 -14429 7640 1724
63830 400966 419423 -14457 7659 1768
63418 400666 419304 -14471 7648 1847
63014 400420 419203 -14486 7611 1881
62669 400233 419112 -14490 7577 1878
62403 400122 419054 -14452 7570 1853
62220 400070 419011 -14438 7584 1813
62098 400055 419001 -14457 7589 1787
62028 400046 418978 -14457 7586 1778
62000 400050 418991 -14444 7577 1788
62024 400092 418975 -14445 7567 1796
62097 400170 419015 -14440 7565 1781
62182 400227 419013 -14413 7571 1756
62242 400245 419034 -14421 7590 1735
62264 400248 419033 -14456 7595 1722
62249 400227 419019 -14478 7580 1716
62216 400193 419015 -14489 7559 1715
62179 400146 418939 -14493 7545 1738
62160 400098 418893 -14498 7540 1771
62160 400076 418884 -14496 7516 1812
62191 400081 418864 -14497 7499 1837
62239 400122 418888 -14519 7503 1815
62310 400211 418947 -14523 7499 1793
62405 400295 419022 -14500 7501 1770
62508 400385 419051 -14478 7503 1743
62622 400451 419101 -14469 7496 1722
62746 400535 419129 -14469 7501 1696
62874 400602 419166 -14477 7510 1670
63014 400675 419197 -14489 7516 1671
63153 400764 419218 -14451 7495 1691
63294 400831 419251 -14477 7504 1694
63439 400900 419292 -14496 7520 1712
63578 400970 419322 -14510 7527 1740
63714 401044 419357 -14518 7522 1733
63844 401100 419386 -14523 7537 1712
63976 401182 419406 -14518 7553 1714
64111 401249 419443 -14514 7552 1733
64245 401298 419472 -14528 7549 1747
64374 401361 419494 -14504 7518 1780
64452 401369 419503 -14493 7518 1792
64371 401256 419469 -14499 7511 1789
64102 401001 419391 -14518 7489 1778
63720 400707 419278 -14515 7471 1770
63334 400491 419184 -14490 7464 1767
62998 400333 419113 -14472 7478 1744
62735 400221 419072 -14501 7497 1710
62560 400186 419059 -14553 7519 1699
62446 400186 419045 -14539 7528 1752
62389 400192 419061 -14510 7517 1758
62376 400205 419060 -14497 7505 1760
62412 400273 419083 -14493 7477 1773
62499 400363 419119 -14491 7457 1774
62592 400412 419125 -14492 7443 1760
62662 400437 419149 -14503 7439 1746
62696 400448 419122 -14513 7435 1743
62690 400399 419106 -14522 7430 1736
62673 400384 419098 -14540 7438 1720
62653 400358 419077 -14529 7449 1713
62645 400354 419063 -14524 7466 1724
62654 400357 419055 -14546 7482 1734
62683 400367 419053 -14558 7479 1736
62733 400409 419065 -14568 7465 1732
62798 400431 419082 -14574 7448 1739
62878 400494 419100 -14565 7435 1751
62971 400538 419122 -14537 7423 1751
63082 400612 419148 -14521 7411 1761
63199 400666 419161 -14531 7419 1778
63326 400743 419178 -14520 7432 1815
63456 400813 419212 -14533 7442 1792
63593 400887 419240 -14531 7468 1762
63730 400967 419269 -14530 7499 1749
63873 401049 419319 -14536 7511 1745
64014 401114 419332 -14551 7507 1753
64150 401191 419358 -14552 7504 1767
64288 401248 419388 -14537 7493 1773
64418 401318 419424 -14531 7475 1782
64547 401392 419449 -14511 7435 1793
64682 401444 419471 -14524 7432 1782
64812 401522 419492 -14542 7443 1774
64939 401574 419545 -14556 7457 1756
65027 401596 419533 -14564 7457 1745
64962 401464 419466 -14543 7453 1739
64685 401211 419381 -14511 7455 1728
64277 400914 419263 -14497 7468 1705
63850 400628 419157 -14508 7486 1677
63469 400420 419067 -14520 7494 1683
63157 400267 418994 -14506 7503 1703
62931 400194 418955 -14499 7513 1709
62783 400153 418940 -14503 7516 1704
62688 400153 418918 -14499 7509 1704
62638 400171 418922 -14498 7499 1700
62634 400206 418925 -14505 7490 1701
62687 400282 418946 -14508 7485 1702
62767 400355 418972 -14505 7489 1691
62833 400377 418982 -14521 7480 1691
62866 400389 418981 -14538 7454 1717
62857 400370 418967 -14523 7435 1757
62831 400337 418953 -14534 7424 1758
62796 400322 418945 -14549 7429 1730
62770 400309 418940 -14535 7433 1713
62758 400312 418944 -14535 7429 1720
62767 400321 418935 -14537 7430 1729
62805 400362 418934 -14527 7427 1728
62860 400396 418951 -14530 7433 1733
62930 400449 418975 -14540 7433 1737
63019 400507 418992 -14540 7437 1748
63122 400568 419016 -14509 7447 1778
63234 400636 419048 -14502 7450 1788
63358 400726 419072 -14531 7461 1768
63487 400793 419108 -14552 7463 1755
63624 400858 419124 -14565 7469 1756
63765 400947 419160 -14562 7480 1757
63904 401012 419192 -14552 7475 1738
64047 401084 419207 -14544 7465 1712
64183 401162 419257 -14538 7471 1713
64319 401229 419282 -14538 7468 1717
64454 401304 419308 -14509 7443 1732
64586 401362 419348 -14491 7434 1741
64717 401434 419362 -14510 7443 1726
64854 401504 419386 -14525 7449 1728
64978 401561 419411 -14541 7457 1729
65097 401604 419431 -14557 7473 1717
65098 401545 419396 -14571 7484 1707
64887 401325 419313 -14571 7478 1702
64516 401029 419203 -14554 7462 1703
64081 400730 419089 -14539 7444 1705
63685 400504 419002 -14554 7434 1725
63346 400360 418948 -14582 7437 1743
63095 400258 418912 -14584 7439 1757
62917 400227 418878 -14573 7431 1753
62808 400221 418868 -14553 7414 1742
62750 400232 418897 -14535 7413 1716
62730 400241 418879 -14528 7412 1682
62767 400317 418906 -14522 7402 1662
62850 400405 418928 -14537 7410 1648
62925 400420 418938 -14559 7426 1647
62974 400452 418944 -14550 7422 1669
62975 400429 418932 -14542 7418 1676
62950 400393 418904 -14560 7421 1648
62904 400365 418886 -14570 7418 1636
62861 400331 418866 -14575 7413 1636
62825 400319 418834 -14583 7409 1636
62815 400307 418822 -14583 7410 1648
62825 400317 418819 -14578 7417 1655
62860 400351 418802 -14586 7417 1653
62912 400359 418786 -14584 7414 1653
62983 400387 418793 -14546 7406 1677
63061 400398 418756 -14538 7414 1702
63148 400424 418737 -14573 7427 1701
63242 400451 418702 -14590 7428 1702
63347 400490 418664 -14578 7425 1703
63459 400500 418643 -14574 7417 1712
63581 400535 418621 -14579 7409 1710
63702 400563 418601 -14573 7396 1716
63827 400612 418605 -14562 7389 1732
63950 400646 418615 -14559 7383 1725
64073 400710 418638 -14538 7364 1765
64194 400776 418649 -14541 7352 1768
64300 400767 418611 -14557 7344 1777
64385 400747 418545 -14572 7353 1789
64467 400735 418504 -14570 7375 1796
64519 400666 418381 -14576 7361 1814
64458 400495 418241 -14600 7366 1827
64227 400245 418119 -14611 7396 1824
63880 399985 418008 -14607 7414 1806
63490 399762 417953 -14617 7386 1849
63113 399575 417895 -14617 7371 1857
62783 399430 417838 -14597 7370 1841
62533 399417 417895 -14551 7379 1795
62359 399471 417997 -14517 7380 1756
62253 399539 418080 -14523 7346 1768
62204 399590 418159 -14539 7318 1781
62214 399722 418282 -14553 7324 1768
62293 399906 418455 -14569 7355 1748
62410 400119 418688 -14614 7381 1747
62500 400284 418852 -14586 7378 1779
62547 400387 418983 -14547 7388 1792
62549 400424 419039 -14528 7404 1740
62515 400403 419046 -14522 7409 1688
62478 400391 419045 -14512 7431 1681
62459 400431 419081 -14512 7453 1689
62464 400445 419103 -14532 7443 1733
62496 400478 419092 -14553 7429 1792
62542 400466 419058 -14563 7430 1827
62590 400451 418994 -14548 7446 1831
62636 400434 418955 -14539 7472 1791
62690 400460 418959 -14538 7509 1742
62754 400492 418985 -14529 7519 1744
62824 400527 419000 -14511 7504 1767
62909 400569 418983 -14470 7502 1760
63011 400618 418984 -14462 7515 1721
63125 400667 418989 -14499 7530 1695
63253 400722 418998 -14514 7533 1693
63384 400798 419016 -14504 7525 1721
63516 400868 419046 -14474 7502 1774
63646 400929 419044 -14457 7476 1792
63781 400994 419059 -14490 7462 1797
63903 401039 419087 -14523 7450 1829
63987 401048 419095 -14535 7435 1875
63919 400933 419044 -14527 7419 1920
63655 400685 418945 -14514 7426 1923
63253 400379 418824 -14537 7449 1896
62812 400107 418701 -14567 7459 1876
62402 399915 418618 -14570 7462 1876
62078 399779 418567 -14508 7438 1929
61833 399701 418506 -14503 7421 1918
61660 399649 418491 -14501 7416 1880
61538 399631 418470 -14500 7416 1871
61468 399634 418464 -14496 7414 1883
61442 399653 418466 -14508 7416 1897
61480 399708 418491 -14525 7408 1911
61543 399769 418499 -14526 7395 1943
61585 399793 418504 -14540 7396 1947
61601 399787 418504 -14527 7400 1951
61587 399768 418485 -14529 7396 1955
61541 399725 418483 -14543 7377 1937
61497 399702 418468 -14532 7370 1915
61462 399687 418453 -14513 7375 1908
61441 399662 418439 -14519 7377 1924
61446 399683 418436 -14542 7375 1942
61473 399716 418446 -14558 7385 1944
61520 399751 418464 -14569 7404 1946
61586 399791 418487 -14566 7418 1952
61667 399853 418505 -14528 7428 1959
61765 399919 418532 -14509 7431 1943
61872 399972 418568 -14527 7431 1907
61990 400038 418593 -14533 7438 1872
62110 400102 418604 -14528 7430 1852
62237 400170 418641 -14522 7415 1867
62365 400235 418664 -14517 7420 1878
62495 400300 418689 -14524 7437 1866
62625 400361 418725 -14522 7450 1851
62746 400415 418752 -14507 7443 1835
62825 400403 418734 -14472 7427 1842
62747 400278 418693 -14475 7427 1843
62482 400044 418594 -14519 7448 1822
62091 399784 418504 -14539 7463 1820
61676 399552 418400 -14544 7487 1826
61311 399395 418334 -14541 7511 1833
61007 399277 418278 -14530 7508 1845
60789 399192 418246 -14524 7489 1853
60634 399155 418219 -14526 7474 1845
60532 399148 418203 -14521 7475 1827
60469 399149 418194 -14500 7427 1860
60462 399193 418220 -14515 7440 1832
60518 399256 418242 -14490 7454 1819
60581 399295 418255 -14495 7453 1813
60625 399301 418271 -14534 7442 1818
60643 399290 418262 -14556 7434 1836
60628 399279 418247 -14551 7430 1849
60604 399262 418245 -14541 7441 1845
60578 399262 418257 -14543 7450 1826
60563 399263 418248 -14525 7448 1818
60568 399251 418233 -14501 7443 1817
60596 399269 418259 -14506 7448 1808
60645 399310 418271 -14519 7459 1797
60711 399368 418289 -14522 7470 1785
60790 399407 418305 -14522 7477 1779
60889 399460 418339 -14530 7481 1786
60993 399522 418367 -14539 7492 1797
61110 399595 418397 -14534 7495 1800
61237 399657 418418 -14526 7488 1792
61366 399724 418444 -14502 7477 1787
61498 399798 418478 -14471 7467 1791
61629 399868 418499 -14475 7474 1776
61763 399933 418537 -14494 7485 1767
61900 400007 418582 -14491 7498 1767
62037 400086 418601 -14492 7508 1765
62175 400146 418641 -14498 7514 1782
62298 400179 418614 -14501 7513 1796
62394 400204 418619 -14489 7506 1790
62360 400115 418606 -14488 7513 1770
62141 399917 418544 -14519 7520 1767
61758 399653 418435 -14527 7517 1796
61336 399417 418349 -14530 7521 1826
60948 399225 418272 -14535 7525 1827
60629 399113 418202 -14538 7517 1823
60390 399031 418160 -14534 7509 1815
60222 398982 418128 -14518 7501 1812
60115 398959 418121 -14497 7498 1812
60054 398977 418108 -14478 7487 1791
60039 398984 418122 -14492 7476 1770
60088 399053 418148 -14508 7475 1765
60165 399103 418161 -14479 7483 1764
60231 399137 418151 -14524 7495 1733
60263 399125 418174 -14540 7507 1735
60260 399114 418160 -14534 7514 1741
60238 399085 418149 -14525 7518 1735
60217 399069 418139 -14515 7512 1727
60208 399065 418128 -14509 7496 1736
60215 399070 418135 -14520 7485 1751
60241 399077 418125 -14528 7484 1754
60287 399107 418136 -14508 7488 1762
60353 399156 418160 -14513 7489 1761
60431 399195 418177 -14537 7480 1751
60530 399247 418184 -14535 7468 1745
60645 399295 418213 -14530 7463 1737
60767 399361 418242 -14523 7460 1747
60895 399427 418274 -14524 7451 1771
61031 399510 418299 -14530 7444 1795
61167 399574 418333 -14533 7443 1810
61303 399647 418368 -14537 7449 1814
61430 399693 418404 -14499 7435 1817
61557 399776 418424 -14508 7441 1806
61682 399842 418464 -14534 7460 1784
61810 399895 418486 -14541 7462 1777
61941 399966 418514 -14531 7462 1770
62066 400011 418530 -14506 7463 1765
62178 400063 418561 -14509 7474 1761
62195 400012 418522 -14541 7496 1752
62032 399817 418451 -14560 7503 1748
61708 399583 418381 -14554 7504 1742
61316 399352 418305 -14517 7512 1756
60948 399182 418250 -14494 7517 1768
60658 399088 418212 -14503 7496 1765
60450 399022 418190 -14513 7450 1783
60312 399001 418181 -14518 7406 1805
60232 398997 418150 -14521 7378 1816
60199 399024 418176 -14546 7356 1825
60213 399049 418198 -14563 7338 1845
60284 399115 418234 -14560 7331 1858
60386 399189 418246 -14571 7328 1865
60464 399205 418241 -14555 7329 1878
60500 399204 418237 -14549 7333 1868
60495 399166 418193 -14566 7348 1849
60474 399145 418181 -14568 7359 1840
60455 399110 418155 -14562 7362 1824
60444 399085 418142 -14563 7353 1826
60456 399095 418131 -14571 7349 1838
60488 399105 418135 -14578 7362 1859
60537 399133 418135 -14590 7367 1888
60605 399172 418150 -14606 7365 1897
60689 399220 418172 -14547 7359 1900
60788 399279 418181 -14553 7361 1877
60905 399333 418196 -14575 7359 1856
61025 399393 418237 -14584 7356 1841
61155 399468 418275 -14575 7364 1821
61291 399559 418295 -14567 7372 1801
61429 399634 418340 -14569 7371 1803
61566 399706 418364 -14575 7371 1806
61703 399774 418401 -14581 7374 1806
61841 399848 418430 -14550 7369 1851
61977 399922 418469 -14557 7383 1861
62112 399997 418492 -14567 7384 1869
62244 400056 418524 -14555 7373 1871
62374 400129 418557 -14542 7389 1852
62498 400198 418588 -14565 7416 1826
62573 400187 418582 -14578 7435 1806
62499 400057 418515 -14572 7449 1809
62235 399807 418427 -14564 7468 1810
61857 399538 418318 -14505 7474 1809
61453 399300 418193 -14450 7457 1795
61104 399137 418118 -14480 7433 1765
60827 399022 418071 -14516 7404 1765
60632 398976 418020 -14523 7385 1803
60516 398960 418004 -14540 7369 1860
60452 398965 417998 -14560 7338 1903
60428 398988 417997 -14563 7333 1915
60459 399027 418021 -14572 7358 1892
60537 399118 418042 -14588 7361 1864
60623 399149 418048 -14583 7364 1867
60683 399162 418060 -14553 7382 1908
60700 399167 418046 -14542 7394 1925
60680 399131 418027 -14549 7396 1900
60655 399100 418049 -14555 7405 1869
60629 399090 418023 -14549 7421 1853
60626 399109 418034 -14545 7424 1855
60638 399118 418041 -14557 7419 1853
60676 399155 418058 -14564 7414 1855
60740 399202 418086 -14564 7415 1865
60820 399266 418107 -14535 7398 1891
60914 399333 418135 -14516 7385 1892
61019 399389 418176 -14526 7400 1865
61137 399449 418206 -14530 7413 1854
61265 399530 418242 -14533 7427 1846
61398 399612 418286 -14533 7430 1826
61535 399685 418307 -14541 7415 1806
61671 399753 418332 -14549 7409 1807
61817 399828 418376 -14547 7414 1812
61958 399900 418390 -14542 7412 1812
62097 399973 418419 -14535 7398 1891
62238 400055 418447 -14516 7385 1892
62368 400120 418465 -14526 7400 1865
62496 400168 418491 -14530 7413 1854
62623 400241 418530 -14533 7427 1846
62750 400312 418565 -14533 7430 1826
62885 400373 418586 -14541 7415 1806
63015 400436 418614 -14549 7409 1807
63146 400508 418657 -14547 7414 1812
63232 400516 418650 -14542 7412 1812
63151 400370 418596 -14522 7395 1853
62878 400118 418490 -14547 7391 1856
62472 399839 418393 -14551 7390 1846
62040 399609 418290 -14554 7410 1834
61664 399444 418234 -14560 7419 1842
61360 399343 418176 -14552 7403 1852
61145 399283 418157 -14533 7395 1855
61000 399272 418142 -14525 7411 1847
60921 399274 418159 -14550 7429 1833
60873 399276 418157 -14559 7434 1841
60870 399320 418176 -14555 7439 1852
60925 399402 418223 -14562 7438 1844
60994 399452 418253 -14554 7427 1829
61038 399472 418274 -14541 7412 1801
61047 399471 418262 -14521 7394 1782
61025 399441 418255 -14500 7382 1779
60984 399392 418230 -14514 7382 1782
60945 399373 418230 -14542 7395 1797
60920 399370 418243 -14553 7405 1821
60918 399384 418244 -14534 7404 1846
60939 399404 418227 -14516 7413 1854
60957 399329 418124 -14537 7425 1821
60988 399264 418003 -14542 7432 1785
61033 399204 417894 -14525 7436 1783
61088 399150 417763 -14511 7448 1794
61163 399145 417727 -14498 7463 1803
61254 399177 417722 -14490 7462 1796
61354 399206 417698 -14497 7452 1802
61477 399307 417770 -14509 7445 1831
61627 399447 417900 -14515 7423 1852
61773 399559 417954 -14539 7403 1900
61921 399659 418026 -14573 7423 1919
62061 399744 418098 -14585 7469 1895
62201 399852 418164 -14569 7466 1896
62343 399934 418219 -14547 7442 1872
62474 399996 418246 -14509 7440 1830
62600 400044 418248 -14501 7397 1841
62721 400095 418302 -14520 7349 1877
62852 400213 418374 -14517 7357 1864
62979 400277 418406 -14522 7389 1824
61095 399050 417855 -14541 7412 1755
60955 399047 417860 -14584 7429 1756
60865 399091 417879 -14598 7429 1767
60811 399092 417899 -14591 7425 1796
60812 399147 417919 -14586 7420 1821
60853 399197 417936 -14590 7400 1829
60904 399215 417928 -14583 7379 1816
60927 399233 417933 -14557 7362 1794
60920 399220 417932 -14514 7346 1805
60896 399190 417916 -14502 7334 1830
60863 399182 417905 -14539 7337 1823
60832 399162 417910 -14566 7365 1801
60817 399147 417900 -14572 7387 1810
60823 399167 417892 -14589 7386 1823
60848 399199 417903 -14602 7386 1822
60913 399241 417937 -14608 7394 1829
60990 399298 417944 -14592 7413 1827
61078 399341 417972 -14552 7430 1827
61186 399401 417984 -14520 7430 1833
61310 399479 418012 -14483 7409 1845
61433 399559 418043 -14483 7402 1840
61563 399621 418074 -14506 7416 1837
61697 399675 418097 -14524 7428 1841
61832 399763 418131 -14553 7440 1825
61965 399831 418159 -14555 7446 1811
62104 399893 418185 -14553 7440 1819
62240 399973 418211 -14555 7419 1827
62381 400035 418233 -14553 7402 1831
62517 400090 418256 -14548 7392 1838
62641 400141 418285 -14492 7398 1845
62727 400189 418285 -14511 7394 1836
62665 400035 418234 -14523 7391 1831
62419 399808 418145 -14521 7404 1826
62039 399527 418036 -14534 7424 1832
61626 399305 417931 -14551 7442 1851
61244 399133 417838 -14547 7442 1868
60939 399021 417802 -14544 7439 1875
60716 398947 417761 -14537 7449 1862
60565 398924 417742 -14530 7446 1895
60473 398932 417754 -14541 7433 1896
60431 398948 417741 -14537 7429 1891
60425 398980 417747 -14537 7431 1879
60491 399042 417798 -14547 7428 1865
60574 399113 417820 -14539 7421 1858
60643 399147 417823 -14513 7425 1863
60683 399162 417836 -14500 7426 1851
60690 399127 417810 -14521 7422 1833
60669 399096 417807 -14516 7420 1879
60642 399099 417792 -14512 7427 1869
60627 399082 417783 -14529 7437 1845
60637 399086 417791 -14537 7447 1838
60671 399104 417797 -14522 7459 1826
60725 399135 417799 -14512 7470 1815
60801 399196 417835 -14510 7469 1804
60895 399253 417854 -14504 7466 1799
61004 399324 417885 -14507 7462 1809
61125 399395 417898 -14516 7451 1839
61259 399474 417945 -14504 7442 1874
61396 399541 417976 -14507 7449 1875
61539 399631 418006 -14537 7460 1871
61689 399708 418046 -14541 7458 1885
61841 399773 418094 -14536 7451 1887
61991 399868 418121 -14534 7457 1880
62133 399938 418147 -14528 7463 1871
62279 400001 418174 -14519 7457 1860
62428 400077 418202 -14508 7453 1858
62575 400156 418253 -14508 7444 1860
62726 400208 418270 -14486 7425 1876
62851 400255 418292 -14477 7422 1883
62886 400203 418273 -14502 7431 1878
62730 400014 418198 -14527 7432 1884
62396 399738 418082 -14546 7434 1878
61976 399466 417972 -14545 7441 1871
61569 399252 417869 -14533 7437 1880
61217 399094 417806 -14522 7429 1883
60951 399014 417739 -14542 7445 1866
60767 398956 417716 -14574 7451 1851
60647 398922 417706 -14519 7430 1888
60577 398917 417680 -14522 7444 1868
60549 398951 417686 -14531 7447 1857
60574 398991 417702 -14528 7433 1846
60655 399053 417710 -14512 7427 1833
60722 399037 417628 -14495 7437 1829
60768 399043 417606 -14497 7449 1823
60790 399053 417642 -14524 7455 1810
60784 399058 417678 -14536 7456 1822
60764 399071 417689 -14493 7464 1844
60745 399048 417695 -14475 7468 1840
60738 399051 417696 -14506 7461 1829
60758 399078 417708 -14523 7457 1829
60798 399091 417703 -14532 7461 1837
60861 399130 417725 -14538 7467 1842
60936 399184 417747 -14526 7465 1836
61032 399244 417744 -14525 7447 1821
61136 399299 417765 -14536 7433 1813
61260 399359 417802 -14533 7431 1809
61391 399448 417846 -14518 7433 1809
61525 399503 417868 -14515 7419 1823
61662 399563 417899 -14531 7409 1827
61809 399646 417928 -14542 7408 1828
61954 399742 417960 -14541 7399 1831
62104 399795 417982 -14546 7382 1836
62250 399880 418017 -14560 7370 1833
62391 399934 418040 -14566 7372 1823
62527 399996 418067 -14566 7373 1823
62666 400071 418089 -14564 7374 1822
62810 400123 418111 -14551 7375 1824
62948 400188 418151 -14514 7373 1833
63091 400263 418171 -14500 7385 1820
63208 400300 418195 -14525 7403 1805
63213 400224 418161 -14548 7414 1813
63024 400010 418063 -14565 7422 1810
62681 399735 417963 -14564 7415 1813
62281 399478 417835 -14548 7396 1821
61916 399293 417760 -14511 7382 1821
61621 399158 417701 -14494 7391 1813
61410 399076 417659 -14538 7418 1796
61281 399071 417636 -14568 7435 1821
61211 399077 417633 -14571 7442 1851
61188 399086 417632 -14574 7455 1845
61214 399133 417654 -14549 7467 1834
61301 399221 417689 -14514 7475 1818
61400 399286 417717 -14503 7471 1812
61475 399319 417725 -14502 7468 1810
61512 399316 417712 -14502 7484 1811
61509 399291 417710 -14513 7496 1804
61487 399292 417717 -14518 7487 1806
61459 399267 417700 -14496 7463 1849
61439 399256 417702 -14507 7470 1838
61447 399259 417700 -14510 7473 1813
61471 399287 417713 -14518 7465 1808
61518 399316 417719 -14518 7470 1805
61585 399367 417741 -14508 7483 1791
61662 399415 417770 -14516 7479 1797
61761 399469 417792 -14526 7466 1804
61865 399550 417820 -14520 7463 1795
61984 399611 417849 -14498 7470 1805
62103 399671 417876 -14476 7474 1836
62235 399751 417907 -14493 7480 1841
62371 399835 417931 -14520 7480 1826
62510 399906 417966 -14526 7466 1832
62648 399975 418008 -14527 7458 1848
62786 400043 418039 -14525 7457 1854
62916 400119 418058 -14528 7456 1851
63054 400184 418102 -14526 7450 1852
63191 400242 418130 -14525 7448 1844
63333 400316 418141 -14522 7447 1839
63465 400369 418171 -14503 7435 1853
63573 400398 418177 -14502 7432 1847
63546 400304 418134 -14516 7442 1813
63334 400082 418030 -14525 7455 1796
62992 399817 417929 -14532 7452 1797
62610 399585 417835 -14524 7433 1804
62269 399400 417749 -14523 7429 1809
62004 399277 417698 -14550 7446 1797
61825 399236 417665 -14578 7460 1796
61722 399234 417661 -14582 7455 1811
61674 399262 417651 -14502 7435 1880
61668 399270 417659 -14512 7434 1856
61721 399341 417685 -14522 7423 1839
61828 399450 417730 -14531 7415 1829
61938 399499 417745 -14530 7430 1819
62013 399538 417748 -14530 7452 1817
62047 399530 417743 -14536 7451 1832
62051 399508 417729 -14530 7440 1848
62035 399491 417709 -14530 7446 1845
62009 399468 417706 -14531 7438 1857
61999 399470 417707 -14540 7439 1853
62011 399474 417718 -14546 7431 1853
62043 399501 417735 -14552 7432 1841
62095 399553 417751 -14538 7440 1831
62169 399582 417761 -14522 7441 1822
62260 399646 417779 -14525 7441 1815
62356 399714 417811 -14532 7436 1813
62463 399771 417841 -14544 7420 1811
62582 399855 417878 -14513 7420 1839
62713 399919 417902 -14519 7417 1845
62847 400001 417936 -14531 7428 1830
62987 400090 417970 -14525 7428 1811
63130 400146 418004 -14527 7423 1804
63260 399849 417849 -14501 7428 1847
62846 399607 417741 -14528 7455 1812
62496 399447 417672 -14553 7475 1804
62230 399339 417622 -14553 7472 1820
62051 399300 417587 -14553 7458 1825
61939 399295 417587 -14520 7435 1841
61887 399314 417602 -14493 7421 1842
61871 399340 417599 -14498 7426 1828
61916 399428 417634 -14509 7434 1831
62005 399507 417675 -14522 7439 1838
62089 399558 417707 -14531 7449 1837
62145 399563 417702 -14544 7459 1843
62164 399567 417705 -14546 7460 1859
62146 399532 417672 -14557 7460 1852
62114 399514 417683 -14578 7456 1823
62081 399498 417680 -14505 7431 1850
62055 399471 417685 -14501 7435 1835
62050 399505 417680 -14502 7436 1811
62073 399520 417681 -14510 7434 1808
62118 399567 417715 -14512 7430 1811
62182 399610 417730 -14514 7436 1805
62260 399657 417743 -14528 7440 1808
62352 399716 417759 -14542 7441 1818
62457 399758 417778 -14542 7439 1813
62570 399822 417786 -14495 7439 1834
62688 399879 417808 -14507 7443 1828
62821 399947 417827 -14523 7444 1824
62955 400041 417851 -14522 7443 1825
63088 400076 417860 -14526 7439 1828
63201 400083 417811 -14536 7429 1838
63287 400050 417714 -14529 7410 1856
63372 400004 417615 -14538 7377 1878
63460 400006 417583 -14558 7401 1871
63555 400050 417582 -14562 7456 1861
63646 400065 417566 -14561 7459 1895
63731 400088 417577 -14569 7422 1933
63727 400041 417558 -14563 7389 1913
63553 399883 417518 -14507 7389 1863
63224 399660 417455 -14479 7407 1828
62821 399407 417382 -14514 7425 1808
62418 399214 417313 -14539 7431 1813
62070 399063 417250 -14547 7429 1841
61785 398958 417194 -14562 7414 1874
61566 398892 417177 -14577 7400 1875
61415 398909 417215 -14548 7393 1880
61312 398922 417237 -14528 7370 1910
61249 398942 417251 -14543 7339 1936
61244 398969 417263 -14545 7329 1931
61292 399025 417282 -14547 7348 1886
61342 399066 417300 -14543 7368 1847
61369 399074 417309 -14524 7379 1830
61372 399057 417271 -14534 7394 1823
61349 399022 417247 -14557 7393 1816
61318 398971 417212 -14564 7387 1828
61290 398965 417193 -14530 7398 1889
61282 398970 417209 -14554 7403 1895
61308 399027 417271 -14565 7390 1912
61348 399102 417325 -14560 7370 1930
61398 399129 417344 -14548 7358 1937
61444 399155 417370 -14531 7355 1932
61497 399197 417379 -14537 7366 1923
61564 399233 417385 -14551 7379 1909
61656 399297 417428 -14553 7381 1899
61757 399339 417412 -14518 7375 1951
61877 399402 417422 -14526 7388 1960
62012 399485 417460 -14534 7404 1952
62155 399591 417532 -14547 7405 1929
62298 399668 417569 -14557 7398 1929
62434 399762 417625 -14546 7386 1952
62583 399846 417679 -14534 7393 1968
62726 399926 417702 -14551 7410 1971
62868 399988 417729 -14559 7410 1960
62973 400030 417754 -14529 7400 1959
62957 399941 417713 -14487 7388 1979
62732 399707 417604 -14496 7397 1978
62346 399406 417498 -14538 7417 1956
61889 399128 417380 -14558 7425 1953
61456 398920 417283 -14561 7430 1967
61095 398781 417215 -14560 7434 1981
60813 398683 417170 -14563 7427 1983
60609 398614 417143 -14548 7418 1965
60471 398598 417128 -14529 7410 1955
60377 398578 417110 -14508 7400 1955
60323 398569 417096 -14458 7389 1971
60326 398635 417106 -14460 7395 1974
60377 398676 417125 -14499 7409 1956
60437 398707 417138 -14503 7411 1935
60471 398730 417137 -14517 7418 1903
60476 398722 417140 -14541 7430 1884
60459 398688 417133 -14549 7433 1886
60434 398686 417134 -14546 7450 1890
60411 398691 417138 -14552 7466 1891
60405 398668 417141 -14564 7465 1889
60421 398701 417145 -14505 7458 1886
60457 398726 417155 -14498 7453 1892
60518 398772 417187 -14500 7430 1935
60593 398819 417221 -14521 7413 1981
60681 398879 417256 -14556 7401 2010
60789 398953 417298 -14580 7396 2019
60910 399019 417327 -14583 7390 2000
61044 399100 417364 -14576 7386 1968
61182 399178 417398 -14568 7382 1932
61317 399233 417429 -14473 7371 1905
61454 399330 417481 -14497 7368 1891
61596 399404 417503 -14512 7374 1862
61740 399484 417533 -14516 7379 1854
61880 399535 417558 -14526 7385 1873
62005 399603 417597 -14526 7386 1895
62066 399586 417587 -14529 7387 1897
61952 399428 417510 -14549 7407 1879
61650 399165 417404 -14564 7428 1875
61239 398895 417296 -14521 7436 1932
60825 398664 417205 -14507 7443 1926
60457 398495 417129 -14508 7453 1905
60175 398397 417074 -14509 7447 1899
59966 398322 417029 -14514 7436 1906
59824 398296 417020 -14518 7439 1908
59731 398288 417020 -14523 7445 1911
59680 398278 417013 -14526 7439 1908
59678 398332 417033 -14519 7430 1903
59742 398388 417056 -14508 7436 1901
59818 398427 417079 -14497 7442 1909
59877 398452 417092 -14508 7440 1913
59901 398456 417080 -14519 7441 1899
59898 398439 417088 -14518 7446 1883
59885 398427 417071 -14514 7445 1870
59870 398408 417077 -14511 7430 1879
59864 398406 417079 -14518 7418 1903
59878 398431 417083 -14515 7416 1908
59912 398461 417081 -14517 7420 1906
59976 398486 417093 -14523 7432 1924
60055 398546 417119 -14502 7438 1954
60150 398594 417167 -14505 7442 1955
60262 398649 417184 -14527 7465 1938
60384 398729 417223 -14515 7487 1929
60518 398811 417256 -14492 7500 1903
60657 398896 417305 -14480 7512 1880
60798 398969 417348 -14479 7520 1866
60947 399044 417368 -14468 7533 1873
61096 399130 417409 -14464 7541 1879
59870 398379 417039 -14535 7463 1877
59912 398397 417053 -14503 7451 1905
59921 398386 417045 -14489 7457 1904
59903 398366 417043 -14491 7459 1885
59876 398350 417025 -14485 7446 1874
59851 398327 417020 -14487 7444 1860
59847 398333 417034 -14494 7449 1871
59869 398343 417021 -14508 7457 1884
59916 398374 417042 -14527 7464 1884
59980 398422 417064 -14538 7474 1872
60060 398470 417078 -14538 7474 1877
60158 398534 417106 -14511 7455 1906
60272 398611 417125 -14496 7448 1904
60397 398679 417175 -14514 7459 1887
60533 398752 417203 -14517 7479 1892
60673 398821 417236 -14499 7484 1876
60823 398911 417282 -14484 7480 1847
60975 398981 417315 -14498 7482 1844
61126 399065 417348 -14521 7488 1840
61274 399133 417380 -14531 7483 1847
61418 399203 417406 -14526 7477 1865
61557 399280 417445 -14483 7463 1912
61692 399345 417490 -14515 7463 1901
61821 399403 417527 -14536 7467 1906
61959 399479 417539 -14538 7470 1919
62096 399570 417564 -14518 7475 1917
62228 399618 417597 -14498 7482 1901
62350 399682 417632 -14509 7504 1876
62373 399615 417595 -14536 7516 1848
62201 399406 417516 -14543 7507 1857
61856 399141 417402 -14501 7501 1890
61441 398860 417284 -14466 7493 1874
61039 398666 417195 -14458 7486 1841
60712 398524 417144 -14446 7480 1827
60475 398445 417098 -14451 7476 1817
60313 398407 417079 -14455 7488 1821
60220 398403 417065 -14468 7507 1824
60170 398412 417070 -14502 7511 1839
60173 398446 417049 -14518 7506 1854
60235 398505 417093 -14525 7513 1837
60329 398571 417098 -14501 7501 1890
60397 398603 417112 -14466 7493 1874
60429 398594 417099 -14458 7486 1841
60427 398558 417098 -14446 7480 1827
60394 398554 417080 -14451 7476 1817
60351 398528 417064 -14455 7488 1821
60324 398514 417059 -14468 7507 1824
60319 398523 417057 -14502 7511 1839
60340 398538 417060 -14518 7506 1854
60378 398567 417071 -14525 7513 1837
60444 398626 417098 -14489 7495 1856
60521 398666 417117 -14490 7480 1841
60613 398730 417129 -14496 7471 1844
60719 398790 417172 -14497 7466 1851
60841 398852 417189 -14496 7464 1849
60969 398931 417231 -14506 7459 1865
61103 399011 417257 -14512 7459 1888
61241 399069 417314 -14519 7471 1901
61382 399149 417328 -14540 7488 1911
61528 399244 417365 -14528 7486 1929
61671 399295 417407 -14510 7475 1939
61807 399365 417449 -14519 7472 1941
61942 399445 417477 -14523 7467 1950
62071 399513 417486 -14525 7467 1930
62212 399571 417513 -14527 7479 1899
62345 399636 417554 -14522 7495 1888
62468 399698 417610 -14517 7493 1884
62532 399682 417571 -14512 7479 1890
62435 399533 417517 -14505 7468 1898
62153 399285 417409 -14487 7451 1900
61746 399001 417301 -14466 7438 1908
61333 398776 417196 -14484 7446 1904
60977 398629 417125 -14525 7453 1912
60704 398549 417065 -14534 7459 1927
60524 398503 417047 -14513 7459 1924
60409 398483 417043 -14490 7456 1917
60358 398497 417046 -14497 7484 1899
60348 398523 417048 -14530 7508 1884
60398 398610 417084 -14553 7508 1896
60497 398674 417105 -14545 7507 1912
60599 398726 417127 -14502 7500 1916
60658 398745 417136 -14482 7491 1898
60680 398751 417126 -14486 7479 1875
60668 398721 417114 -14480 7455 1855
60639 398692 417110 -14476 7442 1842
60615 398680 417086 -14488 7451 1849
60610 398672 417092 -14518 7461 1868
60626 398696 417096 -14526 7456 1883
60666 398717 417094 -14527 7460 1878
60721 398776 417112 -14545 7470 1868
60796 398808 417138 -14505 7473 1864
60890 398866 417161 -14506 7468 1837
60996 398930 417178 -14511 7454 1833
61116 398997 417209 -14509 7441 1818
61247 399087 417243 -14509 7437 1817
61386 399171 417298 -14515 7452 1831
61528 399257 417322 -14516 7471 1835
61672 399331 417379 -14535 7471 1844
61823 399421 417383 -14558 7463 1857
61966 399488 417441 -14505 7456 1879
62108 399558 417470 -14517 7451 1878
62249 399644 417516 -14528 7448 1866
62383 399716 417532 -14535 7438 1853
62517 399774 417557 -14532 7437 1847
62652 399847 417607 -14525 7436 1843
62782 399919 417653 -14524 7433 1836
62913 399980 417670 -14534 7440 1837
63052 400054 417708 -14537 7442 1851
63187 400137 417750 -14494 7436 1884
63304 400169 417765 -14509 7436 1885
63299 400090 417740 -14527 7441 1877
63088 399851 417633 -14523 7442 1872
62707 399548 417484 -14529 7456 1866
62241 399206 417333 -14537 7467 1863
61799 398960 417197 -14527 7464 1873
61433 398795 417112 -14503 7464 1865
61161 398705 417056 -14483 7474 1851
60972 398648 417002 -14494 7481 1846
60854 398635 416991 -14500 7485 1873
60783 398616 416956 -14507 7495 1901
60743 398587 416882 -14520 7488 1891
60746 398556 416786 -14517 7476 1879
60778 398491 416657 -14505 7476 1864
60796 398440 416554 -14490 7459 1861
60797 398422 416519 -14475 7433 1862
60761 398386 416495 -14467 7428 1850
60730 398345 416465 -14477 7426 1866
60704 398373 416503 -14515 7415 1919
60698 398437 416598 -14519 7434 1968
60693 398466 416631 -14524 7481 1954
61683 399148 417011 -14560 7440 1877
61828 399229 417044 -14560 7434 1886
61971 399269 417050 -14547 7442 1873
62121 399364 417077 -14540 7434 1857
62288 399471 417129 -14544 7420 1845
62453 399573 417199 -14543 7417 1850
62604 399625 417198 -14531 7434 1857
62748 399706 417251 -14477 7475 1800
62883 399777 417298 -14481 7480 1786
63011 399852 417360 -14507 7459 1828
63126 399931 417423 -14537 7429 1870
63231 400019 417510 -14553 7420 1901
63242 399994 417529 -14542 7417 1935
63052 399780 417444 -14542 7423 1928
62691 399507 417360 -14544 7429 1896
62240 399211 417233 -14527 7422 1895
61791 398949 417110 -14493 7409 1921
61407 398784 417038 -14460 7405 1952
61114 398700 417006 -14495 7427 1936
60901 398652 416956 -14552 7454 1888
60768 398619 416939 -14559 7474 1878
60689 398621 416925 -14540 7472 1889
60651 398617 416919 -14533 7453 1912
60661 398651 416910 -14541 7430 1931
60723 398711 416917 -14538 7414 1918
60786 398729 416900 -14529 7413 1896
60826 398735 416882 -14512 7416 1892
60834 398697 416854 -14481 7415 1915
60811 398656 416818 -14502 7412 1923
60773 398626 416790 -14531 7417 1910
60732 398580 416781 -14529 7430 1899
60707 398581 416768 -14539 7446 1866
60702 398587 416767 -14531 7454 1845
60721 398601 416782 -14516 7463 1855
60765 398650 416789 -14515 7458 1870
60826 398716 416809 -14517 7451 1872
60913 398785 416863 -14511 7455 1866
61012 398844 416891 -14477 7459 1873
61131 398935 416925 -14499 7478 1877
61257 398999 416968 -14514 7494 1888
61389 399071 416987 -14513 7503 1882
61527 399153 417024 -14510 7505 1880
61661 399233 417054 -14500 7499 1881
61802 399308 417080 -14486 7489 1873
61941 399368 417108 -14480 7487 1868
62082 399439 417141 -14481 7490 1867
62232 399520 417164 -14437 7443 1929
62372 399593 417210 -14466 7421 1933
62499 399655 417233 -14485 7428 1903
62550 399621 417225 -14510 7449 1881
60283 398422 416703 -14492 7563 1912
60378 398520 416735 -14486 7552 1920
60472 398578 416758 -14477 7541 1928
60545 398615 416773 -14485 7536 1930
60574 398603 416760 -14492 7534 1920
60571 398580 416746 -14468 7524 1913
60552 398547 416741 -14447 7499 1903
60530 398530 416720 -14470 7490 1872
60521 398528 416731 -14494 7494 1856
60530 398539 416722 -14493 7490 1869
60567 398559 416741 -14492 7486 1879
60627 398613 416742 -14481 7485 1883
60711 398657 416777 -14478 7498 1881
60809 398728 416800 -14489 7508 1865
60925 398793 416820 -14494 7514 1851
61055 398876 416853 -14490 7523 1840
61195 398963 416915 -14459 7524 1837
61334 399037 416928 -14474 7527 1821
61482 399123 416956 -14483 7530 1816
61633 399216 416987 -14484 7542 1822
61782 399285 417039 -14487 7547 1836
61931 399363 417060 -14495 7546 1852
62078 399435 417101 -14497 7540 1860
62220 399494 417116 -14499 7543 1862
62365 399566 417155 -14503 7542 1863
62507 399645 417187 -14450 7505 1873
62645 399698 417220 -14455 7518 1850
62718 399695 417198 -14481 7523 1845
62616 399540 417133 -14490 7519 1861
62318 399258 417024 -14477 7512 1881
61896 398953 416887 -14462 7509 1872
61468 398703 416763 -14467 7522 1861
61094 398522 416692 -14495 7550 1857
60807 398414 416626 -14507 7569 1861
60609 398363 416603 -14446 7563 1885
60487 398342 416603 -14447 7557 1869
60424 398341 416593 -14443 7554 1858
60410 398372 416584 -14435 7548 1841
60453 398428 416626 -14445 7536 1827
60542 398516 416644 -14472 7538 1829
60631 398578 416664 -14487 7533 1834
60697 398593 416674 -14488 7533 1834
60720 398578 416672 -14490 7547 1822
60705 398572 416655 -14489 7547 1822
60676 398530 416633 -14462 7543 1836
60646 398499 416625 -14456 7547 1828
60634 398481 416618 -14475 7554 1809
60639 398506 416636 -14474 7553 1802
60670 398525 416636 -14478 7541 1808
60720 398554 416649 -14495 7526 1810
60796 398596 416676 -14507 7517 1800
60884 398673 416689 -14507 7515 1805
60987 398720 416707 -14513 7521 1810
61098 398796 416741 -14518 7522 1807
61221 398859 416762 -14486 7514 1835
61348 398932 416796 -14467 7506 1861
61481 398999 416838 -14477 7492 1853
61620 399084 416856 -14476 7487 1824
61760 399167 416902 -14482 7501 1802
61900 399223 416941 -14491 7512 1805
62038 399304 416960 -14502 7525 1799
62181 399374 417015 -14499 7536 1793
62322 399441 417048 -14485 7537 1785
62447 399501 417059 -14490 7537 1774
62518 399505 417066 -14428 7493 1790
62427 399352 417008 -14417 7501 1775
62156 399107 416919 -14444 7537 1767
61769 398822 416806 -14494 7558 1774
61375 398611 416721 -14526 7563 1797
61045 398453 416641 -14535 7563 1823
60804 398381 416602 -14514 7559 1835
60654 398366 416600 -14488 7571 1815
60566 398370 416605 -14470 7567 1788
60533 398384 416594 -14419 7507 1791
60560 398432 416635 -14428 7499 1791
60646 398535 416667 -14447 7507 1784
60768 398627 416698 -14457 7523 1784
60864 398677 416722 -14472 7542 1793
60923 398685 416748 -14495 7542 1811
60939 398666 416747 -14509 7536 1831
60915 398642 416726 -14508 7541 1843
60880 398617 416734 -14502 7535 1832
60856 398595 416719 -14472 7517 1823
60847 398596 416713 -14427 7508 1835
60862 398620 416719 -14432 7523 1849
60899 398657 416741 -14458 7534 1840
60956 398684 416749 -14479 7528 1835
61023 398737 416769 -14505 7532 1849
61113 398801 416801 -14520 7541 1857
61213 398865 416835 -14515 7544 1866
61325 398931 416859 -14495 7541 1880
61445 398993 416893 -14488 7547 1897
61569 399082 416932 -14471 7553 1897
61694 399147 416969 -14445 7552 1907
61823 399214 417009 -14448 7548 1912
61954 399294 417051 -14453 7549 1887
62087 399375 417091 -14449 7562 1861
62227 399454 417128 -14455 7565 1838
62357 399513 417157 -14466 7555 1826
62472 399583 417183 -14474 7547 1832
62506 399528 417186 -14467 7532 1844
62343 399325 417082 -14463 7525 1850
62001 399054 416972 -14477 7539 1853
61558 398764 416840 -14486 7547 1892
61128 398536 416755 -14504 7550 1898
60771 398383 416673 -14500 7558 1886
60499 398290 416631 -14494 7562 1860
60323 398258 416611 -14495 7551 1845
60217 398249 416586 -14480 7542 1849
60155 398255 416594 -14456 7545 1844
60145 398280 416592 -14448 7550 1832
60197 398343 416628 -14459 7556 1831
60289 398432 416655 -14434 7551 1884
60360 398464 416663 -14463 7562 1880
60401 398468 416651 -14482 7563 1861
60394 398435 416634 -14463 7554 1852
60362 398402 416644 -14445 7550 1857
60320 398376 416620 -14449 7545 1858
60284 398354 416605 -14447 7549 1842
60267 398354 416604 -14450 7550 1830
60271 398355 416613 -14457 7551 1832
60302 398391 416615 -14451 7549 1834
60351 398426 416647 -14443 7546 1842
60421 398484 416656 -14462 7557 1846
60506 398537 416672 -14485 7563 1861
60604 398605 416698 -14488 7559 1873
60714 398659 416740 -14484 7552 1859
60832 398724 416775 -14472 7553 1850
60955 398805 416797 -14471 7558 1843
61084 398875 416824 -14480 7554 1840
61215 398934 416856 -14483 7558 1840
61348 399014 416899 -14471 7558 1843
61476 399078 416936 -14441 7547 1851
61607 399133 416974 -14433 7550 1856
61742 399215 416998 -14457 7554 1861
61875 399290 417032 -14473 7546 1871
61993 399342 417061 -14466 7539 1873
62086 399370 417068 -14448 7535 1881
62041 399255 417006 -14446 7543 1883
61781 399013 416902 -14468 7554 1873
61349 398681 416776 -14490 7560 1882
60858 398392 416636 -14494 7565 1892
60402 398167 416533 -14436 7558 1874
60030 398031 416462 -14445 7559 1838
59748 397935 416415 -14442 7543 1818
59551 397878 416385 -14429 7531 1818
59422 397856 416379 -14423 7538 1833
59338 397851 416351 -14445 7545 1849
59291 397840 416353 -14480 7545 1865
59301 397890 416375 -14485 7542 1879
59353 397941 416379 -14487 7541 1866
59396 397976 416391 -14477 7526 1851
59407 397970 416391 -14470 7532 1844
59383 397922 416363 -14462 7532 1843
59333 397892 416340 -14457 7529 1834
59272 397835 416314 -14464 7532 1826
59225 397820 416289 -14469 7545 1837
59198 397794 416283 -14473 7554 1860
59192 397811 416265 -14481 7552 1871
59212 397822 416264 -14494 7541 1871
59256 397832 416259 -14457 7520 1880
59316 397862 416244 -14461 7508 1874
59394 397899 416248 -14472 7506 1856
59487 397931 416241 -14473 7511 1849
59594 397997 416254 -14474 7512 1847
59707 398036 416282 -14471 7509 1857
59830 398089 416272 -14470 7511 1854
59960 398154 416292 -14474 7508 1830
60089 398217 416314 -14495 7482 1864
60202 398237 416293 -14519 7479 1904
60297 398235 416266 -14505 7509 1893
60371 398186 416178 -14513 7524 1875
60438 398131 416104 -14524 7497 1864
60520 398130 416046 -14529 7466 1868
60617 398176 416049 -14517 7460 1858
60745 398250 416089 -14475 7457 1845
60904 398357 416144 -14434 7463 1842
61071 398499 416232 -14444 7476 1827
61196 398578 416301 -14498 7490 1816
61146 398475 416279 -14527 7501 1830
58372 397252 415833 -14441 7524 1757
58416 397278 415844 -14445 7542 1708
58499 397331 415857 -14458 7531 1724
58601 397400 415903 -14486 7504 1782
58723 397495 415980 -14508 7474 1829
58853 397591 416030 -14514 7452 1867
58997 397685 416076 -14517 7461 1886
59138 397760 416117 -14525 7488 1882
59281 397837 416149 -14510 7507 1863
59420 397901 416182 -14486 7518 1841
59563 397980 416228 -14488 7525 1837
59699 398052 416282 -14494 7525 1843
59837 398129 416299 -14505 7511 1856
59975 398196 416333 -14518 7504 1868
60107 398263 416378 -14524 7507 1874
60224 398318 416390 -14516 7510 1868
60270 398295 416392 -14500 7521 1860
60141 398132 416329 -14500 7521 1879
59818 397874 416210 -14510 7499 1889
59383 397609 416100 -14495 7491 1890
58942 397392 416022 -14465 7492 1897
58560 397245 415940 -14470 7509 1891
58272 397145 415898 -14487 7531 1877
58072 397108 415864 -14482 7528 1872
57937 397067 415846 -14480 7537 1864
57852 397061 415849 -14492 7557 1834
57815 397061 415849 -14510 7560 1824
57829 397119 415871 -14520 7559 1854
57906 397175 415904 -14517 7563 1865
57978 397227 415920 -14494 7566 1853
58030 397226 415926 -14444 7563 1849
58043 397222 415934 -14431 7557 1845
58029 397188 415909 -14438 7548 1845
57995 397173 415895 -14436 7541 1847
57975 397153 415907 -14455 7544 1847
57968 397168 415908 -14480 7541 1860
57988 397204 415932 -14479 7538 1870
58036 397241 415939 -14471 7543 1860
58110 397288 415967 -14482 7548 1847
58204 397338 415978 -14495 7550 1842
58312 397413 416019 -14474 7534 1850
58429 397456 416050 -14449 7524 1854
58561 397541 416098 -14456 7527 1846
58699 397620 416119 -14461 7524 1839
58842 397689 416158 -14469 7517 1839
58981 397763 416191 -14475 7514 1830
59126 397834 416233 -14472 7519 1817
59272 397915 416270 -14477 7529 1814
59418 397992 416301 -14493 7546 1810
59570 398075 416334 -14496 7561 1817
59714 398135 416357 -14448 7552 1845
59849 398198 416408 -14454 7547 1853
59909 398180 416384 -14468 7552 1852
59807 398018 416319 -14474 7552 1839
59517 397783 416222 -14474 7549 1832
59114 397543 416094 -14468 7561 1825
58694 397330 416001 -14474 7566 1822
58337 397182 415925 -14477 7563 1831
58067 397095 415895 -14480 7562 1836
57882 397068 415870 -14428 7558 1840
57770 397045 415864 -14443 7568 1816
57711 397044 415861 -14485 7580 1804
57699 397070 415851 -14496 7591 1812
57744 397126 415877 -14481 7607 1817
57845 397206 415907 -14458 7611 1822
57933 397231 415931 -14448 7608 1810
57998 397264 415944 -14438 7607 1784
58023 397251 415944 -14419 7602 1777
58016 397228 415927 -14398 7594 1790
57994 397214 415920 -14373 7600 1809
57984 397205 415914 -14377 7619 1817
57995 397231 415925 -14391 7634 1817
58031 397247 415910 -14407 7641 1819
58094 397266 415933 -14435 7634 1805
58177 397316 415957 -14442 7622 1792
58273 397373 415955 -14436 7619 1793
58377 397378 415904 -14437 7614 1791
58502 397422 415919 -14438 7609 1786
58637 397499 415930 -14435 7597 1774
58786 397581 415962 -14397 7580 1812
58945 397661 416011 -14430 7602 1799
59111 397760 416087 -14450 7619 1795
59282 397899 416188 -14458 7628 1797
59449 398001 416251 -14461 7625 1806
59604 398080 416299 -14453 7631 1811
59755 398157 416348 -14440 7653 1815
59906 398237 416384 -14436 7674 1826
60052 398313 416418 -14439 7676 1834
60198 398383 416448 -14376 7656 1847
60341 398449 416466 -14391 7668 1829
60476 398472 416471 -14414 7675 1807
60589 398495 416467 -14431 7665 1800
60576 398385 416403 -14421 7658 1796
60366 398171 416297 -14418 7654 1779
59991 397892 416161 -14433 7645 1767
59562 397659 416048 -14431 7633 1783
59171 397491 415968 -14415 7618 1792
58858 397366 415915 -14384 7614 1796
58643 397319 415868 -14372 7628 1796
58514 397300 415871 -14416 7654 1784
58446 397312 415873 -14448 7678 1781
58426 397334 415898 -14442 7693 1786
58452 397393 415904 -14433 7706 1783
58541 397483 415967 -14420 7703 1761
58646 397554 415988 -14400 7687 1742
58722 397586 415986 -14394 7667 1747
58757 397583 415959 -14391 7641 1756
58747 397562 415893 -14388 7628 1767
58720 397512 415819 -14401 7622 1792
58690 397447 415731 -14409 7610 1802
58679 397441 415667 -14414 7614 1785
58693 397425 415648 -14441 7635 1769
58734 397450 415615 -14457 7648 1765
58807 397495 415627 -14452 7644 1765
58896 397566 415658 -14448 7634 1766
59004 397621 415679 -14446 7624 1756
59127 397707 415733 -14444 7620 1739
59265 397786 415774 -14444 7605 1738
59414 397865 415818 -14432 7570 1770
59562 397959 415856 -14436 7547 1785
59721 398051 415927 -14453 7544 1775
59879 398130 415967 -14458 7549 1772
60032 398210 416006 -14463 7562 1766
60180 398289 416034 -14468 7573 1781
60329 398360 416075 -14471 7580 1798
60480 398429 416087 -14464 7581 1796
60627 398496 416109 -14456 7578 1792
60772 398559 416144 -14450 7585 1789
60912 398634 416175 -14415 7555 1819
61014 398647 416189 -14447 7572 1813
60979 398523 416137 -14457 7582 1804
60768 398317 416031 -14467 7581 1808
60423 398060 415922 -14485 7568 1828
60039 397829 415792 -14477 7540 1839
59703 397663 415687 -14445 7522 1836
59457 397555 415612 -14456 7537 1825
59306 397513 415571 -14502 7561 1819
59231 397521 415561 -14492 7565 1830
59213 397543 415558 -14464 7556 1844
59253 397605 415566 -14460 7557 1848
59360 397717 415614 -14455 7557 1834
59499 397814 415656 -14444 7535 1801
59619 397865 415704 -14436 7510 1777
59694 397885 415712 -14441 7499 1767
59729 397874 415713 -14457 7503 1767
59726 397843 415699 -14478 7503 1786
59719 397830 415704 -14490 7497 1812
59716 397830 415700 -14500 7490 1834
59732 397846 415732 -14500 7484 1852
59772 397903 415746 -14499 7497 1851
59834 397935 415779 -14512 7510 1844
59911 398000 415811 -14516 7514 1837
60008 398064 415847 -14522 7516 1830
60116 398133 415874 -14526 7514 1834
60240 398213 415942 -14515 7508 1836
60369 398289 415973 -14505 7505 1829
60512 398377 416014 -14512 7510 1828
60655 398449 416032 -14506 7520 1832
60800 398536 416091 -14470 7523 1840
60948 398608 416135 -14462 7520 1837
61098 398700 416188 -14478 7518 1829
61251 398794 416232 -14477 7523 1837
61404 398866 416283 -14471 7531 1835
61559 398944 416310 -14470 7524 1833
61704 399030 416374 -14476 7516 1839
61829 399073 416402 -14483 7517 1843
61830 398964 416364 -14491 7527 1848
61633 398747 416283 -14490 7536 1841
61269 398472 416168 -14468 7542 1832
60833 398212 416038 -14460 7541 1830
60436 398025 415973 -14472 7541 1829
60114 397901 415912 -14457 7542 1827
59890 397833 415874 -14447 7551 1817
59753 397819 415859 -14477 7566 1805
59679 397812 415851 -14505 7576 1815
59650 397865 415870 -14515 7584 1829
59670 397910 415895 -14513 7587 1838
59760 398011 415949 -14490 7585 1822
59863 398085 415975 -14414 7554 1789
59944 398109 416007 -14415 7552 1787
59980 398126 416016 -14406 7550 1787
59980 398090 415984 -14428 7548 1781
59953 398066 416008 -14472 7551 1791
59922 398052 415986 -14484 7554 1818
59906 398050 415983 -14498 7558 1826
59915 398066 415982 -14507 7560 1810
59943 398079 415990 -14503 7553 1789
59994 398127 416019 -14451 7534 1811
60068 398181 416043 -14452 7531 1800
60157 398243 416065 -14462 7536 1785
60263 398317 416093 -14465 7547 1786
60383 398373 416131 -14462 7560 1793
60511 398468 416167 -14473 7564 1814
60649 398504 416187 -14497 7567 1826
60794 398603 416227 -14498 7568 1809
60936 398687 416284 -14480 7560 1808
61082 398760 416318 -14461 7546 1817
61225 398834 416341 -14436 7536 1829
61361 398904 416390 -14434 7547 1822
61499 398980 416436 -14446 7563 1800
61634 399039 416456 -14446 7569 1784
61768 399108 416479 -14457 7572 1776
61908 399161 416509 -14467 7567 1781
62033 399214 416533 -14471 7560 1788
62112 399218 416549 -14468 7551 1785
62020 399063 416473 -14473 7552 1773
61719 398783 416346 -14490 7567 1782
61269 398465 416212 -14467 7564 1819
60781 398185 416072 -14445 7558 1830
60349 398001 415977 -14451 7564 1814
60002 397885 415925 -14454 7582 1801
59752 397815 415898 -14476 7595 1780
59589 397776 415870 -14502 7589 1773
59488 397780 415871 -14500 7591 1774
59431 397796 415884 -14490 7599 1780
59418 397834 415886 -14483 7595 1777
59464 397896 415928 -14470 7585 1773
59532 397937 415953 -14405 7543 1784
59575 397951 415939 -14406 7550 1777
59584 397936 415932 -14444 7550 1782
59557 397896 415899 -14477 7544 1803
59512 397858 415888 -14480 7547 1812
59462 397816 415869 -14488 7555 1802
59415 397789 415851 -14499 7562 1782
59397 397776 415831 -14494 7575 1761
59399 397773 415802 -14485 7581 1749
59429 397773 415806 -14425 7553 1785
59479 397786 415787 -14442 7565 1778
59551 397824 415783 -14463 7571 1775
59643 397883 415796 -14474 7570 1789
59752 397935 415793 -14486 7578 1801
59881 398004 415831 -14491 7589 1792
60018 398087 415875 -14504 7583 1782
60150 398123 415849 -14500 7564 1782
60271 398122 415796 -14466 7555 1786
60392 398180 415794 -14429 7535 1790
60512 398208 415805 -14414 7515 1815
60645 398278 415828 -14463 7516 1841
60788 398361 415889 -14499 7535 1842
60936 398447 415948 -14492 7541 1835
61099 398585 416016 -14494 7537 1812
61274 398713 416125 -14503 7528 1791
61444 398816 416198 -14499 7511 1784
61605 398913 416249 -14474 7511 1770
61743 398973 416292 -14458 7525 1764
61851 399032 416351 -14461 7529 1787
61836 398937 416319 -14458 7513 1842
61607 398718 416242 -14477 7508 1888
61203 398417 416160 -14512 7519 1886
60717 398128 416013 -14511 7530 1874
60237 397861 415898 -14484 7557 1860
59824 397687 415829 -14484 7574 1848
59513 397585 415768 -14522 7565 1845
59300 397568 415780 -14524 7570 1827
59168 397601 415851 -14494 7589 1804
59083 397608 415861 -14479 7582 1799
59036 397602 415836 -14402 7530 1804
59041 397622 415843 -14364 7545 1754
59107 397702 415880 -14330 7558 1714
59171 397740 415908 -14346 7573 1676
59199 397727 415897 -14391 7569 1655
59187 397701 415889 -14460 7540 1692
59149 397669 415867 -14516 7525 1776
59096 397637 415847 -14539 7540 1848
59050 397602 415822 -14544 7562 1892
59028 397597 415822 -14470 7569 1946
59032 397615 415820 -14474 7567 1926
59067 397639 415836 -14461 7570 1892
59123 397682 415844 -14442 7573 1882
59197 397707 415857 -14445 7576 1894
59298 397778 415889 -14454 7582 1904
59413 397834 415904 -14462 7592 1894
59540 397908 415926 -14457 7600 1879
59675 397998 415979 -14459 7589 1885
59822 398070 416008 -14450 7562 1911
59963 398142 416048 -14430 7543 1944
60107 398204 416078 -14432 7540 1939
60249 398280 416114 -14431 7553 1904
60393 398364 416150 -14425 7560 1873
60538 398439 416195 -14429 7559 1860
60686 398506 416229 -14441 7561 1859
60823 398575 416260 -14457 7573 1849
60945 398611 416297 -14464 7589 1835
60992 398607 416269 -14460 7603 1841
60857 398427 416205 -14444 7610 1864
60534 398166 416103 -14417 7600 1890
60103 397878 415988 -14404 7605 1878
59666 397650 415886 -14409 7627 1829
59291 397489 415814 -14422 7638 1807
59003 397388 415753 -14442 7651 1805
58799 397344 415714 -14449 7664 1796
58669 397313 415702 -14431 7656 1789
58588 397303 415697 -14422 7636 1785
58550 397308 415694 -14418 7623 1779
58573 397351 415708 -14401 7617 1787
58648 397411 415744 -14358 7604 1807
58728 397459 415744 -14355 7597 1820
58784 397481 415760 -14406 7607 1827
58801 397463 415770 -14419 7602 1832
58792 397428 415749 -14415 7605 1829
58766 397394 415730 -14427 7614 1822
58739 397368 415714 -14441 7618 1813
58731 397392 415718 -14446 7627 1818
58751 397412 415727 -14439 7632 1835
58797 397438 415743 -14432 7631 1847
58872 397483 415779 -14387 7611 1862
58967 397557 415796 -14409 7624 1863
59075 397611 415820 -14416 7638 1867
59197 397674 415855 -14420 7639 1868
59330 397747 415886 -14430 7634 1861
59479 397836 415929 -14437 7638 1849
59632 397909 415970 -14440 7643 1847
59785 397991 416010 -14425 7635 1853
59936 398056 416042 -14421 7633 1865
60089 398152 416083 -14384 7626 1885
60242 398227 416125 -14389 7620 1884
60396 398283 416160 -14394 7615 1860
60549 398369 416208 -14387 7622 1839
60697 398429 416222 -14397 7634 1826
60823 398488 416254 -14410 7636 1839
60857 398435 416226 -14405 7640 1863
60701 398255 416136 -14393 7640 1874
60364 397958 416027 -14389 7641 1868
59930 397690 415883 -14397 7653 1861
59512 397463 415803 -14402 7663 1868
59167 397337 415716 -14410 7678 1868
58915 397238 415667 -14414 7692 1859
58750 397210 415652 -14407 7693 1846
58649 397188 415643 -14403 7676 1830
58597 397188 415622 -14391 7661 1824
58587 397217 415623 -14377 7663 1829
58637 397298 415680 -14363 7667 1833
58741 397366 415699 -14381 7670 1829
58836 397431 415721 -14392 7674 1826
58900 397445 415742 -14355 7665 1830
58919 397426 415742 -14357 7669 1824
58916 397406 415730 -14391 7686 1816
58899 397392 415728 -14404 7690 1823
58886 397377 415712 -14405 7692 1817
58894 397400 415705 -14388 7693 1812
58931 397412 415723 -14358 7691 1802
58982 397448 415736 -14356 7686 1791
59062 397503 415750 -14378 7680 1810
59157 397554 415783 -14382 7679 1829
59269 397637 415807 -14365 7667 1852
59394 397701 415834 -14377 7655 1866
59534 397772 415876 -14409 7667 1855
59683 397848 415896 -14416 7682 1841
59837 397924 415938 -14420 7686 1828
60000 398008 415984 -14413 7682 1820
60161 398086 416007 -14398 7668 1819
60319 398171 416037 -14390 7653 1826
60472 398251 416073 -14386 7647 1831
60621 398324 416108 -14383 7643 1822
60772 398391 416143 -14357 7626 1861
60914 398454 416164 -14382 7630 1858
61064 398527 416191 -14412 7653 1851
61207 398612 416243 -14414 7674 1842
61351 398680 416279 -14414 7673 1844
61447 398680 416300 -14412 7667 1860
61376 398537 416220 -14396 7664 1869
61106 398283 416130 -14376 7658 1852
60697 398003 415990 -14394 7668 1826
60270 397748 415845 -14422 7678 1843
59900 397603 415744 -14418 7674 1880
59627 397501 415682 -14422 7682 1880
59451 397479 415649 -14421 7691 1856
59351 397476 415632 -14399 7674 1826
59307 397500 415626 -14398 7648 1799
59312 397542 415619 -14407 7625 1790
59367 397605 415652 -14398 7612 1798
59469 397679 415683 -14409 7618 1804
59569 397750 415702 -14430 7614 1806
59633 397752 415712 -14424 7604 1823
59655 397736 415707 -14408 7600 1844
59641 397702 415692 -14424 7607 1847
59610 397681 415700 -14440 7613 1833
59584 397654 415693 -14439 7618 1823
59574 397662 415688 -14440 7623 1817
59584 397652 415700 -14417 7620 1807
59621 397686 415718 -14400 7617 1792
59684 397733 415743 -14398 7617 1783
59766 397780 415758 -14398 7631 1789
59866 397831 415775 -14407 7642 1803
59979 397906 415815 -14396 7620 1835
60110 397991 415865 -14420 7620 1823
60244 398067 415891 -14431 7616 1824
60383 398154 415953 -14429 7620 1836
60523 398222 415980 -14430 7621 1840
60661 398296 416016 -14438 7630 1851
60804 398366 416041 -14439 7641 1852
60944 398447 416084 -14447 7640 1848
61082 398511 416115 -14456 7632 1853
61226 398601 416155 -14437 7623 1831
61373 398655 416162 -14462 7629 1806
61510 398734 416200 -14438 7639 1805
61609 398747 416217 -14403 7637 1808
61557 398641 416155 -14410 7641 1815
61323 398398 416071 -14444 7656 1814
60956 398142 415971 -14457 7660 1819
60557 397904 415850 -14451 7655 1831
60204 397756 415785 -14449 7644 1829
59941 397667 415744 -14395 7596 1842
59768 397637 415722 -14380 7595 1844
59675 397642 415709 -14384 7590 1841
59640 397666 415727 -14387 7595 1848
59657 397713 415731 -14406 7607 1848
59733 397808 415785 -14417 7624 1845
59852 397896 415824 -14422 7648 1827
59966 397953 415836 -14442 7671 1803
60047 397981 415838 -14449 7677 1789
60078 397968 415837 -14427 7664 1799
60081 397948 415820 -14383 7646 1822
60059 397925 415815 -14383 7630 1820
60042 397899 415795 -14398 7638 1807
60044 397923 415781 -14392 7651 1801
60075 397939 415824 -14392 7645 1807
60127 397982 415837 -14396 7643 1822
60193 398030 415852 -14405 7654 1824
60284 398089 415872 -14417 7657 1818
60389 398151 415906 -14419 7658 1812
60510 398229 415946 -14409 7655 1801
60643 398300 415977 -14376 7644 1818
60775 398384 416023 -14364 7642 1839
60914 398474 416063 -14388 7653 1821
61069 398570 416115 -14400 7657 1805
61222 398647 416154 -14413 7667 1805
61371 398730 416187 -14418 7677 1800
61524 398811 416238 -14412 7674 1797
61670 398898 416272 -14403 7675 1796
61813 398977 416310 -14404 7670 1792
61957 399040 416332 -14409 7672 1783
62104 399136 416386 -14406 7651 1859
62245 399191 416403 -14405 7638 1858
62373 399241 416442 -14387 7631 1838
62426 399221 416434 -14391 7623 1816
62278 399019 416340 -14424 7623 1801
61926 398725 416218 -14444 7637 1801
61454 398404 416069 -14442 7646 1815
60980 398146 415974 -14431 7647 1819
60577 397986 415870 -14418 7654 1802
60264 397899 415811 -14358 7633 1804
60054 397836 415785 -14346 7625 1799
59915 397818 415768 -14364 7615 1811
59839 397837 415766 -14397 7617 1820
59804 397855 415776 -14425 7627 1828
59825 397907 415795 -14425 7633 1836
59894 397995 415841 -14433 7639 1815
59973 398045 415845 -14459 7648 1787
60015 398067 415860 -14461 7654 1784
60019 398054 415840 -14434 7644 1793
59990 398024 415823 -14393 7618 1799
59941 397991 415816 -14381 7608 1789
59901 397965 415791 -14392 7620 1778
59871 397953 415779 -14389 7635 1784
59869 397959 415774 -14394 7649 1797
59889 397978 415778 -14413 7656 1812
59930 398008 415792 -14432 7666 1816
59994 398044 415790 -14446 7672 1818
60079 398089 415793 -14446 7659 1827
60184 398147 415821 -14434 7640 1826
60305 398212 415835 -14399 7624 1836
60431 398277 415843 -14388 7620 1838
60569 398346 415869 -14414 7620 1823
60717 398423 415887 -14431 7622 1816
60859 398482 415910 -14433 7622 1810
61000 398566 415927 -14422 7621 1815
61140 398627 415968 -14422 7628 1821
61272 398655 415971 -14419 7634 1816
61402 398726 415993 -14408 7638 1813
61564 398315 415646 -14420 7593 1908
61135 398093 415587 -14447 7594 1919
60701 397904 415510 -14465 7608 1909
60316 397775 415456 -14447 7603 1889
60006 397625 415364 -14424 7590 1875
59788 397620 415378 -14439 7592 1857
59659 397683 415478 -14460 7595 1856
59587 397728 415530 -14448 7588 1870
59567 397763 415566 -14451 7582 1877
59600 397840 415627 -14456 7588 1885
59671 397915 415676 -14451 7602 1872
59722 397960 415687 -14430 7643 1829
59737 397967 415704 -14384 7681 1793
59721 397931 415696 -14382 7654 1801
59683 397895 415651 -14423 7608 1834
59646 397867 415616 -14436 7592 1863
59627 397865 415631 -14419 7607 1864
59633 397883 415639 -14409 7631 1833
59662 397945 415692 -14397 7656 1791
59712 397984 415716 -14400 7664 1781
59766 398025 415733 -14391 7647 1816
59840 398085 415760 -14398 7645 1844
59931 398125 415793 -14430 7654 1857
60044 398222 415812 -14429 7654 1874
60167 398298 415861 -14421 7646 1882
60304 398371 415887 -14419 7648 1876
60442 398445 415916 -14420 7654 1873
60584 398522 415948 -14414 7650 1881
60726 398602 415982 -14413 7646 1885
60871 398668 416016 -14417 7643 1870
61013 398745 416068 -14391 7647 1816
61162 398833 416121 -14398 7645 1844
61310 398896 416149 -14430 7654 1857
61457 398966 416173 -14429 7654 1874
61591 399041 416193 -14421 7646 1882
61715 399077 416216 -14419 7648 1876
61741 399018 416200 -14420 7654 1873
61583 398828 416112 -14414 7650 1881
61240 398528 415989 -14413 7646 1885
60801 398252 415848 -14417 7643 1870
60369 398015 415752 -14387 7646 1858
59999 397871 415666 -14412 7667 1847
59720 397777 415612 -14395 7673 1841
59523 397728 415580 -14381 7680 1853
59403 397711 415569 -14406 7694 1848
59330 397704 415540 -14420 7693 1836
59307 397718 415546 -14409 7684 1842
59340 397788 415568 -14408 7678 1841
59422 397858 415596 -14405 7678 1824
59500 397912 415604 -14383 7673 1821
59554 397920 415605 -14375 7666 1820
59564 397903 415602 -14369 7677 1811
59542 397857 415590 -14363 7697 1814
59508 397828 415572 -14376 7710 1817
59478 397816 415560 -14397 7709 1819
59464 397806 415544 -14401 7713 1826
59479 397827 415561 -14388 7731 1823
59517 397849 415569 -14386 7740 1805
59578 397906 415601 -14386 7740 1801
59662 397957 415609 -14328 7718 1834
59763 398027 415651 -14325 7715 1815
59877 398067 415666 -14337 7721 1793
60003 398152 415692 -14347 7717 1781
60132 398215 415721 -14363 7717 1786
60273 398285 415758 -14373 7719 1803
60409 398366 415797 -14373 7714 1805
60552 398435 415832 -14373 7710 1792
60698 398517 415868 -14371 7715 1800
60846 398592 415898 -14376 7714 1820
60994 398664 415937 -14362 7693 1844
61140 398739 415969 -14355 7691 1842
61266 398798 415999 -14354 7699 1827
61309 398754 415980 -14357 7704 1828
61164 398560 415882 -14366 7700 1826
60843 398296 415775 -14373 7691 1823
60436 398033 415663 -14385 7694 1818
60048 397823 415564 -14388 7695 1812
59733 397699 415504 -14382 7684 1814
59510 397627 415462 -14364 7661 1826
59371 397597 415449 -14343 7645 1850
59294 397612 415450 -14382 7660 1844
59265 397616 415449 -14440 7682 1834
59291 397667 415465 -14450 7689 1859
59377 397762 415511 -14439 7691 1869
59487 397837 415524 -14407 7693 1857
59569 397859 415540 -14382 7685 1842
59610 397858 415557 -14370 7669 1830
59608 397840 415545 -14371 7659 1833
59589 397804 415537 -14374 7658 1845
59556 397794 415525 -14340 7643 1848
59537 397776 415531 -14360 7648 1836
59543 397788 415541 -14400 7660 1813
59575 397814 415559 -14416 7682 1810
59629 397859 415575 -14406 7693 1821
59700 397910 415591 -14398 7686 1827
59791 397959 415637 -14381 7684 1817
59896 398037 415663 -14366 7677 1801
60012 398108 415698 -14373 7666 1799
60143 398186 415730 -14360 7651 1837
60277 398259 415756 -14366 7674 1848
60415 398329 415800 -14383 7686 1851
60554 398396 415847 -14402 7689 1846
60695 398472 415893 -14426 7686 1853
60837 398553 415919 -14427 7688 1858
60983 398633 415960 -14405 7692 1848
61131 398718 415995 -14384 7691 1835
61271 398789 416029 -14370 7696 1827
61395 398837 416060 -14358 7685 1830
61424 398799 416048 -14336 7673 1835
61268 398582 415963 -14342 7683 1834
60935 398304 415845 -14377 7693 1823
60514 398038 415719 -14396 7686 1823
60109 397810 415631 -14386 7681 1842
59780 397692 415561 -14353 7683 1842
59538 397597 415527 -14358 7692 1832
59388 397579 415514 -14404 7707 1824
59302 397563 415502 -14427 7714 1828
59264 397574 415504 -14417 7715 1854
59276 397620 415513 -14384 7694 1877
59352 397702 415547 -14366 7686 1868
59459 397774 415583 -14357 7699 1830
59545 397810 415601 -14336 7704 1805
59594 397820 415597 -14329 7695 1805
59597 397777 415577 -14336 7689 1806
59576 397748 415546 -14367 7698 1817
59551 397717 415543 -14383 7708 1825
59529 397706 415536 -14390 7711 1826
59534 397716 415538 -14405 7714 1813
59564 397733 415537 -14369 7659 1836
59618 397774 415561 -14378 7666 1829
59695 397819 415603 -14378 7673 1822
59790 397878 415642 -14379 7677 1815
59903 397939 415657 -14370 7675 1817
60017 398006 415671 -14365 7676 1836
60150 398085 415707 -14379 7692 1842
60287 398150 415733 -14401 7704 1839
60429 398225 415770 -14417 7717 1831
60571 398294 415802 -14367 7704 1831
60721 398357 415813 -14352 7712 1816
60870 398429 415847 -14353 7715 1801
61019 398513 415899 -14347 7717 1797
61168 398576 415944 -14343 7718 1789
61311 398652 415951 -14354 7715 1789
61447 398723 415992 -14356 7709 1808
61577 398773 416033 -14367 7719 1834
61715 398850 416066 -14387 7727 1847
61855 398920 416099 -14390 7717 1856
61997 398977 416131 -14384 7709 1867
62120 399047 416168 -14392 7711 1873
62153 398987 416144 -14391 7705 1873
59411 397550 415502 -14377 7674 1795
59461 397607 415532 -14361 7658 1792
59520 397643 415543 -14360 7647 1795
59554 397663 415539 -14380 7645 1800
59548 397641 415529 -14407 7642 1808
59504 397604 415502 -14369 7636 1838
59449 397546 415487 -14383 7642 1828
59401 397513 415469 -14406 7661 1811
59375 397511 415450 -14409 7679 1809
59373 397514 415453 -14406 7701 1826
59409 397550 415453 -14410 7711 1850
59463 397595 415476 -14418 7704 1882
59536 397644 415493 -14411 7695 1899
59627 397699 415511 -14407 7701 1910
59734 397754 415542 -14395 7707 1923
59854 397813 415561 -14367 7700 1937
59983 397880 415585 -14372 7698 1928
60124 397946 415599 -14386 7710 1901
60266 398017 415641 -14373 7719 1875
60407 398100 415682 -14363 7721 1848
60549 398174 415706 -14368 7725 1838
60693 398260 415747 -14373 7719 1847
60841 398326 415784 -14363 7701 1852
60980 398399 415808 -14350 7692 1842
61119 398457 415845 -14340 7703 1844
61254 398526 415865 -14331 7700 1870
61382 398582 415912 -14349 7694 1879
61514 398638 415933 -14385 7712 1854
61646 398712 415974 -14402 7726 1836
61785 398775 416001 -14408 7732 1835
61924 398847 416025 -14406 7735 1834
62058 398919 416051 -14392 7724 1830
62135 398921 416052 -14390 7718 1824
62031 398742 415977 -14388 7710 1816
61714 398438 415853 -14368 7695 1822
61276 398135 415722 -14304 7654 1848
60831 397890 415601 -14350 7684 1825
60453 397715 415509 -14397 7707 1821
60173 397612 415471 -14416 7709 1842
59984 397567 415427 -14419 7707 1846
59868 397551 415423 -14405 7697 1838
59796 397554 415418 -14374 7689 1831
59768 397566 415413 -14356 7686 1829
59784 397622 415425 -14364 7681 1830
59861 397683 415458 -14341 7647 1864
59929 397740 415488 -14363 7653 1879
59969 397751 415479 -14393 7672 1886
59966 397722 415467 -14419 7688 1860
59926 397692 415453 -14428 7697 1833
59873 397643 415431 -14410 7708 1823
59829 397616 415407 -14389 7717 1817
59798 397604 415397 -14375 7717 1811
59792 397613 415397 -14364 7712 1794
59811 397642 415379 -14346 7709 1786
59855 397680 415400 -14320 7692 1792
59921 397713 415434 -14334 7684 1785
60004 397758 415431 -14370 7693 1780
60096 397803 415440 -14395 7696 1776
60206 397873 415476 -14411 7702 1777
60321 397946 415512 -14412 7707 1793
60442 398005 415539 -14404 7698 1807
60574 398084 415554 -14392 7679 1816
60712 398150 415569 -14375 7686 1814
60849 398225 415611 -14364 7689 1806
60986 398285 415633 -14351 7658 1819
61119 398349 415668 -14348 7642 1832
61249 398413 415696 -14377 7656 1839
61376 398476 415735 -14388 7675 1843
61500 398531 415736 -14399 7686 1840
61624 398584 415759 -14421 7685 1841
61747 398635 415789 -14420 7677 1836
61854 398664 415800 -14416 7672 1830
61885 398608 415761 -14415 7659 1842
61738 398415 415663 -14390 7646 1853
61417 398135 415521 -14323 7653 1858
60995 397827 415361 -14382 7689 1827
60584 397583 415226 -14421 7692 1823
60243 397430 415146 -14433 7691 1842
59985 397305 415026 -14413 7700 1838
59805 397262 414990 -14382 7698 1815
59690 397222 414946 -14356 7687 1806
59612 397186 414875 -14354 7665 1828
59593 397202 414861 -14377 7665 1832
59665 397307 414931 -14363 7652 1868
59781 397399 414977 -14361 7652 1891
59902 397471 414995 -14390 7655 1917
59992 397493 414996 -14410 7653 1894
60020 397471 414960 -14372 7682 1835
60006 397446 414951 -14337 7712 1802
59964 397398 414953 -14333 7715 1803
59915 397355 414921 -14355 7711 1815
59883 397339 414913 -14367 7724 1824
59884 397378 414960 -14344 7724 1843
59918 397417 414999 -14338 7709 1860
59978 397504 415070 -14353 7720 1857
60049 397558 415115 -14372 7739 1844
60144 397620 415150 -14399 7739 1849
60252 397696 415201 -14405 7731 1859
60363 397775 415238 -14385 7725 1870
60491 397868 415291 -14376 7715 1884
60632 397967 415358 -14395 7703 1894
60774 398022 415362 -14411 7719 1869
60932 398115 415417 -14372 7742 1806
61101 398241 415487 -14304 7723 1794
61263 398355 415545 -14300 7692 1831
61412 398443 415595 -14365 7678 1847
61547 398514 415651 -14414 7668 1824
61669 398573 415695 -14400 7667 1781
61788 398623 415713 -14344 7681 1741
61908 398686 415750 -14324 7712 1708
62025 398749 415784 -14326 7728 1697
62111 398784 415801 -14326 7729 1714
62068 398685 415759 -14340 7743 1747
61821 398436 415660 -14362 7757 1815
61413 398117 415524 -14389 7801 1806
60945 397822 415384 -14400 7824 1827
60511 397629 415302 -14400 7807 1845
60154 397494 415246 -14380 7783 1858
59887 397437 415215 -14344 7765 1855
59708 397393 415203 -14311 7750 1832
59593 397393 415197 -14294 7743 1818
59521 397386 415188 -14295 7747 1820
59487 397408 415204 -14315 7727 1868
59506 397470 415219 -14340 7746 1872
59567 397519 415241 -14338 7759 1859
59622 397546 415239 -14356 7771 1833
59647 397550 415248 -14371 7776 1810
59627 397507 415213 -14330 7787 1801
59582 397463 415186 -14288 7801 1800
59526 397435 415158 -14277 7807 1801
59475 397407 415145 -14281 7810 1806
59448 397385 415125 -14283 7805 1815
59447 397378 415121 -14281 7792 1816
59481 397419 415126 -14298 7807 1806
59532 397446 415146 -14312 7828 1798
59601 397488 415151 -14328 7825 1804
59693 397549 415161 -14341 7811 1802
59797 397617 415185 -14336 7804 1792
59916 397661 415209 -14330 7799 1786
60045 397740 415241 -14323 7787 1795
60175 397815 415300 -14319 7777 1797
60307 397875 415328 -14314 7755 1796
60441 397968 415360 -14293 7721 1805
60572 398038 415391 -14294 7719 1797
60707 398107 415416 -14331 7745 1791
60843 398196 415473 -14360 7745 1807
60971 398239 415497 -14364 7739 1820
61069 398284 415521 -14354 7737 1821
61065 398202 415490 -14345 7735 1816
60860 397969 415382 -14362 7755 1800
60487 397691 415272 -14394 7773 1799
60037 397414 415144 -14400 7765 1808
59616 397229 415061 -14359 7743 1830
59264 397087 414984 -14339 7744 1843
58996 397001 414940 -14361 7746 1828
58802 396960 414914 -14361 7736 1813
58673 396938 414888 -14340 7735 1810
58587 396921 414896 -14325 7729 1818
58546 396937 414890 -14340 7732 1822
58568 396995 414918 -14366 7735 1828
58639 397057 414951 -14374 7738 1826
58703 397099 414943 -14364 7748 1812
58731 397089 414967 -14338 7739 1804
58726 397075 414947 -14329 7726 1792
58691 397041 414934 -14343 7737 1780
58652 397029 414933 -14335 7754 1778
58621 397000 414917 -14330 7761 1777
58612 397013 414921 -14337 7756 1779
58633 397047 414940 -14344 7755 1785
58679 397078 414954 -14347 7764 1792
58750 397115 414986 -14352 7765 1806
58837 397182 415005 -14365 7761 1813
58941 397246 415048 -14324 7737 1829
59057 397327 415090 -14324 7740 1837
59190 397394 415134 -14331 7757 1844
59327 397462 415162 -14322 7776 1834
59477 397552 415211 -14330 7785 1826
59623 397637 415239 -14331 7784 1825
59776 397708 415284 -14324 7784 1825
59922 397777 415323 -14331 7787 1814
60068 397848 415358 -14337 7790 1801
60203 397919 415400 -14329 7782 1814
60348 397985 415432 -14309 7771 1842
60489 398056 415461 -14323 7774 1846
60625 398127 415513 -14332 7785 1830
60744 398191 415537 -14303 7775 1826
60816 398167 415519 -14283 7757 1832
60716 398018 415462 -14292 7766 1814
60413 397755 415348 -14322 7799 1795
59979 397462 415223 -14345 7830 1801
59532 397223 415113 -14355 7851 1808
59143 397060 415038 -14354 7854 1805
58840 396959 414965 -14318 7826 1803
58632 396899 414931 -14283 7806 1801
58491 396865 414918 -14261 7801 1785
58396 396859 414910 -14241 7800 1779
58343 396865 414895 -14260 7802 1790
58342 396893 414907 -14300 7805 1792
58400 396958 414935 -14299 7809 1793
58469 397005 414942 -14278 7812 1796
58511 396999 414960 -14294 7831 1780
58514 396999 414955 -14316 7838 1770
58484 396967 414946 -14298 7791 1788
58442 396935 414909 -14310 7810 1762
58401 396921 414903 -14296 7813 1739
58371 396899 414883 -14286 7804 1739
58374 396926 414888 -14294 7790 1755
58398 396946 414898 -14308 7790 1759
58450 396979 414918 -14322 7803 1767
58523 397034 414943 -14325 7813 1784
58615 397094 414968 -14330 7816 1791
58719 397144 414992 -14304 7773 1812
58835 397220 415027 -14300 7780 1813
58962 397295 415051 -14307 7785 1808
59092 397350 415078 -14305 7790 1799
59228 397416 415115 -14309 7797 1795
59365 397491 415143 -14312 7794 1809
59508 397562 415174 -14309 7790 1820
59654 397627 415203 -14315 7800 1816
59784 397689 415240 -14323 7808 1817
59604 397257 415052 -14322 7804 1826
59258 397113 414977 -14278 7773 1823
59010 397033 414946 -14265 7755 1817
58846 397007 414921 -14278 7767 1808
58753 397002 414922 -14295 7775 1807
58706 397022 414926 -14314 7775 1806
58704 397061 414939 -14332 7769 1816
58763 397134 414985 -14332 7769 1841
58864 397230 415010 -14338 7782 1844
58951 397263 415035 -14350 7792 1820
58994 397268 415036 -14349 7787 1817
58991 397243 415013 -14295 7740 1846
58954 397216 415003 -14316 7755 1831
58908 397182 414992 -14330 7757 1817
58877 397174 414993 -14322 7762 1810
58867 397180 414987 -14322 7772 1817
58894 397203 415021 -14331 7774 1824
58940 397246 415039 -14343 7778 1816
59004 397307 415055 -14356 7787 1822
59087 397350 415081 -14347 7786 1831
59188 397423 415114 -14349 7787 1817
59296 397490 415156 -14295 7740 1846
59417 397553 415189 -14316 7755 1831
59548 397625 415231 -14330 7757 1817
59684 397711 415264 -14322 7762 1810
59820 397776 415302 -14322 7772 1817
59954 397856 415338 -14331 7774 1824
60093 397933 415372 -14343 7778 1816
60231 398006 415422 -14356 7787 1822
60367 398072 415451 -14347 7786 1831
60504 398142 415480 -14276 7755 1852
60640 398204 415520 -14300 7771 1830
60774 398276 415527 -14325 7780 1820
60900 398335 415563 -14321 7791 1819
60982 398333 415587 -14319 7795 1822
60900 398185 415514 -14318 7796 1832
60633 397928 415398 -14310 7796 1828
60242 397656 415266 -14302 7803 1808
59834 397451 415174 -14323 7816 1811
59486 397313 415097 -14335 7797 1832
59234 397232 415063 -14308 7776 1836
59065 397207 415035 -14291 7779 1828
58972 397206 415036 -14290 7784 1822
58923 397214 415043 -14313 7806 1811
58914 397232 415049 -14340 7828 1803
58964 397322 415074 -14356 7836 1813
59063 397390 415116 -14363 7837 1822
59156 397429 415138 -14354 7834 1823
59208 397446 415130 -14331 7830 1821
59220 397428 415118 -14301 7815 1816
59201 397409 415117 -14266 7777 1827
59166 397382 415099 -14252 7759 1844
59138 397376 415095 -14272 7779 1844
59131 397381 415112 -14312 7785 1847
59152 397404 415107 -14332 7788 1855
59193 397447 415125 -14338 7798 1846
59259 397493 415151 -14348 7804 1825
59336 397537 415180 -14339 7805 1824
59429 397595 415208 -14330 7796 1823
59541 397670 415231 -14321 7788 1816
59662 397718 415260 -14299 7765 1812
59790 397790 415270 -14298 7751 1788
59918 397843 415285 -14321 7767 1788
60053 397902 415292 -14327 7782 1800
60183 397967 415324 -14332 7788 1797
60313 398031 415332 -14350 7788 1796
60444 398074 415356 -14357 7783 1800
60568 398126 415379 -14349 7779 1795
60696 398170 415379 -14331 7771 1791
60816 398218 415400 -14315 7772 1806
60944 398256 415403 -14286 7745 1839
61060 398284 415401 -14314 7760 1825
61175 398323 415395 -14339 7775 1825
61279 398353 415376 -14335 7793 1823
61302 398286 415320 -14322 7807 1820
61142 398050 415205 -14321 7807 1811
60800 397763 415058 -14335 7806 1817
60348 397460 414884 -14336 7804 1826
59898 397195 414724 -14340 7796 1816
59521 397014 414624 -14292 7756 1861
59241 396926 414565 -14280 7754 1853
59034 396881 414538 -14285 7763 1832
58886 396857 414505 -14312 7779 1819
58779 396817 414467 -14354 7787 1820
58723 396824 414456 -14388 7798 1836
58731 396888 414502 -14411 7813 1834
58811 397017 414625 -14388 7820 1813
58891 397119 414691 -14340 7811 1809
58942 397175 414760 -14315 7768 1818
58949 397189 414810 -14291 7713 1814
58926 397178 414820 -14282 7698 1790
58884 397171 414837 -14311 7719 1754
58850 397188 414881 -14325 7739 1737
58823 397183 414889 -14286 7743 1753
58819 397211 414907 -14303 7752 1779
58849 397211 414903 -14382 7762 1784
58902 397258 414927 -14401 7775 1782
58980 397314 414947 -14355 7788 1789
59072 397368 414971 -14323 7791 1796
59179 397404 414946 -14307 7766 1816
59302 397446 414963 -14303 7735 1820
59438 397542 414997 -14322 7746 1800
59584 397632 415038 -14328 7771 1789
59734 397704 415077 -14339 7786 1799
59872 397782 415105 -14371 7791 1811
60003 397825 415130 -14391 7792 1816
60128 397898 415159 -14383 7802 1808
60258 397946 415217 -14361 7799 1812
60397 398032 415263 -14367 7777 1832
60538 398093 415297 -14321 7722 1868
60669 398175 415340 -14328 7735 1856
60791 398221 415369 -14328 7743 1860
60828 398180 415352 -14333 7743 1857
60682 397992 415278 -14360 7745 1848
60348 397725 415186 -14382 7758 1844
59917 397472 415081 -14386 7769 1837
59496 397280 414991 -14363 7767 1829
59134 397135 414936 -14341 7769 1816
58863 397054 414907 -14272 7757 1817
58676 397014 414880 -14313 7780 1792
58551 397007 414870 -14339 7789 1788
58475 397014 414876 -14337 7802 1784
58431 397024 414890 -14339 7819 1759
58428 397052 414899 -14334 7810 1754
58490 397127 414924 -14315 7787 1783
58561 397167 414929 -14301 7777 1799
58617 397181 414941 -14307 7770 1792
58630 397169 414948 -14307 7763 1802
58616 397138 414928 -14293 7761 1822
58587 397123 414914 -14316 7768 1828
62477 398834 415736 -14279 7707 2540
62094 398531 415626 -14300 7716 2563
61662 398239 415508 -14317 7693 2615
61279 398048 415434 -14316 7653 2685
60984 397929 415371 -14288 7609 2750
60777 397864 415333 -14271 7591 2782
60654 397833 415327 -14294 7598 2785
60594 397855 415313 -14317 7614 2796
60589 397880 415315 -14258 7614 2765
60631 397955 415351 -14214 7639 2738
60738 398047 415397 -14181 7667 2717
60849 398112 415424 -14168 7690 2699
60934 398151 415424 -14153 7706 2701
60968 398160 415418 -14143 7718 2723
60963 398120 415424 -14147 7726 2738
60932 398104 415423 -14155 7736 2739
60896 398069 415428 -14174 7754 2741
60879 398056 415420 -14241 7731 2720
60882 398068 415435 -14250 7734 2747
60913 398102 415446 -14253 7732 2770
60964 398137 415465 -14249 7724 2754
61036 398195 415485 -14239 7722 2731
61131 398259 415531 -14243 7724 2720
61238 398335 415561 -14260 7724 2714
61358 398400 415597 -14277 7721 2701
61481 398481 415637 -14297 7718 2683
61610 398544 415661 -14298 7698 2661
61743 398626 415703 -14280 7661 2634
61877 398704 415727 -14283 7645 2619
62026 398790 415769 -14293 7639 2604
62170 398858 415801 -14291 7616 2587
62322 398934 415819 -14290 7586 2571
62459 398998 415858 -14296 7557 2567
62543 399002 415868 -14318 7530 2581
62455 398838 415805 -14355 7512 2585
62161 398558 415694 -14390 7504 2586
61739 398256 415585 -14382 7491 2591
61310 398009 415467 -14335 7458 2564
60954 397834 415390 -14316 7434 2527
60682 397731 415329 -14348 7446 2509
60501 397671 415314 -14400 7475 2505
60397 397669 415299 -14433 7497 2527
60344 397679 415301 -14441 7504 2567
60334 397711 415306 -14448 7505 2602
60385 397765 415317 -14436 7493 2615
60484 397851 415348 -14413 7481 2620
60589 397897 415372 -14399 7469 2625
60655 397928 415369 -14327 7453 2617
60677 397915 415371 -14348 7472 2645
60655 397885 415373 -14353 7485 2660
60623 397863 415363 -14364 7498 2663
60589 397844 415347 -14396 7518 2670
60579 397822 415343 -14414 7530 2671
60591 397853 415339 -14426 7519 2666
60633 397889 415344 -14419 7512 2655
60692 397916 415371 -14403 7505 2640
60774 397965 415384 -14394 7468 2612
60874 398020 415431 -14389 7435 2586
60985 398099 415452 -14407 7420 2590
61103 398170 415481 -14425 7411 2617
62440 398759 415740 -14426 7424 2595
62186 398461 415629 -14446 7407 2600
61766 398119 415477 -14474 7376 2638
61283 397807 415342 -14489 7334 2666
60840 397576 415232 -14495 7308 2675
60487 397425 415160 -14500 7299 2679
60224 397330 415094 -14515 7287 2667
60049 397279 415049 -14500 7274 2649
59942 397251 415039 -14476 7286 2652
59881 397259 415032 -14465 7295 2665
59869 397263 415021 -14455 7283 2669
59914 397323 415041 -14457 7267 2675
59994 397389 415046 -14470 7252 2700
60059 397422 415064 -14452 7248 2747
60087 397421 415059 -14459 7246 2779
60073 397386 415042 -14514 7242 2806
60035 397329 415020 -14537 7237 2852
59986 397297 415012 -14507 7234 2817
59953 397291 415014 -14551 7239 2831
59939 397292 414998 -14561 7251 2851
59959 397296 415014 -14549 7261 2859
59998 397333 415032 -14535 7270 2857
60067 397378 415046 -14527 7271 2835
60154 397419 415055 -14521 7259 2812
60251 397494 415075 -14513 7248 2795
60369 397577 415101 -14503 7242 2794
60500 397636 415131 -14478 7207 2801
60631 397721 415174 -14499 7202 2819
60774 397802 415206 -14511 7208 2824
60919 397881 415241 -14504 7228 2813
61903 398116 415374 -14476 7332 2800
61483 397777 415245 -14460 7337 2808
60995 397459 415104 -14455 7339 2807
60550 397232 414992 -14468 7346 2792
60187 397095 414931 -14463 7358 2772
59927 397014 414891 -14437 7357 2760
59751 396968 414865 -14428 7350 2756
59643 396950 414861 -14441 7344 2752
59588 396964 414864 -14444 7346 2742
59568 396987 414873 -14424 7349 2735
59604 397055 414887 -14389 7342 2731
59678 397114 414912 -14389 7339 2721
59740 397157 414929 -14422 7351 2730
59769 397154 414935 -14438 7369 2763
59759 397124 414914 -14437 7387 2772
59716 397077 414888 -14396 7393 2716
59664 397056 414890 -14415 7410 2706
59621 397038 414886 -14421 7425 2697
59602 397045 414873 -14423 7423 2675
59612 397059 414887 -14414 7426 2646
59650 397101 414908 -14412 7434 2630
59714 397142 414935 -14433 7429 2625
59801 397196 414959 -14462 7424 2627
59901 397272 414988 -14470 7413 2643
60010 397332 415013 -14422 7380 2624
60136 397417 415050 -14441 7375 2636
60267 397472 415074 -14455 7369 2667
60403 397550 415107 -14458 7366 2682
60543 397620 415153 -14450 7367 2676
60683 397699 415187 -14431 7368 2674
60822 397770 415213 -14423 7374 2662
60962 397836 415259 -14428 7387 2646
61094 397893 415277 -14428 7395 2645
61227 397958 415308 -14408 7402 2651
61355 398023 415344 -14392 7406 2653
61483 398068 415354 -14404 7410 2660
61614 398149 415370 -14434 7419 2667
61743 398213 415406 -14458 7420 2665
61847 398235 415425 -14450 7406 2668
61813 398118 415371 -14405 7383 2690
59764 397134 414925 -14409 7397 2708
59866 397176 414940 -14424 7391 2708
59937 397223 414980 -14426 7384 2732
59968 397215 414959 -14414 7369 2699
59952 397186 414955 -14425 7380 2692
59915 397150 414948 -14441 7398 2686
59875 397137 414925 -14447 7417 2675
59845 397118 414918 -14444 7417 2669
59850 397121 414927 -14438 7411 2663
59879 397154 414943 -14424 7423 2669
59930 397197 414943 -14417 7440 2679
60003 397261 414985 -14431 7452 2679
60101 397321 415009 -14434 7442 2675
60209 397388 415032 -14395 7422 2669
60332 397471 415082 -14387 7415 2667
60458 397529 415119 -14418 7416 2673
60597 397617 415151 -14431 7407 2675
60743 397704 415195 -14428 7397 2672
60885 397771 415241 -14434 7397 2674
61026 397855 415270 -14444 7401 2678
61169 397915 415297 -14445 7396 2677
61307 397998 415335 -14440 7391 2672
61442 398064 415363 -14417 7399 2665
61571 398116 415391 -14381 7398 2667
61707 398200 415428 -14386 7395 2686
61840 398267 415450 -14436 7404 2705
61974 398329 415494 -14468 7414 2710
62061 398339 415515 -14453 7405 2706
61989 398193 415452 -14417 7391 2714
61709 397929 415361 -14426 7394 2712
61294 397649 415266 -14470 7398 2697
60865 397413 415163 -14488 7398 2703
60493 397253 415092 -14478 7396 2712
60206 397152 415055 -14408 7387 2666
60013 397117 415035 -14402 7378 2665
59884 397079 415003 -14409 7373 2678
59812 397065 414991 -14408 7368 2681
59778 397047 414957 -14400 7362 2688
59787 397065 414931 -14406 7376 2693
59857 397098 414957 -14416 7387 2698
59939 397148 414939 -14413 7391 2723
59987 397130 414913 -14433 7392 2749
59974 397037 414799 -14410 7342 2779
59905 396877 414641 -14412 7337 2808
59814 396724 414496 -14446 7363 2784
59722 396588 414347 -14449 7393 2753
59652 396516 414271 -14455 7411 2749
59605 396471 414201 -14464 7428 2749
59601 396485 414197 -14451 7410 2743
59629 396520 414242 -14440 7373 2762
59703 396637 414336 -14434 7349 2810
59806 396800 414473 -14417 7338 2804
59935 396961 414585 -14388 7335 2760
60072 397102 414693 -14380 7331 2765
60217 397226 414784 -14406 7328 2799
60360 397299 414822 -14448 7357 2785
60506 397377 414864 -14484 7393 2728
60646 397482 414944 -14502 7364 2745
60800 397654 415115 -14489 7303 2836
60939 397764 415219 -14467 7289 2853
61056 397843 415287 -14440 7323 2771
61171 397939 415353 -14414 7362 2679
61289 398032 415441 -14404 7366 2649
61410 398131 415519 -14425 7336 2670
61536 398215 415550 -14463 7323 2683
61665 398289 415595 -14505 7331 2695
61790 398329 415588 -14517 7331 2719
61893 398337 415561 -14489 7325 2746
61910 398264 415532 -14474 7324 2758
61735 398053 415446 -14482 7335 2749
61401 397783 415353 -14493 7343 2742
60995 397557 415285 -14495 7339 2732
60579 397317 415191 -14407 7331 2632
60183 397132 415082 -14421 7340 2590
59841 396968 414978 -14424 7336 2572
59574 396843 414895 -14421 7317 2593
59403 396819 414876 -14428 7288 2648
59302 396826 414872 -14453 7289 2696
59257 396829 414866 -14487 7317 2708
59259 396854 414872 -14486 7335 2709
59319 396912 414879 -14458 7349 2690
59383 396942 414867 -14440 7347 2672
59423 396952 414866 -14452 7343 2697
59428 396924 414838 -14466 7348 2698
59386 396865 414809 -14456 7369 2668
59328 396814 414778 -14432 7393 2647
59277 396785 414744 -14435 7397 2628
59249 396765 414712 -14450 7389 2625
59250 396770 414719 -14448 7382 2646
59277 396788 414706 -14453 7379 2660
59326 396824 414720 -14414 7360 2682
59405 396877 414742 -14421 7345 2687
59498 396945 414753 -14445 7342 2714
59605 397017 414803 -14450 7346 2725
59726 397096 414848 -14434 7365 2717
59855 397190 414897 -14435 7380 2711
59987 397273 414941 -14447 7376 2699
60118 397349 414987 -14448 7372 2695
60250 397420 415031 -14435 7382 2693
60387 397512 415099 -14414 7393 2691
60531 397621 415171 -14403 7382 2699
60680 397720 415222 -14434 7374 2728
60818 397790 415250 -14471 7368 2769
60941 397846 415301 -14475 7373 2761
61019 397850 415306 -14489 7396 2727
60936 397718 415275 -14505 7418 2710
60672 397480 415174 -14504 7431 2695
60269 397188 415078 -14499 7432 2677
59843 396978 414990 -14485 7427 2655
59467 396806 414917 -14460 7415 2614
59175 396704 414873 -14406 7395 2568
58967 396655 414847 -14363 7392 2545
58826 396642 414822 -14362 7403 2532
58743 396638 414839 -14386 7418 2530
58700 396647 414846 -14406 7422 2551
58713 396677 414848 -14407 7414 2553
58786 396777 414902 -14432 7423 2544
58868 396823 414933 -14465 7428 2539
58935 396864 414946 -14471 7437 2541
58963 396842 414930 -14468 7447 2553
58962 396809 414920 -14406 7395 2568
58938 396778 414928 -14363 7392 2545
58912 396772 414924 -14362 7403 2532
58904 396794 414925 -14386 7418 2530
58915 396807 414936 -14406 7422 2551
58954 396832 414952 -14407 7414 2553
59016 396873 414975 -14432 7423 2544
59097 396927 414995 -14465 7428 2539
59197 396993 415019 -14471 7437 2541
59312 397070 415050 -14468 7447 2553
59439 397139 415082 -14403 7440 2542
59575 397212 415111 -14408 7431 2539
59713 397285 415145 -14424 7436 2536
59855 397353 415192 -14414 7449 2549
59997 397430 415218 -14411 7458 2562
60137 397499 415247 -14421 7460 2587
60282 397572 415278 -14423 7466 2608
60425 397649 415305 -14432 7458 2625
60574 397719 415350 -14428 7449 2646
60714 397782 415383 -14406 7445 2648
60843 397827 415386 -14394 7442 2652
60903 397800 415398 -14395 7446 2648
60788 397615 415314 -14396 7447 2635
60481 397338 415204 -14404 7440 2634
60048 397045 415086 -14408 7439 2646
59604 396815 414975 -14397 7442 2643
59231 396664 414900 -14407 7433 2638
58938 396560 414867 -14424 7420 2655
58730 396500 414842 -14419 7404 2678
58588 396459 414812 -14403 7387 2687
58503 396461 414796 -14391 7392 2674
58461 396472 414799 -14426 7404 2670
58473 396512 414807 -14466 7412 2692
58544 396588 414843 -14458 7422 2710
58626 396626 414858 -14455 7426 2708
58688 396645 414861 -14464 7414 2694
58713 396633 414862 -14458 7398 2677
58701 396616 414855 -14435 7383 2659
58675 396602 414845 -14414 7369 2653
58652 396580 414843 -14404 7369 2642
58638 396579 414838 -14400 7362 2622
58650 396583 414843 -14405 7360 2632
58686 396617 414855 -14418 7381 2651
58749 396652 414872 -14443 7403 2650
58835 396712 414906 -14465 7422 2647
58937 396780 414929 -14461 7428 2637
59054 396845 414974 -14450 7437 2607
59181 396905 414992 -14429 7455 2578
59317 396979 415044 -14407 7449 2575
59456 397070 415069 -14411 7434 2599
59600 397145 415100 -14399 7436 2613
59744 397196 415125 -14408 7441 2652
59894 397278 415155 -14430 7435 2673
60035 397345 415190 -14444 7429 2684
60172 397384 415216 -14435 7422 2689
60304 397468 415246 -14431 7421 2688
60443 397533 415273 -14428 7430 2666
60582 397596 415303 -14412 7438 2629
60721 397661 415332 -14400 7438 2607
60855 397712 415357 -14358 7420 2599
60961 397754 415381 -14364 7417 2621
60941 397641 415337 -14388 7412 2639
60724 397408 415251 -14412 7416 2651
60354 397113 415122 -14424 7425 2655
59933 396868 415033 -14443 7433 2648
59554 396708 414950 -14446 7423 2665
59257 396591 414892 -14429 7401 2672
59052 396532 414858 -14415 7393 2661
58920 396503 414849 -14409 7398 2644
58846 396504 414837 -14418 7408 2623
58813 396525 414848 -14446 7423 2628
58824 396571 414849 -14479 7436 2648
58895 396641 414878 -14482 7437 2657
58977 396699 414915 -14457 7434 2660
59033 396726 414920 -14438 7417 2648
59046 396700 414902 -14435 7384 2633
59023 396680 414896 -14425 7368 2642
58981 396656 414886 -14419 7373 2641
58935 396606 414871 -14430 7373 2623
58908 396593 414854 -14412 7354 2622
58903 396612 414867 -14408 7344 2633
58926 396650 414881 -14447 7358 2644
58972 396684 414895 -14462 7379 2643
59039 396709 414928 -14454 7392 2653
59122 396778 414939 -14448 7399 2659
59216 396837 414967 -14441 7403 2647
59328 396898 414991 -14427 7396 2635
59450 396968 415022 -14420 7382 2640
59576 397027 415043 -14428 7385 2652
59707 397085 415078 -14414 7394 2618
59840 397169 415111 -14448 7421 2613
59976 397232 415130 -14467 7420 2617
60109 397294 415157 -14454 7408 2646
60242 397353 415194 -14423 7400 2664
60369 397409 415226 -14411 7390 2661
60497 397474 415252 -14421 7381 2670
60629 397553 415290 -14433 7376 2682
60759 397615 415313 -14445 7375 2695
60881 397661 415333 -14430 7347 2697
60961 397670 415353 -14458 7344 2723
60889 397528 415285 -14471 7339 2726
60643 397291 415183 -14484 7343 2723
60278 397025 415095 -14486 7344 2731
59893 396827 415008 -14465 7330 2738
59567 396697 414956 -14443 7313 2735
59320 396605 414909 -14432 7319 2720
59167 396575 414895 -14460 7348 2697
59074 396578 414886 -14473 7363 2681
59031 396576 414882 -14469 7366 2680
59028 396610 414890 -14458 7375 2681
59095 396686 414923 -14442 7385 2667
59196 396775 414964 -14430 7372 2654
59281 396818 414966 -14420 7359 2658
59324 396826 414986 -14412 7366 2673
59328 396815 414975 -14436 7373 2688
59301 396764 414969 -14452 7366 2700
59271 396754 414960 -14432 7364 2716
59243 396746 414957 -14429 7374 2701
59242 396756 414972 -14450 7385 2682
59269 396778 414980 -14461 7396 2686
59318 396814 414997 -14453 7395 2683
59385 396860 414997 -14437 7394 2667
59470 396904 415023 -14424 7395 2639
59569 396960 415066 -14419 7396 2636
59679 397033 415084 -14408 7408 2653
59794 397093 415101 -14408 7416 2657
59919 397138 415116 -14441 7415 2660
60045 397215 415139 -14439 7410 2667
60184 397278 415162 -14407 7411 2688
60319 397346 415203 -14401 7416 2705
60457 397422 415238 -14402 7418 2701
60590 397486 415260 -14401 7415 2702
60716 397544 415302 -14407 7410 2713
60841 397601 415320 -14426 7398 2733
60966 397664 415340 -14439 7382 2745
61091 397720 415366 -14449 7370 2746
61222 397785 415385 -14463 7370 2751
61342 397846 415438 -14429 7355 2702
61442 397878 415450 -14438 7371 2699
61421 397779 415410 -14456 7389 2695
61200 397551 415310 -14482 7396 2684
60827 397260 415222 -14474 7388 2687
60387 397008 415102 -14438 7364 2692
59982 396819 415022 -14413 7345 2698
59651 396702 414972 -14425 7351 2698
59411 396638 414940 -14463 7369 2689
59249 396607 414918 -14462 7373 2686
59147 396600 414912 -14465 7378 2691
59089 396612 414896 -14466 7381 2691
59069 396630 414899 -14449 7368 2676
59106 396675 414922 -14435 7347 2671
59169 396745 414944 -14431 7347 2691
59222 396769 414953 -14430 7348 2710
59229 396746 414929 -14448 7349 2737
59204 396714 414911 -14467 7346 2752
59150 396675 414891 -14447 7344 2736
59096 396647 414891 -14430 7352 2696
59055 396643 414865 -14438 7372 2680
59047 396640 414865 -14442 7396 2698
59060 396663 414874 -14445 7399 2700
59100 396704 414888 -14441 7402 2692
59164 396756 414923 -14423 7401 2687
59243 396814 414960 -14419 7397 2699
59335 396888 414989 -14427 7402 2722
59439 396948 415008 -14432 7402 2732
59558 397010 415034 -14439 7388 2725
59682 397070 415073 -14426 7378 2704
59806 397148 415091 -14414 7379 2704
59938 397212 415123 -14428 7381 2715
60069 397286 415185 -14438 7393 2716
60196 397350 415196 -14437 7383 2721
60320 397411 415226 -14426 7367 2722
60444 397467 415252 -14426 7367 2719
60565 397509 415275 -14422 7369 2706
60691 397576 415279 -14427 7373 2692
60822 397624 415308 -14439 7376 2687
60947 397665 415327 -14405 7365 2686
61055 397706 415350 -14431 7380 2698
61086 397644 415331 -14459 7389 2686
60931 397419 415209 -14459 7393 2683
60607 397150 415101 -14428 7382 2695
60189 396867 414944 -14401 7372 2702
59761 396583 414743 -14406 7390 2683
59378 396314 414502 -14426 7414 2656
59085 396133 414355 -14434 7416 2675
58870 395994 414225 -14415 7390 2698
58710 395811 414007 -14409 7368 2715
58579 395634 413786 -14428 7349 2759
58488 395484 413580 -14453 7390 2735
58478 395491 413594 -14450 7427 2639
58541 395625 413680 -14413 7436 2546
58583 395643 413681 -14388 7419 2544
58597 395621 413633 -14435 7321 2699
58588 395582 413602 -14443 7267 2808
58561 395576 413594 -14398 7329 2720
58531 395622 413651 -14351 7403 2600
58505 395639 413696 -14347 7430 2592
58496 395670 413710 -14415 7410 2651
58511 395684 413742 -14471 7357 2709
58537 395732 413781 -14493 7320 2737
58600 395847 413905 -14515 7306 2743
58677 395946 414005 -14528 7284 2771
58770 396031 414059 -14542 7264 2826
58874 396086 414094 -14545 7272 2859
58992 396179 414156 -14503 7296 2829
59126 396299 414259 -14453 7322 2759
59275 396419 414338 -14439 7348 2707
59423 396520 414387 -14463 7340 2722
59577 396602 414439 -14498 7325 2754
59733 396703 414501 -14496 7321 2756
59886 396789 414552 -14463 7338 2732
60045 396915 414645 -14456 7364 2710
60195 396999 414703 -14468 7359 2722
60328 397067 414744 -14479 7340 2739
60442 397118 414780 -14478 7322 2742
60535 397158 414814 -14450 7312 2748
60511 397078 414818 -14436 7322 2758
60298 396861 414737 -14456 7322 2756
59935 396601 414634 -14466 7307 2758
59510 396351 414530 -14462 7301 2751
59112 396164 414443 -14477 7307 2735
58797 396031 414358 -14505 7316 2727
58562 395973 414319 -14503 7334 2719
58397 395910 414271 -14488 7349 2709
58289 395878 414251 -14480 7343 2691
58219 395862 414221 -14421 7303 2684
58188 395853 414188 -14418 7283 2695
58206 395886 414169 -14422 7295 2699
58265 395907 414162 -14423 7327 2676
58316 395921 414165 -14441 7343 2676
58337 395917 414163 -14457 7342 2704
58327 395897 414158 -14458 7350 2711
58299 395872 414167 -14471 7360 2697
58268 395867 414179 -14472 7364 2686
58249 395881 414183 -14403 7366 2659
58255 395897 414191 -14397 7371 2663
58292 395944 414218 -14429 7373 2683
58352 396002 414263 -14455 7365 2702
58436 396067 414308 -14452 7348 2720
58530 396133 414355 -14449 7338 2738
58640 396212 414388 -14457 7331 2764
58767 396289 414418 -14482 7321 2783
58904 396366 414451 -14490 7320 2794
59043 396451 414515 -14468 7318 2807
59184 396548 414571 -14441 7308 2807
59327 396644 414612 -14432 7309 2811
59477 396710 414657 -14442 7315 2825
59629 396789 414700 -14459 7313 2833
59778 396863 414736 -14460 7318 2825
59923 396929 414781 -14455 7345 2811
60057 397010 414832 -14463 7364 2814
60109 396991 414837 -14461 7365 2818
59998 396832 414792 -14453 7348 2824
59714 396598 414708 -14440 7333 2821
59329 396366 414611 -14404 7331 2786
58941 396187 414539 -14412 7341 2764
58614 396063 414483 -14462 7346 2785
58376 395991 414462 -14488 7337 2805
58216 395965 414431 -14495 7328 2810
58111 395950 414420 -14497 7319 2806
