2025-10-09 01:37:20    绿光---红外光---红光---X轴---Y轴---Z轴
61361 396690 413046 -14547 6734 3547
61499 396770 413062 -14530 6757 3537
61639 396853 413103 -14500 6772 3533
61781 396927 413147 -14501 6759 3541
61923 397010 413192 -14528 6741 3536
62068 397103 413225 -14534 6738 3525
62207 397156 413245 -14523 6730 3533
62311 397187 413281 -14510 6717 3548
62287 397072 413224 -14521 6728 3541
62078 396847 413137 -14546 6742 3522
61728 396564 413044 -14558 6745 3521
61340 396336 412946 -14556 6759 3525
60993 396170 412876 -14535 6774 3502
60718 396063 412831 -14529 6765 3473
60527 395994 412782 -14526 6743 3468
60405 396004 412779 -14510 6724 3480
60337 396031 412805 -14497 6714 3496
60309 396061 412812 -14488 6715 3487
60319 396098 412827 -14494 6731 3466
60386 396175 412858 -14510 6753 3465
60466 396236 412868 -14516 6772 3483
60526 396268 412869 -14528 6785 3505
60555 396293 412888 -14528 6809 3511
60543 396258 412901 -14534 6819 3513
60518 396253 412900 -14557 6809 3513
60488 396243 412883 -14554 6811 3501
60474 396252 412892 -14531 6809 3483
60480 396269 412913 -14523 6795 3470
60512 396311 412930 -14516 6785 3465
60558 396366 412949 -14507 6795 3465
60623 396407 412974 -14513 6797 3463
60708 396475 413000 -14521 6788 3456
60809 396536 413035 -14495 6818 3446
60915 396609 413080 -14509 6812 3456
61036 396689 413114 -14509 6814 3469
61160 396767 413175 -14508 6808 3474
61288 396856 413207 -14517 6801 3471
61416 396951 413267 -14523 6808 3459
61553 397031 413319 -14525 6818 3451
61688 397125 413372 -14515 6829 3457
61830 397204 413421 -14508 6830 3456
61971 397279 413479 -14496 6841 3416
62113 397383 413522 -14502 6814 3433
62258 397468 413586 -14494 6789 3443
62398 397551 413624 -14493 6787 3444
62510 397585 413654 -14536 6797 3441
62493 397490 413617 -14576 6794 3445
62304 397274 413535 -14578 6787 3459
61988 397044 413478 -14572 6786 3462
61643 396828 413378 -14557 6781 3454
61349 396695 413340 -14495 6791 3415
61124 396633 413307 -14486 6775 3407
60986 396620 413299 -14493 6754 3414
60918 396644 413317 -14511 6745 3424
60894 396682 413355 -14528 6728 3440
60914 396728 413368 -14534 6723 3452
60982 396830 413425 -14561 6744 3458
61093 396922 413455 -14572 6755 3453
61199 396984 413499 -14564 6755 3447
61267 397027 413516 -14548 6766 3438
61302 397020 413516 -14510 6789 3415
61307 397017 413536 -14514 6794 3398
61297 397019 413553 -14546 6776 3396
61289 397033 413552 -14547 6765 3403
61297 397033 413554 -14539 6767 3413
61327 397068 413573 -14542 6770 3424
61378 397108 413597 -14551 6766 3432
61444 397159 413629 -14552 6768 3443
61533 397231 413661 -14540 6770 3452
61632 397280 413688 -14518 6778 3447
61742 397354 413719 -14487 6798 3429
61856 397437 413765 -14486 6792 3434
61978 397495 413787 -14518 6775 3467
62105 397569 413812 -14536 6775 3492
62235 397645 413855 -14542 6774 3490
62370 397725 413888 -14549 6764 3487
62508 397798 413912 -14554 6767 3496
62638 397871 413958 -14552 6781 3499
62778 397941 413987 -14555 6787 3498
62912 398003 414025 -14553 6792 3499
63050 398090 414054 -14515 6798 3486
63190 398172 414094 -14465 6794 3473
63326 398223 414105 -14467 6792 3476
63415 398232 414123 -14508 6808 3474
63344 398064 414052 -14535 6805 3481
63080 397800 413953 -14558 6791 3492
62691 397503 413842 -14577 6791 3499
62286 397268 413737 -14564 6794 3497
61935 397090 413670 -14544 6778 3489
61659 396996 413619 -14537 6757 3486
61477 396946 413601 -14458 6757 3465
61362 396939 413580 -14462 6751 3461
61300 396988 413597 -14496 6740 3470
61277 396999 413610 -14508 6732 3482
61296 397035 413622 -14528 6728 3484
61368 397124 413672 -14551 6732 3489
61448 397187 413682 -14556 6729 3487
61505 397216 413689 -14555 6735 3477
61521 397205 413694 -14554 6752 3466
61507 397180 413682 -14533 6763 3454
61478 397165 413678 -14491 6787 3448
61446 397157 413664 -14488 6794 3452
61432 397149 413661 -14519 6779 3462
61436 397179 413658 -14526 6781 3476
61465 397200 413689 -14525 6787 3480
61519 397255 413711 -14533 6789 3476
61593 397300 413736 -14535 6796 3482
61680 397361 413770 -14526 6797 3490
61781 397428 413791 -14511 6794 3493
61887 397487 413833 -14503 6806 3493
62001 397556 413855 -14469 6825 3479
62127 397642 413904 -14455 6832 3478
62246 397700 413931 -14485 6824 3499
62377 397777 413962 -14500 6812 3510
62511 397859 414008 -14505 6801 3515
62643 397933 414038 -14516 6774 3523
62771 398000 414058 -14528 6752 3533
62903 398080 414108 -14528 6745 3530
63036 398147 414144 -14545 6744 3514
63168 398215 414182 -14556 6758 3508
63300 398281 414214 -14469 6825 3479
63434 398348 414239 -14455 6832 3478
63563 398415 414292 -14485 6824 3499
63635 398415 414290 -14500 6812 3510
63533 398250 414207 -14505 6801 3515
63244 397973 414111 -14516 6774 3523
62845 397670 414001 -14528 6752 3533
62433 397424 413882 -14528 6745 3530
62084 397257 413816 -14545 6744 3514
61811 397164 413772 -14556 6758 3508
61621 397115 413743 -14463 6803 3514
61495 397090 413756 -14481 6791 3500
61425 397112 413753 -14523 6806 3487
61387 397118 413748 -14548 6820 3489
61393 397166 413762 -14550 6820 3495
61451 397239 413802 -14545 6827 3490
61516 397279 413808 -14537 6826 3483
61555 397302 413827 -14525 6806 3476
61566 397305 413826 -14512 6782 3463
61543 397296 413809 -14484 6781 3452
61508 397242 413796 -14468 6791 3460
61475 397237 413781 -14495 6782 3473
61454 397227 413770 -14516 6775 3475
61454 397225 413777 -14509 6782 3483
61480 397258 413784 -14517 6792 3483
61523 397289 413794 -14537 6804 3467
61583 397340 413818 -14537 6816 3454
61652 397383 413827 -14527 6816 3451
61738 397429 413834 -14521 6815 3452
61837 397491 413853 -14513 6817 3444
61944 397567 413897 -14484 6830 3423
62056 397624 413920 -14470 6837 3418
62174 397695 413959 -14477 6827 3437
62300 397795 414000 -14487 6817 3464
62424 397855 414053 -14497 6814 3478
62555 397933 414075 -14500 6818 3477
62682 398002 414123 -14492 6819 3480
62807 398075 414148 -14486 6822 3495
62933 398129 414164 -14496 6840 3495
63055 398175 414188 -14483 6855 3472
63182 398246 414198 -14454 6876 3453
63302 398317 414233 -14470 6899 3450
63432 398372 414241 -14485 6910 3449
63558 398414 414280 -14473 6910 3442
63660 398459 414294 -14471 6889 3441
63649 398384 414272 -14490 6859 3444
63440 398118 414165 -14509 6845 3455
63069 397811 414045 -14521 6848 3479
62638 397525 413906 -14543 6838 3515
62240 397310 413830 -14565 6831 3543
61912 397166 413754 -14509 6846 3549
61674 397085 413695 -14454 6795 3546
61511 397042 413684 -14415 6771 3506
61406 397022 413673 -14461 6801 3436
61343 397031 413651 -14537 6834 3382
61311 397043 413656 -14559 6856 3353
61326 397108 413673 -14554 6867 3335
61380 397174 413706 -14535 6881 3327
61428 397183 413700 -14523 6891 3328
61449 397197 413703 -14471 6888 3338
61439 397194 413707 -14481 6853 3377
61406 397157 413695 -14496 6826 3425
61364 397121 413685 -14505 6806 3457
61330 397114 413678 -14501 6788 3467
61319 397105 413677 -14493 6782 3477
61329 397137 413685 -14517 6767 3489
61357 397167 413689 -14553 6747 3508
61405 397200 413706 -14565 6748 3525
61477 397253 413722 -14515 6795 3524
61562 397307 413735 -14517 6802 3510
61656 397362 413750 -14520 6794 3499
61754 397410 413777 -14516 6803 3491
61866 397489 413804 -14511 6822 3486
61988 397551 413830 -14508 6827 3481
62111 397630 413852 -14502 6827 3480
62240 397689 413872 -14499 6829 3476
62368 397759 413908 -14499 6818 3483
62497 397830 413932 -14479 6815 3500
62631 397878 413952 -14452 6831 3504
62759 397931 413993 -14458 6828 3508
62890 398002 414012 -14487 6827 3518
63017 398071 414033 -14494 6838 3516
63146 398119 414060 -14495 6846 3509
63275 398189 414078 -14507 6847 3502
63405 398249 414120 -14514 6855 3500
63536 398323 414141 -14508 6865 3495
63671 398388 414163 -14506 6871 3492
63798 398458 414171 -14498 6879 3497
63891 398457 414196 -14459 6902 3489
63825 398306 414128 -14446 6905 3482
63567 398031 414015 -14459 6886 3477
63177 397715 413908 -14473 6886 3472
62760 397444 413788 -14485 6878 3470
62395 397266 413728 -14479 6845 3470
62107 397150 413664 -14462 6826 3474
61899 397095 413621 -14459 6830 3474
61769 397058 413615 -14484 6853 3469
61692 397075 413607 -14518 6877 3477
61650 397079 413612 -14481 6905 3474
61638 397096 413605 -14482 6909 3463
61671 397166 413634 -14491 6906 3466
61732 397205 413657 -14480 6893 3473
61783 397237 413653 -14463 6867 3472
61803 397218 413642 -14454 6850 3463
61787 397200 413620 -14457 6851 3454
61754 397155 413600 -14473 6862 3450
61712 397139 413606 -14467 6865 3462
61682 397127 413591 -14460 6881 3449
61682 397138 413595 -14488 6874 3454
61694 397161 413602 -14497 6873 3467
61726 397196 413607 -14500 6870 3475
61778 397235 413640 -14501 6860 3476
61842 397282 413650 -14509 6848 3472
61920 397357 413674 -14517 6826 3470
62013 397404 413687 -14507 6829 3475
62117 397456 413716 -14502 6842 3483
62223 397524 413733 -14502 6845 3479
62333 397582 413771 -14481 6855 3461
62449 397659 413785 -14473 6848 3456
62565 397722 413814 -14475 6841 3466
63486 397977 413942 -14525 6808 3504
63175 397712 413849 -14538 6801 3507
62810 397459 413751 -14521 6781 3505
62479 397290 413670 -14486 6765 3501
62226 397177 413621 -14474 6782 3491
62057 397137 413594 -14513 6797 3477
61963 397118 413582 -14539 6805 3473
61918 397147 413584 -14483 6855 3464
61910 397164 413596 -14491 6837 3454
61942 397234 413606 -14489 6826 3445
62033 397328 413646 -14483 6824 3437
62128 397401 413661 -14474 6810 3444
62206 397441 413677 -14463 6803 3463
62246 397439 413685 -14476 6809 3474
62250 397425 413684 -14494 6816 3485
62233 397406 413694 -14502 6816 3498
62215 397408 413696 -14510 6853 3470
62202 397396 413682 -14500 6852 3474
62205 397404 413689 -14508 6850 3474
62237 397437 413702 -14506 6849 3461
63247 398010 413851 -14495 6844 3424
63346 397997 413802 -14490 6831 3423
63439 397997 413753 -14485 6827 3419
63526 397998 413698 -14502 6837 3412
63610 398019 413682 -14515 6845 3409
63673 397987 413639 -14507 6857 3410
63732 397967 413562 -14481 6869 3407
63811 397929 413495 -14474 6858 3409
63912 397968 413473 -14494 6848 3418
63957 397899 413388 -14526 6853 3407
63846 397699 413250 -14562 6843 3430
63587 397409 413087 -14564 6809 3469
63235 397143 412967 -14524 6774 3482
62865 396955 412923 -14503 6755 3492
62545 396829 412913 -14543 6754 3486
62295 396797 412930 -14572 6772 3480
62122 396816 412997 -14514 6816 3478
62020 396901 413096 -14514 6800 3474
61975 396997 413207 -14500 6792 3475
61967 397057 413291 -14511 6771 3483
62009 397172 413364 -14524 6753 3488
62097 397288 413428 -14514 6755 3483
62153 397338 413471 -14506 6776 3467
62178 397342 413485 -14509 6784 3463
62172 397347 413506 -14510 6798 3461
62140 397337 413515 -14521 6884 3438
62099 397299 413519 -14556 6871 3431
62062 397287 413509 -14546 6875 3431
62057 397303 413515 -14531 6872 3419
62068 397331 413521 -14525 6869 3407
62102 397356 413543 -14538 6878 3407
62157 397410 413528 -14547 6882 3396
62224 397459 413572 -14529 6886 3383
62291 397522 413598 -14515 6885 3380
62369 397557 413624 -14491 6905 3343
62448 397600 413663 -14465 6887 3349
62526 397660 413684 -14462 6864 3366
62614 397725 413706 -14464 6833 3369
62715 397789 413747 -14490 6813 3372
62820 397844 413790 -14504 6818 3400
62188 397288 413666 -14555 6804 3477
61867 397153 413604 -14559 6817 3481
61626 397093 413563 -14549 6824 3480
61458 397045 413536 -14537 6822 3469
61346 397027 413520 -14503 6816 3451
61264 397019 413502 -14485 6795 3445
61217 397020 413498 -14499 6771 3454
61218 397055 413497 -14496 6756 3464
61254 397126 413524 -14504 6744 3474
61288 397153 413522 -14529 6738 3486
61296 397147 413523 -14540 6749 3498
61267 397122 413522 -14542 6773 3505
61219 397091 413504 -14553 6780 3503
61158 397061 413483 -14558 6786 3503
61112 397055 413485 -14478 6816 3504
61084 397045 413481 -14505 6799 3496
61079 397051 413464 -14527 6781 3493
61098 397077 413478 -14528 6780 3495
61135 397119 413488 -14519 6789 3503
61187 397161 413520 -14519 6792 3513
61258 397213 413528 -14522 6794 3512
61331 397242 413565 -14532 6796 3505
61419 397308 413577 -14531 6804 3512
61513 397367 413595 -14451 6815 3513
61611 397422 413627 -14456 6812 3518
61709 397471 413640 -14476 6806 3518
61817 397531 413662 -14488 6802 3522
61922 397571 413690 -14504 6807 3517
62035 397630 413712 -14525 6807 3510
62140 397696 413739 -14530 6799 3519
62226 397715 413747 -14523 6792 3529
62211 397634 413712 -14506 6780 3530
62018 397431 413629 -14485 6798 3515
61674 397151 413533 -14475 6823 3491
61268 396930 413433 -14487 6819 3489
60892 396761 413338 -14501 6808 3503
60583 396640 413288 -14510 6798 3510
60349 396573 413246 -14523 6791 3515
60179 396538 413214 -14529 6784 3518
60059 396504 413207 -14529 6771 3521
59978 396486 413199 -14516 6762 3525
59932 396488 413188 -14495 6762 3535
59927 396467 413110 -14482 6757 3541
59908 396240 412777 -14456 6762 3552
59853 395926 412397 -14460 6739 3577
59778 395642 412065 -14521 6670 3600
59680 395403 411755 -14540 6645 3589
59584 395174 411532 -14543 6654 3544
59496 395040 411395 -14576 6661 3503
59431 394975 411319 -14592 6679 3473
59398 394971 411319 -14570 6682 3453
59397 395016 411349 -14551 6681 3441
59426 395088 411425 -14558 6687 3426
59479 395191 411508 -14535 6731 3404
59559 395341 411643 -14552 6726 3423
59658 395511 411817 -14562 6718 3447
59774 395682 412000 -14560 6706 3475
59895 395846 412180 -14555 6699 3505
60028 396029 412322 -14550 6697 3527
60164 396186 412453 -14548 6709 3534
60294 396332 412589 -14554 6729 3529
60434 396460 412709 -14546 6747 3519
60572 396576 412811 -14491 6809 3500
60708 396714 412902 -14492 6800 3517
60840 396811 412988 -14498 6787 3524
60977 396893 413038 -14515 6794 3529
61114 396961 413061 -14526 6790 3538
61239 397015 413094 -14519 6769 3548
61337 397043 413126 -14495 6762 3563
61314 396950 413086 -14483 6774 3564
61108 396735 413000 -14505 6776 3559
60744 396465 412895 -14484 6821 3536
60331 396228 412798 -14477 6843 3526
59957 396049 412695 -14481 6847 3514
59660 395941 412647 -14482 6856 3498
59443 395869 412609 -14469 6872 3483
59288 395830 412560 -14457 6877 3479
59173 395755 412482 -14457 6876 3479
59088 395679 412386 -14472 6861 3489
59036 395615 412311 -14481 6833 3500
59043 395622 412274 -14460 6835 3509
59072 395625 412264 -14448 6855 3522
59091 395616 412236 -14475 6859 3535
59083 395606 412221 -14515 6857 3546
59051 395583 412215 -14526 6867 3546
59005 395558 412198 -14507 6876 3522
58972 395536 412187 -14483 6887 3483
58951 395543 412191 -14463 6913 3446
58948 395563 412213 -14443 6935 3421
58971 395592 412242 -14425 6934 3416
59018 395626 412239 -14421 6916 3430
59082 395693 412271 -14406 6911 3453
59161 395753 412312 -14402 6912 3485
59250 395802 412346 -14436 6895 3526
59355 395870 412384 -14460 6882 3555
59476 395945 412463 -14472 6886 3571
59604 396057 412543 -14479 6904 3577
59730 396168 412596 -14476 6922 3568
59860 396249 412684 -14471 6933 3556
59987 396340 412738 -14469 6941 3545
60114 396426 412784 -14461 6960 3529
60239 396489 412833 -14381 6990 3502
60368 396564 412879 -14398 6992 3521
60490 396635 412918 -14419 6999 3533
60614 396703 412961 -14438 6980 3548
60739 396770 413016 -14453 6949 3568
60871 396841 413036 -14444 6933 3571
61008 396911 413084 -14398 6922 3561
61141 396996 413129 -14367 6912 3548
61255 397047 413167 -14409 6928 3527
61256 396961 413146 -14454 6963 3496
61072 396763 413081 -14452 6981 3502
60743 396508 412984 -14445 6981 3503
60365 396312 412908 -14438 6971 3492
60038 396166 412846 -14440 6949 3493
59791 396086 412817 -14442 6929 3500
59628 396058 412801 -14434 6918 3503
59526 396047 412809 -14441 6913 3506
59474 396081 412818 -14446 6897 3511
59454 396112 412830 -14428 6896 3510
59477 396158 412866 -14409 6916 3506
59551 396247 412896 -14417 6907 3499
59625 396306 412927 -14440 6887 3504
59662 396301 412929 -14449 6884 3522
59663 396290 412931 -14460 6875 3523
59633 396259 412931 -14468 6863 3514
59596 396243 412927 -14474 6859 3515
59566 396242 412913 -14482 6863 3524
59556 396247 412916 -14484 6866 3531
59574 396274 412947 -14475 6882 3534
59617 396296 412960 -14453 6905 3520
59674 396345 412981 -14446 6909 3513
59751 396400 413015 -14455 6896 3518
59835 396466 413057 -14453 6878 3521
59922 396524 413072 -14448 6877 3522
60025 396577 413106 -14448 6878 3528
60137 396648 413138 -14444 6875 3535
60253 396715 413178 -14442 6868 3539
60371 396782 413214 -14449 6864 3549
60486 396847 413258 -14452 6867 3557
60609 396904 413274 -14453 6905 3520
60733 396970 413324 -14446 6909 3513
60856 397045 413357 -14455 6896 3518
60977 397090 413398 -14453 6878 3521
61104 397166 413432 -14448 6877 3522
61226 397221 413459 -14448 6878 3528
61353 397278 413496 -14444 6875 3535
61477 397344 413526 -14442 6868 3539
61583 397395 413554 -14449 6864 3549
61592 397319 413529 -14452 6867 3557
61428 397103 413433 -14422 6903 3546
61115 396862 413324 -14453 6897 3556
60746 396642 413231 -14483 6887 3554
60410 396484 413159 -14491 6878 3550
60153 396383 413087 -14469 6865 3559
59971 396327 413049 -14435 6847 3569
59859 396309 413016 -14405 6866 3563
59791 396320 413021 -14408 6909 3536
59754 396325 413012 -14427 6937 3532
59752 396347 413002 -14399 6943 3548
59814 396426 413027 -14388 6943 3544
59885 396464 413051 -14421 6941 3529
59928 396471 413033 -14432 6947 3515
59937 396469 413025 -14435 6954 3507
59921 396443 413027 -14437 6939 3512
59898 396421 413013 -14425 6936 3512
59876 396410 413014 -14423 6955 3514
59869 396421 413004 -14443 6964 3527
59885 396429 413000 -14456 6963 3532
59926 396464 413023 -14448 6981 3529
61103 397137 413397 -14435 6955 3576
61232 397220 413440 -14435 6949 3584
61358 397283 413464 -14441 6919 3588
61486 397351 413501 -14426 6900 3589
61613 397425 413543 -14409 6905 3597
61741 397485 413593 -14409 6901 3594
61868 397547 413613 -14413 6885 3586
62005 397614 413647 -14418 6881 3576
62144 397689 413679 -14422 6888 3566
62278 397750 413711 -14425 6892 3563
62400 397811 413746 -14401 6915 3555
62419 397728 413727 -14400 6928 3559
62261 397547 413658 -14440 6919 3569
61937 397286 413574 -14450 6909 3568
61550 397069 413493 -14453 6889 3566
61189 396903 413434 -14464 6887 3566
60900 396790 413401 -14478 6891 3570
60688 396743 413365 -14480 6885 3580
60541 396708 413339 -14452 6874 3588
60441 396691 413324 -14419 6869 3579
60373 396703 413330 -14404 6891 3564
60328 396702 413307 -14417 6924 3565
60331 396751 413328 -14453 6935 3572
60374 396800 413359 -14468 6932 3574
60409 396832 413344 -14464 6922 3572
60420 396825 413348 -14456 6914 3560
60406 396803 413324 -14453 6909 3549
60373 396786 413317 -14442 6889 3551
60336 396768 413308 -14428 6870 3551
60305 396753 413302 -14428 6873 3554
60299 396750 413293 -14426 6891 3551
60313 396763 413306 -14414 6896 3554
60354 396807 413313 -14420 6881 3562
60420 396847 413334 -14446 6883 3551
60483 396845 413280 -14469 6907 3540
60543 396775 413143 -14475 6923 3534
60625 396784 413134 -14474 6923 3528
60718 396800 413106 -14471 6923 3520
60832 396911 413174 -14457 6914 3514
60945 396969 413232 -14450 6905 3515
61052 397020 413227 -14444 6911 3522
61170 397062 413247 -14427 6916 3519
61285 397117 413258 -14436 6902 3519
61404 397157 413274 -14462 6888 3527
61521 397192 413260 -14471 6897 3527
61634 397213 413234 -14464 6897 3529
61746 397224 413196 -14456 6877 3533
61849 397198 413148 -14451 6868 3533
61934 397159 413071 -14441 6873 3527
61983 397094 412975 -14452 6882 3527
62005 397038 412902 -14472 6885 3532
62052 397014 412816 -14444 6887 3509
62145 397036 412785 -14479 6857 3524
62282 397077 412761 -14513 6836 3528
62434 397131 412710 -14500 6826 3520
62591 397171 412666 -14478 6813 3512
62748 397223 412656 -14478 6812 3506
62870 397261 412681 -14496 6813 3503
62860 397184 412691 -14542 6789 3512
62681 397015 412671 -14589 6772 3532
62386 396843 412692 -14481 6786 3550
62039 396736 412747 -14491 6749 3539
61714 396704 412878 -14529 6713 3521
61446 396685 412970 -14522 6698 3499
61237 396670 412998 -14491 6680 3489
61099 396690 413050 -14494 6681 3479
61016 396714 413093 -14533 6726 3476
60969 396752 413129 -14545 6759 3494
60969 396793 413156 -14561 6744 3522
61017 396883 413197 -14547 6765 3542
61075 396927 413214 -14502 6789 3507
61121 396927 413192 -14482 6796 3488
61133 396920 413162 -14470 6820 3471
61123 396891 413128 -14465 6853 3461
61101 396880 413155 -14473 6860 3467
61080 396913 413197 -14484 6849 3473
61065 396927 413229 -14489 6850 3480
61058 396939 413238 -14509 6848 3497
61072 396963 413255 -14525 6862 3509
61111 397016 413290 -14498 6899 3504
61165 397058 413286 -14465 6918 3508
61241 397097 413308 -14442 6939 3513
61337 397158 413321 -14427 6949 3506
61438 397207 413364 -14436 6928 3497
61557 397282 413401 -14462 6904 3490
61670 397334 413419 -14472 6866 3511
61794 397394 413434 -14467 6838 3536
61917 397451 413468 -14471 6838 3542
62049 397523 413495 -14466 6859 3561
62173 397575 413520 -14482 6831 3578
62293 397651 413561 -14494 6823 3586
62418 397708 413578 -14475 6831 3577
62548 397789 413608 -14466 6853 3569
62672 397830 413628 -14467 6877 3571
62798 397895 413663 -14461 6878 3577
62892 397914 413674 -14448 6881 3562
62879 397834 413646 -14435 6889 3549
62711 397628 413561 -14431 6905 3535
62421 397385 413494 -14417 6939 3530
62081 397193 413409 -14412 6956 3545
61784 397057 413353 -14427 6950 3551
61548 396982 413309 -14421 6948 3550
61383 396925 413290 -14404 6960 3540
61272 396914 413280 -14420 6974 3526
61208 396920 413297 -14443 6967 3526
61171 396940 413313 -14452 6960 3541
61168 396964 413305 -14455 6959 3549
61214 397037 413333 -14450 6948 3545
61290 397095 413371 -14433 6950 3543
61353 397133 413387 -14415 6940 3550
61392 397146 413392 -14401 6918 3543
61399 397138 413382 -14393 6918 3531
61392 397101 413383 -14412 6917 3529
61373 397110 413373 -14432 6902 3528
61370 397099 413394 -14422 6903 3527
61387 397118 413389 -14418 6923 3530
61422 397153 413399 -14445 6940 3523
61478 397193 413418 -14461 6949 3511
61552 397256 413448 -14406 6984 3519
61637 397293 413468 -14420 6977 3520
62969 398032 413789 -14434 6939 3532
63088 398086 413821 -14451 6931 3528
63165 398087 413819 -14444 6928 3518
63104 397951 413755 -14437 6938 3517
62884 397720 413670 -14457 6953 3519
62551 397456 413568 -14453 6959 3520
62208 397252 413464 -14417 6973 3517
61908 397116 413397 -14376 6981 3506
61681 397040 413359 -14374 6994 3496
61516 396970 413323 -14416 7010 3492
61403 396945 413294 -14434 7025 3504
61335 396951 413285 -14425 7042 3523
61303 396958 413280 -14421 7039 3520
61306 397002 413292 -14432 7030 3513
61358 397057 413312 -14426 7009 3509
61423 397112 413314 -14408 6988 3497
61477 397126 413337 -14393 6988 3497
61502 397134 413329 -14355 6983 3493
61498 397120 413317 -14358 6990 3493
61480 397091 413298 -14394 6990 3509
61463 397077 413292 -14399 6989 3517
61459 397082 413293 -14417 7010 3510
61475 397088 413296 -14439 7022 3504
61509 397125 413311 -14435 7022 3504
61562 397156 413312 -14407 7032 3501
61632 397209 413333 -14398 7049 3496
61713 397257 413347 -14406 7058 3485
61809 397310 413368 -14375 7046 3453
61912 397365 413396 -14391 7043 3468
62027 397425 413416 -14404 7040 3486
62143 397485 413429 -14412 7037 3484
62269 397547 413464 -14417 7031 3483
62393 397616 413483 -14409 7032 3495
62519 397684 413505 -14395 7035 3507
62648 397733 413531 -14397 7037 3516
62775 397803 413556 -14399 7044 3521
62906 397869 413591 -14357 7064 3500
63030 397932 413619 -14379 7064 3498
63158 398008 413663 -14395 7071 3520
63285 398086 413701 -14389 7080 3525
63414 398137 413714 -14374 7084 3519
63545 398197 413752 -14373 7085 3527
63669 398259 413775 -14381 7078 3537
63735 398227 413766 -14389 7073 3539
63645 398072 413697 -14394 7064 3530
63395 397832 413614 -14366 7062 3525
63052 397573 413510 -14328 7048 3525
62704 397361 413423 -14321 7033 3524
62416 397229 413365 -14358 7048 3516
62206 397143 413330 -14404 7062 3514
62061 397248 413344 -14413 6941 3539
62030 397237 413328 -14428 6939 3531
62014 397231 413324 -14449 6947 3527
62022 397247 413325 -14461 6962 3526
62050 397272 413349 -14467 6966 3523
62092 397316 413363 -14452 6964 3516
62156 397366 413381 -14407 6971 3484
62227 397422 413394 -14391 6970 3461
62305 397472 413422 -14406 6964 3473
62394 397519 413443 -14409 6983 3487
62492 397588 413474 -14425 6988 3496
62594 397645 413513 -14443 6963 3498
62699 397719 413525 -14437 6950 3496
62812 397773 413552 -14429 6943 3496
62926 397833 413585 -14433 6940 3504
63041 397898 413621 -14431 6946 3507
63157 397971 413654 -14380 6976 3499
63270 398023 413679 -14412 6979 3502
63389 398081 413709 -14436 6974 3513
63507 398155 413719 -14440 6980 3526
63624 398223 413756 -14445 6977 3536
63744 398291 413783 -14444 6970 3539
63855 398350 413821 -14439 6978 3544
63904 398316 413806 -14445 6999 3550
63802 398157 413745 -14444 7016 3554
63550 397917 413667 -14340 7006 3542
63214 397677 413565 -14328 7018 3531
62873 397470 413489 -14377 7026 3532
62599 397352 413431 -14433 7041 3544
62402 397296 413412 -14449 7047 3559
62273 397266 413385 -14439 7044 3558
62202 397256 413378 -14430 7050 3546
62173 397288 413398 -14415 7034 3530
62177 397325 413408 -14387 7012 3521
62227 397403 413442 -14354 6999 3516
62308 397478 413470 -14328 6995 3515
62382 397512 413484 -14349 6982 3529
62423 397538 413492 -14394 6967 3547
62431 397532 413479 -14412 6976 3553
62410 397506 413478 -14420 6985 3552
62387 397470 413461 -14441 6993 3554
62365 397477 413454 -14449 7008 3547
62363 397474 413461 -14439 7021 3537
62380 397502 413472 -14427 7019 3519
62418 397544 413491 -14408 7016 3495
62472 397581 413494 -14374 7031 3482
62542 397629 413512 -14363 7047 3485
62628 397678 413542 -14379 7051 3501
62717 397735 413565 -14397 7043 3517
62814 397796 413587 -14412 7041 3526
64094 398498 413911 -14411 7013 3539
64213 398566 413923 -14417 7008 3544
64338 398634 413958 -14414 7008 3539
64452 398688 413980 -14413 7009 3533
64520 398678 413988 -14421 7021 3529
64425 398519 413918 -14378 7018 3509
64164 398255 413805 -14352 7003 3508
63781 397970 413712 -14342 6998 3510
63394 397729 413600 -14367 7012 3514
63057 397582 413521 -14410 7031 3522
62801 397472 413481 -14423 7048 3531
62618 397432 413450 -14423 7051 3532
62507 397411 413440 -14427 7049 3526
62435 397416 413433 -14425 7054 3520
62405 397439 413441 -14409 7049 3511
62401 397472 413449 -14371 7027 3505
62444 397550 413472 -14347 7011 3510
62499 397586 413490 -14359 7009 3512
62536 397606 413484 -14382 7008 3511
62538 397600 413480 -14391 6997 3523
62511 397571 413484 -14394 7006 3536
62466 397530 413452 -14414 7022 3533
62424 397534 413431 -14429 7028 3530
62393 397515 413434 -14427 7037 3528
62378 397514 413418 -14411 7043 3514
62390 397522 413416 -14377 7037 3498
62415 397560 413423 -14369 7033 3491
62463 397596 413435 -14399 7033 3494
62516 397612 413421 -14427 7034 3505
62578 397632 413378 -14435 7031 3514
62646 397646 413374 -14431 7030 3518
62725 397695 413385 -14429 7024 3521
62810 397750 413387 -14420 7019 3523
62903 397779 413391 -14403 7027 3517
63006 397812 413382 -14396 7020 3508
63108 397849 413363 -14337 6997 3505
63209 397874 413357 -14363 6977 3507
63306 397898 413338 -14399 6956 3516
63399 397907 413274 -14431 6943 3528
63495 397919 413259 -14444 6929 3536
63593 397952 413248 -14446 6922 3543
63686 397959 413218 -14450 6929 3535
63745 397911 413131 -14458 6931 3524
63764 397849 413033 -14453 6909 3521
63793 397800 412963 -14419 6902 3514
63847 397787 412893 -14401 6914 3502
63937 397818 412851 -14446 6868 3505
63997 397779 412792 -14519 6828 3514
63901 397548 412616 -14522 6828 3513
63642 397231 412399 -14472 6820 3533
63303 396947 412222 -14481 6798 3545
62959 396778 412155 -14521 6774 3519
62657 396709 412194 -14536 6792 3480
62412 396708 412322 -14521 6819 3477
62240 396787 412468 -14473 6856 3463
62129 396910 412675 -14471 6846 3472
62065 397042 412859 -14488 6807 3496
62030 397130 412956 -14492 6805 3517
62032 397186 412982 -14449 6810 3523
62084 397279 413077 -14435 6832 3508
62138 397386 413185 -14472 6846 3505
62156 397387 413181 -14496 6834 3536
62133 397307 413112 -14499 6865 3540
62106 397284 413083 -14465 6965 3482
62078 397278 413082 -14392 7066 3397
62053 397216 413027 -14372 7082 3389
62027 397152 412902 -14425 7032 3458
62023 397147 412888 -14466 6980 3510
62051 397186 412930 -14468 6946 3521
62075 397231 412957 -14433 6915 3533
62110 397253 412960 -14341 6877 3563
62151 397282 412969 -14333 6838 3545
62210 397333 412996 -14439 6836 3487
62281 397383 413013 -14499 6862 3459
62365 397443 413059 -14459 6900 3469
62462 397513 413085 -14397 6927 3515
62562 397567 413119 -14401 6946 3560
62668 397635 413145 -14435 6971 3569
62779 397701 413189 -14440 6983 3566
62890 397769 413226 -14435 6986 3569
63010 397840 413260 -14436 6991 3574
63132 397911 413284 -14429 6998 3579
63255 397971 413334 -14415 7001 3584
63364 398016 413347 -14415 7016 3581
63436 398027 413367 -14390 7020 3565
63368 397906 413323 -14385 7007 3567
63140 397682 413231 -14376 7001 3556
62800 397462 413151 -14403 7024 3547
62443 397255 413082 -14433 7047 3541
62122 397119 413053 -14431 7058 3530
61870 397055 413023 -14411 7051 3519
61688 396989 412998 -14382 7028 3512
61562 396967 412973 -14363 7022 3509
61476 396952 412949 -14323 7025 3500
61425 396957 412950 -14306 7034 3508
61411 396985 412957 -14321 7042 3514
61450 397055 412984 -14360 7060 3523
61503 397093 412982 -14374 7063 3540
61533 397107 412989 -14369 7070 3549
61536 397096 412981 -14379 7080 3546
61510 397074 412956 -14405 7080 3543
61468 397046 412949 -14407 7072 3547
61427 397030 412940 -14381 7067 3556
61396 397003 412934 -14352 7063 3551
61385 397005 412927 -14348 7065 3549
61397 397040 412932 -14363 7079 3565
61431 397085 412954 -14366 7077 3575
61474 397103 412974 -14366 7063 3579
61533 397153 412984 -14379 7054 3588
61604 397196 413011 -14386 7049 3591
61683 397251 413029 -14380 7037 3578
61768 397315 413051 -14370 7019 3569
61862 397369 413090 -14368 7018 3580
61949 397415 413103 -14348 7020 3592
62042 397461 413122 -14342 7022 3584
62144 397522 413166 -14369 7017 3574
62254 397572 413172 -14365 7014 3571
62363 397640 413202 -14359 7027 3565
62471 397684 413223 -14379 7034 3559
62554 397710 413225 -14383 7031 3561
62535 397620 413185 -14357 7020 3569
62357 397423 413098 -14343 7020 3572
62047 397168 413003 -14372 7037 3568
61685 396967 412922 -14390 7051 3558
61359 396796 412849 -14382 7068 3562
61092 396693 412800 -14377 7072 3571
60904 396644 412761 -14377 7066 3573
60766 396601 412704 -14372 7059 3560
60673 396580 412700 -14358 7049 3543
60616 396575 412693 -14342 7032 3541
60598 396587 412678 -14318 7019 3544
60628 396648 412704 -14319 7020 3541
60679 396701 412724 -14350 7026 3536
60718 396704 412715 -14321 7049 3545
60725 396711 412718 -14354 7067 3551
60707 396691 412703 -14378 7092 3556
60671 396665 412692 -14369 7117 3560
60639 396644 412688 -14348 7126 3562
60614 396635 412678 -14332 7117 3547
60612 396650 412692 -14336 7105 3548
60637 396673 412698 -14351 7099 3562
60682 396711 412713 -14365 7098 3568
60744 396762 412726 -14347 7105 3571
60818 396796 412747 -14311 7110 3580
60907 396856 412788 -14312 7103 3577
60999 396905 412812 -14326 7091 3566
61096 396953 412835 -14327 7081 3567
61206 397019 412852 -14332 7081 3569
61315 397080 412881 -14337 7083 3572
61429 397130 412903 -14341 7077 3571
61543 397185 412928 -14354 7084 3573
61657 397241 412947 -14358 7096 3581
61772 397301 412973 -14354 7086 3580
61890 397361 413009 -14326 7082 3581
62006 397413 413025 -14308 7095 3581
62129 397463 413037 -14335 7098 3574
62242 397508 413054 -14361 7101 3575
62345 397544 413085 -14366 7088 3581
62350 397466 413041 -14334 7072 3582
62188 397274 412957 -14307 7073 3580
61881 397019 412866 -14321 7088 3572
61528 396819 412771 -14342 7110 3567
61195 396641 412702 -14356 7120 3569
60940 396528 412645 -14331 7122 3558
60765 396468 412619 -14339 7115 3556
60648 396464 412610 -14334 7098 3554
60579 396452 412593 -14313 7079 3549
60545 396466 412595 -14280 7068 3541
60545 396488 412592 -14295 7063 3540
60592 396558 412632 -14314 7060 3551
60658 396599 412640 -14314 7071 3572
60693 396613 412644 -14347 7081 3582
60698 396590 412640 -14330 7099 3572
60675 396571 412645 -14349 7111 3571
60637 396559 412626 -14377 7119 3560
60599 396547 412618 -14373 7106 3546
60575 396525 412615 -14369 7080 3531
60569 396532 412629 -14366 7063 3524
60583 396563 412630 -14353 7056 3537
60617 396588 412652 -14350 7060 3549
60666 396626 412669 -14348 7070 3549
60731 396675 412679 -14310 7057 3536
60805 396722 412688 -14318 7045 3544
60890 396759 412712 -14350 7037 3554
60988 396823 412736 -14360 7028 3551
61085 396871 412753 -14366 7026 3548
61183 396930 412784 -14389 7032 3555
61285 396991 412802 -14397 7041 3564
61390 397027 412834 -14397 7046 3570
61497 397090 412861 -14390 7047 3569
61604 397138 412895 -14378 7060 3565
61716 397193 412917 -14363 7066 3558
61826 397255 412929 -14354 7050 3553
61944 397321 412960 -14343 7023 3555
62060 397374 412987 -14322 7015 3554
62158 397402 413013 -14334 7042 3558
62158 397326 412986 -14368 7059 3564
61997 397143 412907 -14396 7079 3574
61717 396934 412821 -14412 7095 3580
61384 396741 412744 -14405 7078 3573
60803 396667 412705 -14376 7051 3562
60782 396638 412696 -14306 7013 3551
60751 396611 412683 -14319 7006 3564
60726 396605 412678 -14333 7002 3573
60726 396604 412679 -14356 7009 3580
60740 396631 412705 -14359 7016 3586
60773 396657 412718 -14365 7033 3591
60829 396693 412718 -14392 7053 3591
60895 396733 412747 -14390 7067 3584
60974 396774 412763 -14370 7082 3582
61065 396830 412785 -14321 7083 3572
61159 396893 412807 -14339 7080 3568
61265 396941 412826 -14352 7081 3560
61374 396995 412851 -14341 7087 3552
61486 397056 412877 -14344 7090 3555
61604 397118 412920 -14371 7084 3559
61721 397187 412943 -14378 7062 3564
61840 397226 412960 -14368 7042 3573
61952 397280 412984 -14359 7040 3576
62064 397334 413022 -14335 7044 3582
62183 397398 413058 -14311 7049 3584
62300 397468 413077 -14317 7050 3584
62424 397511 413089 -14333 7056 3586
62542 397568 413128 -14345 7070 3584
62618 397564 413131 -14341 7086 3580
62553 397452 413073 -14337 7094 3586
62324 397218 412993 -14342 7092 3592
61971 396978 412892 -14335 7087 3594
61607 396773 412807 -14331 7091 3593
61293 396634 412739 -14340 7110 3585
61059 396538 412693 -14338 7107 3588
60893 396503 412677 -14315 7081 3587
60789 396498 412661 -14299 7065 3581
60714 396488 412651 -14315 7071 3569
60668 396487 412657 -14357 7086 3558
60660 396515 412657 -14371 7096 3566
60697 396577 412678 -14377 7094 3571
60738 396627 412706 -14378 7090 3566
60758 396623 412701 -14353 7090 3561
60741 396607 412697 -14340 7063 3562
60710 396584 412678 -14319 7036 3566
60667 396560 412665 -14300 7035 3564
60627 396552 412673 -14301 7042 3562
60598 396554 412659 -14325 7043 3563
60596 396573 412669 -14346 7040 3574
60620 396594 412678 -14346 7044 3585
60664 396644 412706 -14358 7065 3580
60720 396684 412717 -14369 7082 3570
60795 396736 412748 -14370 7083 3572
60878 396782 412772 -14363 7082 3574
60968 396842 412792 -14333 7088 3569
61069 396901 412818 -14318 7092 3562
61171 396954 412838 -14335 7084 3555
61276 397016 412863 -14344 7071 3552
61388 397063 412886 -14354 7062 3552
61501 397114 412897 -14364 7065 3554
61614 397165 412926 -14365 7058 3568
61729 397214 412948 -14355 7055 3573
61841 397271 412965 -14340 7055 3573
61949 397320 412999 -14338 7046 3580
62067 397367 413039 -14306 7056 3581
62181 397430 413043 -14318 7063 3589
62298 397463 413045 -14320 7072 3584
62408 397514 413056 -14328 7075 3578
62514 397553 413078 -14353 7071 3579
62566 397518 413054 -14372 7077 3574
62459 397327 412955 -14372 7085 3576
62180 397044 412791 -14364 7089 3584
61780 396688 412522 -14362 7090 3589
61343 396293 412183 -14355 7082 3584
60930 395918 411808 -14349 7081 3571
60577 395609 411485 -14345 7076 3567
60295 395337 411190 -14325 7051 3569
60091 395180 411032 -14307 7033 3568
59969 395162 411005 -14327 7046 3558
59892 395168 411003 -14364 7063 3549
59853 395189 411003 -14383 7065 3553
59872 395267 411050 -14400 7027 3569
59914 395374 411163 -14456 6949 3586
59952 395487 411302 -14513 6921 3580
61343 396903 412629 -14343 7064 3596
61464 396975 412656 -14340 7062 3578
61591 397039 412687 -14322 7063 3565
61712 397101 412716 -14315 7090 3546
61809 397141 412752 -14328 7115 3538
61795 397045 412726 -14347 7107 3535
61618 396847 412647 -14360 7094 3548
61303 396624 412560 -14365 7092 3562
60944 396447 412484 -14353 7095 3592
60608 396280 412409 -14324 7071 3590
60336 396179 412365 -14295 7048 3588
60132 396108 412347 -14300 7059 3572
59989 396086 412318 -14344 7077 3560
59882 396066 412323 -14374 7082 3564
59805 396053 412311 -14378 7082 3567
59757 396059 412313 -14369 7074 3572
59756 396123 412322 -14359 7068 3572
59794 396155 412352 -14347 7064 3574
59824 396193 412353 -14317 7053 3574
59829 396200 412370 -14296 7041 3577
59809 396176 412354 -14306 7037 3586
59774 396151 412345 -14332 7044 3589
59738 396127 412345 -14352 7044 3598
59714 396123 412341 -14342 7046 3616
59712 396130 412349 -14343 7059 3623
59736 396174 412369 -14373 7067 3619
59778 396215 412378 -14374 7076 3618
59841 396268 412398 -14347 7070 3618
59916 396319 412417 -14322 7063 3622
60005 396365 412458 -14314 7072 3621
60106 396429 412486 -14327 7070 3618
60214 396498 412527 -14341 7062 3618
60329 396568 412561 -14342 7062 3621
60442 396631 412598 -14338 7054 3624
60553 396705 412633 -14342 7053 3623
60667 396757 412671 -14347 7058 3625
60790 396820 412712 -14343 7048 3628
60914 396877 412733 -14329 7043 3623
61037 396962 412772 -14296 7050 3635
61160 397017 412806 -14320 7054 3635
61254 397040 412825 -14343 7051 3630
61238 396941 412781 -14334 7055 3635
61064 396753 412721 -14321 7064 3634
60758 396544 412628 -14336 7061 3626
60409 396333 412528 -14354 7055 3641
60092 396196 412469 -14344 7059 3658
59832 396106 412419 -14339 7051 3657
59640 396044 412382 -14325 7036 3664
59503 395998 412365 -14316 7006 3673
59403 395986 412344 -14306 6985 3673
59329 395970 412336 -14302 6985 3665
59294 396000 412330 -14323 7003 3643
59319 396051 412365 -14340 7018 3622
59371 396091 412370 -14326 7029 3611
59411 396097 412366 -14299 7052 3609
59422 396112 412379 -14294 7072 3611
59419 396109 412379 -14309 7078 3617
59396 396087 412365 -14295 7082 3642
59381 396067 412357 -14275 7096 3661
59374 396075 412348 -14300 7121 3656
59391 396101 412359 -14337 7135 3661
59431 396130 412370 -14340 7138 3667
59493 396158 412385 -14323 7142 3654
59567 396212 412406 -14307 7134 3637
59656 396269 412421 -14297 7121 3627
59754 396307 412439 -14299 7104 3628
59861 396360 412478 -14302 7087 3641
59983 396415 412505 -14280 7076 3661
60106 396479 412515 -14261 7065 3675
60226 396545 412537 -14261 7080 3675
60352 396593 412571 -14269 7101 3667
60478 396668 412589 -14288 7099 3664
60604 396731 412623 -14292 7092 3674
60734 396796 412647 -14281 7094 3677
60866 396859 412681 -14276 7105 3675
61001 396910 412703 -14280 7114 3684
61130 396984 412741 -14289 7114 3691
61264 397030 412782 -14266 7133 3699
61396 397099 412794 -14285 7133 3691
61534 397157 412827 -14294 7138 3688
61673 397220 412854 -14321 7149 3678
61800 397272 412880 -14339 7136 3667
61881 397273 412878 -14312 7128 3648
61811 397111 412815 -14299 7134 3642
61577 396882 412722 -14302 7121 3636
61232 396645 412604 -14299 7093 3632
60874 396438 412516 -14216 7060 3625
60567 396298 412441 -14242 7086 3612
60333 396213 412400 -14291 7122 3610
60164 396164 412369 -14313 7136 3623
60045 396131 412343 -14326 7140 3642
59962 396124 412338 -14327 7127 3644
59908 396117 412334 -14320 7092 3638
59887 396138 412323 -14319 7056 3647
59919 396187 412359 -14295 7024 3656
59962 396211 412358 -14269 6999 3668
59981 396223 412363 -14272 6997 3690
59969 396223 412347 -14300 7002 3693
59936 396186 412330 -14320 6998 3701
59899 396177 412338 -14320 7005 3705
59870 396168 412323 -14327 7018 3690
59855 396154 412326 -14323 7043 3679
59865 396178 412341 -14335 7069 3673
59902 396222 412347 -14351 7092 3665
59951 396258 412380 -14350 7095 3656
60018 396308 412394 -14333 7083 3652
60097 396349 412414 -14300 7084 3645
60189 396407 412437 -14288 7081 3638
60287 396457 412473 -14289 7076 3633
60386 396515 412486 -14309 7080 3632
60495 396577 412532 -14323 7078 3633
60608 396632 412535 -14314 7084 3637
60725 396691 412574 -14317 7095 3638
60841 396759 412592 -14305 7092 3630
60961 396819 412633 -14280 7092 3626
61079 396876 412661 -14284 7100 3621
61194 396933 412685 -14279 7107 3625
61311 396974 412715 -14289 7118 3625
61431 397034 412739 -14271 7129 3631
61550 397091 412760 -14252 7141 3638
61675 397146 412795 -14276 7141 3636
61805 397217 412824 -14296 7140 3631
61922 397264 412862 -14304 7135 3632
61974 397238 412849 -14311 7120 3630
61889 397083 412785 -14298 7106 3631
61664 396884 412692 -14237 7075 3630
61365 396689 412612 -14275 7096 3625
61076 396539 412551 -14322 7105 3629
60852 396436 412506 -14343 7114 3653
60691 396387 412481 -14350 7110 3665
60593 396392 412468 -14361 7091 3663
60541 396397 412481 -14347 7076 3657
60521 396418 412490 -14315 7057 3652
60532 396448 412488 -14302 7033 3658
60599 396528 412529 -14284 7048 3655
60676 396593 412565 -14321 7054 3654
60738 396607 412568 -14341 7062 3658
60769 396624 412589 -14349 7063 3640
60765 396601 412573 -14367 7055 3630
60744 396565 412577 -14371 7061 3627
60731 396576 412577 -14352 7067 3613
60729 396572 412564 -14318 7075 3588
60744 396586 412581 -14290 7087 3569
60781 396630 412586 -14278 7085 3557
60839 396665 412619 -14265 7080 3558
60910 396713 412648 -14269 7101 3569
60993 396768 412667 -14290 7123 3564
61090 396819 412693 -14318 7135 3554
61187 396873 412711 -14344 7157 3548
61291 396939 412751 -14335 7173 3548
61401 396990 412776 -14319 7167 3568
61504 397053 412797 -14314 7147 3590
61624 397108 412830 -14319 7131 3599
61740 397179 412854 -14323 7117 3613
61862 397250 412890 -14311 7101 3630
61985 397313 412919 -14308 7084 3639
62106 397376 412959 -14313 7077 3638
62226 397442 412988 -14315 7077 3637
62349 397494 413028 -14319 7081 3643
62470 397552 413060 -14323 7094 3646
62594 397607 413083 -14325 7107 3641
62714 397674 413098 -14307 7113 3631
62825 397701 413124 -14292 7121 3621
62845 397652 413110 -14291 7124 3615
62718 397463 413028 -14220 7101 3617
62454 397246 412924 -14250 7133 3609
62122 397018 412850 -14303 7155 3614
61813 396856 412780 -14329 7152 3626
61561 396761 412729 -14351 7151 3637
61374 396701 412683 -14355 7156 3642
61245 396676 412664 -14333 7150 3637
61158 396670 412674 -14321 7116 3635
61107 396684 412677 -14302 7077 3631
61081 396686 412669 -14257 7069 3629
61107 396749 412693 -14243 7074 3627
61161 396813 412720 -14282 7081 3623
61203 396834 412725 -14306 7083 3629
61216 396827 412724 -14301 7089 3629
61202 396806 412725 -14313 7106 3623
61174 396801 412704 -14333 7120 3626
61139 396766 412694 -14331 7127 3627
61122 396762 412691 -14317 7128 3623
61120 396765 412675 -14324 7127 3623
61136 396790 412692 -14321 7123 3619
61172 396828 412691 -14309 7113 3621
61232 396857 412716 -14307 7114 3628
61302 396900 412722 -14309 7132 3631
61387 396954 412761 -14311 7137 3636
61481 396987 412751 -14314 7134 3641
61578 397063 412787 -14313 7133 3650
61682 397119 412814 -14297 7123 3650
61792 397181 412831 -14280 7110 3640
61908 397242 412869 -14271 7108 3637
62025 397297 412901 -14283 7109 3640
62146 397384 412941 -14289 7098 3650
62263 397432 412969 -14285 7095 3657
62383 397483 412982 -14293 7107 3661
62501 397558 413015 -14295 7125 3668
62623 397610 413040 -14292 7125 3669
62740 397667 413069 -14284 7116 3663
62854 397723 413099 -14295 7116 3665
62976 397778 413115 -14307 7115 3674
63096 397828 413139 -14316 7110 3665
63220 397894 413153 -14316 7112 3656
63337 397948 413177 -14278 7115 3671
63415 397943 413188 -14297 7109 3665
63362 397807 413114 -14279 7094 3663
63143 397582 413010 -14259 7079 3651
62806 397320 412910 -14296 7087 3640
62429 397073 412791 -14340 7110 3636
62098 396912 412713 -14352 7125 3641
61830 396816 412650 -14342 7121 3656
61634 396743 412617 -14329 7108 3656
61488 396717 412590 -14285 7066 3653
61384 396694 412570 -14272 7036 3652
61308 396682 412562 -14271 7019 3648
61258 396705 412563 -14301 7025 3653
61255 396739 412593 -14349 7011 3657
61274 396791 412605 -14369 7003 3653
61285 396784 412593 -14358 7016 3648
61274 396770 412568 -14356 7030 3642
61246 396727 412549 -14349 7028 3644
61211 396709 412534 -14320 7029 3652
61171 396678 412501 -14312 7037 3645
61134 396640 412465 -14335 7031 3629
61119 396624 412437 -14371 7018 3630
61134 396649 412442 -14380 6999 3637
61168 396677 412462 -14363 6986 3640
61212 396690 412434 -14369 6971 3641
61250 396691 412410 -14369 6953 3634
61288 396679 412366 -14368 6942 3624
61320 396641 412276 -14383 6931 3624
61341 396563 412153 -14363 6930 3630
61352 396476 412007 -14335 6931 3630
61369 396351 411807 -14351 6916 3624
61399 396227 411590 -14422 6899 3619
61470 396191 411485 -14469 6900 3621
61577 396233 411466 -14454 6891 3635
61700 396300 411455 -14426 6853 3653
61838 396353 411464 -14414 6826 3649
61983 396488 411549 -14428 6831 3626
62134 396643 411682 -14441 6843 3624
62289 396805 411866 -14435 6846 3647
62441 396975 412020 -14352 6944 3615
62589 397140 412187 -14379 6971 3585
62735 397292 412393 -14373 6951 3616
62879 397429 412540 -14363 6942 3639
63005 397529 412624 -14385 6969 3631
63123 397623 412687 -14391 6995 3627
63229 397687 412764 -14337 7016 3634
63258 397647 412777 -14296 7027 3637
63137 397512 412755 -14325 7050 3635
62893 397307 412697 -14353 7083 3641
62583 397099 412612 -14352 7095 3641
62270 396932 412526 -14352 7098 3644
62008 396803 412476 -14363 7066 3664
61816 396760 412458 -14390 7013 3691
61663 396729 412471 -14388 6983 3696
61531 396719 412488 -14352 6976 3666
61413 396669 412470 -14309 6987 3633
61312 396639 412465 -14286 7015 3609
61258 396647 412463 -14276 7026 3605
61263 396702 412478 -14281 7037 3636
61289 396735 412497 -14277 7050 3638
61312 396751 412495 -14318 7046 3644
61311 396748 412486 -14360 7046 3645
61285 396738 412480 -14370 7054 3639
61251 396719 412460 -14371 7042 3632
61221 396708 412456 -14366 7030 3626
61196 396719 412457 -14348 7023 3622
61196 396718 412467 -14340 7022 3620
61221 396742 412459 -14338 7030 3631
61254 396792 412475 -14312 7025 3648
61312 396830 412502 -14298 7024 3651
61378 396885 412520 -14302 7021 3648
61455 396935 412553 -14304 7031 3650
61546 396970 412562 -14304 7035 3657
61646 397042 412579 -14292 7030 3670
61749 397086 412600 -14284 7043 3682
61856 397147 412623 -14292 7049 3682
61967 397198 412645 -14297 7042 3678
62079 397257 412679 -14300 7033 3682
62195 397315 412704 -14274 7039 3695
62314 397373 412709 -14272 7046 3712
62431 397424 412734 -14321 7042 3727
62548 397489 412769 -14333 7036 3741
62662 397540 412789 -14322 7028 3741
62736 397542 412793 -14304 7010 3731
62694 397425 412758 -14299 7009 3720
62501 397246 412686 -14316 7030 3715
62202 397039 412601 -14336 7043 3721
61880 396838 412545 -14338 7046 3723
61595 396710 412471 -14275 7033 3713
61371 396617 412426 -14290 7021 3699
61215 396581 412412 -14300 7010 3695
61103 396557 412397 -14281 6995 3703
61029 396557 412393 -14269 6991 3710
60985 396572 412391 -14297 6998 3707
60986 396605 412386 -14314 6999 3714
61030 396670 412433 -14294 6996 3715
61081 396716 412438 -14292 6998 3704
61122 396726 412440 -14290 7016 3702
61137 396741 412455 -14297 7030 3704
61132 396704 412424 -14315 7033 3693
61110 396693 412421 -14325 7034 3684
61094 396689 412419 -14312 7022 3683
61090 396684 412426 -14304 7011 3692
61104 396700 412421 -14315 7021 3700
61146 396722 412437 -14314 7019 3706
61198 396760 412447 -14312 7021 3707
61266 396799 412447 -14314 7036 3709
61345 396851 412471 -14300 7033 3715
61433 396902 412495 -14303 7030 3718
61529 396946 412495 -14307 7024 3720
61636 396994 412517 -14303 7015 3727
61748 397071 412547 -14306 7018 3728
61862 397123 412590 -14304 7022 3722
61973 397179 412596 -14309 7024 3725
62086 397232 412628 -14312 7024 3733
62205 397297 412651 -14322 7032 3737
62329 397362 412674 -14316 7047 3747
62452 397418 412703 -14269 7059 3762
62575 397472 412707 -14247 7054 3768
62677 397521 412745 -14264 7048 3765
62703 397464 412715 -14288 7072 3746
62578 397294 412648 -14323 7088 3734
62324 397056 412571 -14338 7078 3741
61997 396847 412461 -14344 7065 3744
61682 396691 412382 -14354 7053 3735
61424 396589 412343 -14335 7038 3717
61237 396525 412296 -14296 7006 3697
61111 396487 412268 -14226 6989 3729
61025 396475 412255 -14271 6986 3723
60968 396477 412241 -14291 6981 3720
60951 396480 412231 -14282 6996 3725
60983 396545 412250 -14307 7030 3720
61035 396588 412266 -14327 7052 3707
61075 396594 412244 -14325 7058 3702
61090 396589 412249 -14312 7071 3708
61083 396564 412227 -14304 7084 3709
61059 396552 412220 -14296 7006 3697
61026 396524 412210 -14226 6989 3729
61008 396534 412202 -14271 6986 3723
61008 396547 412205 -14291 6981 3720
61029 396559 412206 -14282 6996 3725
61069 396600 412231 -14307 7030 3720
61124 396640 412244 -14327 7052 3707
61190 396687 412272 -14325 7058 3702
61268 396747 412297 -14312 7071 3708
61351 396778 412300 -14304 7084 3709
61446 396831 412317 -14266 7077 3684
61544 396876 412345 -14294 7072 3671
61652 396942 412357 -14327 7078 3673
61753 396995 412389 -14337 7089 3683
61860 397060 412425 -14336 7083 3676
61965 397102 412456 -14328 7086 3662
62074 397153 412496 -14322 7076 3663
62188 397211 412504 -14320 7053 3671
62301 397278 412529 -14310 7049 3678
62413 397322 412557 -14300 7058 3683
62504 397364 412576 -14294 7051 3691
62524 397296 412549 -14296 7038 3704
62397 397130 412475 -14302 7042 3715
62141 396919 412390 -14305 7053 3724
61822 396724 412309 -14316 7068 3727
61528 396583 412243 -14318 7064 3721
61297 396488 412205 -14316 7056 3719
61130 396454 412182 -14299 7049 3714
61026 396441 412166 -14272 7045 3711
60959 396441 412160 -14279 7059 3716
60927 396449 412165 -14297 7071 3724
60927 396470 412136 -14304 7082 3738
60970 396479 412092 -14306 7086 3739
61028 396514 412119 -14297 7086 3733
61068 396556 412146 -14295 7078 3734
61073 396570 412185 -14287 7057 3733
61050 396561 412190 -14265 7028 3730
61014 396557 412188 -14249 7009 3732
60984 396540 412199 -14254 6997 3729
60962 396540 412193 -14269 6972 3721
60965 396559 412201 -14260 6973 3726
60981 396595 412227 -14271 6997 3732
61021 396623 412251 -14313 7010 3728
61081 396671 412269 -14331 7007 3723
61146 396720 412277 -14326 7011 3728
61223 396768 412308 -14313 7038 3732
61308 396828 412343 -14319 7046 3718
61399 396877 412367 -14323 7031 3706
61493 396932 412398 -14315 7026 3711
61593 396995 412433 -14320 7028 3723
61696 397052 412469 -14285 7044 3730
61799 397121 412506 -14295 7038 3714
61905 397179 412530 -14280 7013 3706
62015 397247 412575 -14270 6990 3720
62130 397304 412616 -14282 6986 3726
62238 397356 412655 -14297 6976 3728
62321 397385 412665 -14303 6970 3735
62286 397268 412626 -14299 6963 3753
62104 397084 412542 -14305 6956 3768
61801 396889 412454 -14290 6971 3772
61478 396713 412397 -14290 6984 3776
61195 396590 412336 -14318 6972 3780
60980 396507 412301 -14303 6957 3783
60828 396482 412283 -14277 6946 3784
60729 396480 412282 -14277 6958 3784
60660 396491 412294 -14307 6988 3773
60630 396510 412303 -14350 7022 3765
60639 396556 412338 -14361 7043 3777
60696 396625 412369 -14336 7042 3773
60741 396649 412381 -14289 7042 3749
60758 396655 412383 -14246 7040 3728
60744 396642 412367 -14230 7020 3713
60707 396605 412347 -14226 6984 3724
60667 396586 412334 -14229 6956 3748
60638 396568 412340 -14257 6954 3757
60621 396576 412324 -14290 6959 3771
60627 396607 412330 -14310 6968 3803
60653 396632 412342 -14336 6967 3811
60691 396646 412357 -14357 6971 3803
60747 396695 412369 -14347 6978 3814
60810 396731 412369 -14315 6982 3830
60886 396765 412387 -14304 6982 3821
60962 396809 412415 -14322 6971 3795
61049 396864 412442 -14319 6974 3780
61141 396926 412461 -14314 6974 3780
61237 396960 412480 -14316 6969 3789
61338 397019 412505 -14310 6975 3794
61443 397081 412534 -14305 6981 3793
61552 397120 412558 -14295 6981 3805
61655 397172 412570 -14293 6974 3826
61755 397234 412602 -14272 6967 3852
61860 397279 412645 -14254 6960 3858
61966 397335 412647 -14271 6950 3841
62077 397395 412679 -14286 6947 3833
62180 397435 412705 -14305 6953 3839
62251 397439 412715 -14315 6963 3851
62199 397326 412654 -14324 6971 3852
61978 397114 412575 -14334 6959 3853
61631 396890 412478 -14341 6934 3848
61246 396687 412392 -14337 6931 3842
60899 396531 412303 -14283 6951 3858
60628 396429 412271 -14290 6949 3865
60427 396383 412227 -14270 6932 3861
60283 396358 412200 -14251 6942 3849
60176 396343 412197 -14267 6966 3831
60093 396331 412186 -14299 6981 3814
60042 396337 412169 -14311 7010 3821
60037 396375 412210 -14302 7028 3829
60054 396405 412216 -14293 7020 3823
60054 396416 412206 -14282 7002 3818
60051 396495 412213 -14240 7000 3803
60130 396549 412253 -14241 7002 3796
60218 396615 412280 -14270 6993 3795
60313 396664 412319 -14281 6990 3809
60412 396737 412340 -14276 6991 3813
60523 396811 412408 -14280 6985 3812
60631 396871 412443 -14291 6977 3821
60739 396929 412499 -14293 6974 3826
60848 396967 412522 -14295 6975 3819
60957 397027 412539 -14291 6966 3818
61065 397071 412548 -14239 6967 3834
61168 397069 412531 -14255 6964 3816
61257 397075 412497 -14274 6968 3814
61349 397075 412452 -14295 6974 3804
61432 397043 412371 -14316 6968 3797
61492 396932 412195 -14321 6959 3796
61510 396702 411866 -14326 6954 3794
61503 396458 411502 -14344 6952 3788
61486 396221 411189 -14356 6952 3780
61436 396026 410992 -14293 6949 3784
61294 395819 410838 -14309 6929 3786
61044 395610 410741 -14315 6917 3764
60708 395402 410632 -14337 6880 3743
60339 395223 410516 -14429 6834 3750
60004 395116 410500 -14496 6840 3751
59739 395106 410551 -14435 6878 3722
59545 395156 410688 -14316 6870 3701
59408 395302 410894 -14309 6811 3713
59310 395439 411115 -14403 6787 3736
59227 395524 411269 -14416 6796 3719
59174 395580 411345 -14411 6795 3712
59168 395660 411409 -14399 6794 3701
59180 395714 411475 -14394 6776 3718
59184 395765 411523 -14393 6764 3760
59158 395789 411568 -14392 6776 3773
59115 395792 411569 -14391 6832 3756
59070 395761 411569 -14378 6887 3748
59038 395756 411561 -14344 6904 3771
59036 395814 411601 -14320 6917 3797
59056 395834 411620 -14346 6920 3797
59092 395868 411643 -14367 6951 3773
59142 395944 411700 -14340 7015 3733
59196 396006 411758 -14302 7039 3704
59248 396042 411792 -14296 6996 3711
59308 396074 411810 -14330 6955 3750
59379 396124 411840 -14369 6935 3791
59464 396175 411867 -14384 6916 3820
59561 396215 411880 -14380 6924 3829
59672 396278 411921 -14346 6953 3817
59786 396350 411966 -14319 6966 3791
59900 396412 411998 -14321 6966 3757
60016 396468 412027 -14305 6960 3732
60130 396515 412042 -14278 6949 3718
60247 396574 412064 -14278 6946 3720
60360 396628 412098 -14307 6950 3734
60469 396694 412144 -14322 6947 3747
60562 396712 412186 -14328 6951 3753
60555 396671 412176 -14340 6953 3767
60400 396503 412138 -14329 6964 3820
60118 396340 412079 -14354 6950 3825
59789 396147 412000 -14357 6949 3819
59478 396013 411926 -14336 6958 3801
59219 395914 411878 -14300 6963 3784
59025 395844 411844 -14301 6968 3766
58886 395806 411827 -14326 6971 3757
58779 395783 411811 -14338 6975 3769
58697 395770 411799 -14328 6999 3777
58649 395782 411792 -14302 7018 3778
58661 395827 411828 -14281 7001 3782
58696 395862 411838 -14278 6969 3777
58722 395884 411825 -14267 6945 3777
58731 395871 411844 -14255 6929 3783
58714 395869 411841 -14282 6928 3785
58686 395870 411839 -14320 6940 3786
58667 395857 411842 -14314 6938 3791
58666 395873 411847 -14301 6938 3801
58679 395896 411871 -14321 6950 3797
58710 395923 411869 -14315 6970 3807
58762 395954 411889 -14288 6992 3834
58824 395985 411900 -14278 7000 3826
58902 396044 411931 -14275 6995 3794
58988 396094 411950 -14276 6986 3771
59083 396162 411979 -14284 6975 3766
59185 396204 412009 -14293 6958 3787
59292 396262 412036 -14293 6957 3805
59403 396311 412053 -14295 6970 3810
59512 396360 412076 -14307 6969 3817
59634 396420 412106 -14299 6959 3818
59760 396473 412118 -14269 6963 3829
59887 396528 412154 -14266 6959 3844
60011 396575 412180 -14280 6946 3842
60133 396630 412198 -14295 6937 3836
60201 396611 412195 -14303 6930 3834
60142 396501 412128 -14300 6932 3830
59942 396301 412060 -14315 6938 3827
59647 396108 411959 -14336 6941 3830
59338 395946 411883 -14335 6945 3839
59072 395822 411818 -14322 6937 3840
58864 395751 411775 -14279 6945 3845
58714 395686 411736 -14266 6979 3838
58605 395646 411707 -14318 6990 3809
58523 395638 411701 -14335 6996 3806
58475 395627 411671 -14320 6995 3812
58472 395632 411673 -14309 6992 3802
58522 395697 411697 -14308 6987 3790
58567 395731 411691 -14306 6977 3786
58591 395732 411685 -14294 6956 3795
58593 395721 411674 -14286 6927 3797
58576 395698 411675 -14277 6937 3815
58560 395688 411657 -14299 6936 3825
58551 395674 411644 -14308 6944 3822
58558 395667 411636 -14329 6949 3809
58583 395693 411642 -14337 6954 3810
58626 395725 411656 -14331 6971 3812
58687 395755 411662 -14340 6978 3803
58758 395792 411683 -14337 6975 3781
58843 395821 411682 -14313 6978 3766
58938 395891 411710 -14274 6958 3772
59040 395927 411725 -14285 6950 3788
59147 395992 411767 -14302 6954 3796
59260 396042 411785 -14307 6961 3791
59373 396090 411822 -14323 6951 3795
59494 396151 411851 -14334 6925 3797
59617 396209 411869 -14337 6909 3794
59744 396270 411897 -14334 6916 3795
59868 396320 411906 -14325 6922 3794
59995 396386 411952 -14313 6933 3803
60121 396458 412004 -14299 6949 3818
60250 396506 412026 -14312 6946 3804
60381 396587 412062 -14326 6938 3792
60509 396633 412088 -14326 6929 3804
60627 396682 412143 -14337 6920 3812
60657 396628 412109 -14349 6926 3802
60545 396462 412038 -14357 6923 3787
60306 396274 411950 -14346 6913 3788
60016 396088 411865 -14310 6895 3802
59748 395941 411801 -14271 6878 3805
59539 395862 411768 -14268 6901 3804
59397 395818 411728 -14327 6931 3795
59308 395816 411723 -14377 6940 3791
59256 395808 411728 -14378 6938 3802
59232 395826 411738 -14365 6923 3793
59244 395851 411729 -14354 6904 3769
59299 395920 411767 -14347 6889 3755
59365 395952 411780 -14330 6878 3754
59406 395946 411772 -14304 6875 3749
59412 395949 411791 -14309 6880 3741
59399 395929 411769 -14280 6914 3743
59383 395914 411761 -14279 6900 3742
59371 395915 411759 -14321 6890 3754
59378 395912 411758 -14347 6882 3758
59405 395945 411778 -14340 6877 3768
59451 395954 411800 -14342 6873 3778
59513 396009 411827 -14346 6878 3766
59586 396057 411835 -14350 6890 3768
59667 396111 411876 -14352 6897 3791
59756 396149 411903 -14313 6909 3862
59851 396208 411920 -14325 6907 3855
59958 396277 411949 -14338 6909 3840
60069 396335 411988 -14319 6902 3828
60186 396404 412026 -14303 6897 3832
60305 396458 412045 -14299 6898 3833
60429 396525 412080 -14287 6907 3828
60555 396575 412116 -14283 6922 3827
60679 396652 412151 -14287 6926 3821
60804 396714 412200 -14289 6936 3829
60933 396780 412249 -14292 6948 3857
61060 396845 412273 -14298 6950 3861
61190 396898 412305 -14313 6943 3853
61314 396965 412346 -14323 6942 3855
61409 396985 412369 -14331 6947 3848
61409 396903 412337 -14340 6955 3841
61271 396728 412261 -14322 6947 3836
61017 396537 412171 -14279 6922 3839
60730 396345 412093 -14237 6918 3827
60478 396210 412038 -14237 6937 3813
60286 396138 412001 -14263 6968 3822
60158 396105 411984 -14285 6984 3828
60074 396088 411982 -14302 6981 3829
60024 396104 411975 -14317 6981 3829
60002 396113 411974 -14329 6980 3817
60018 396166 411983 -14316 6961 3805
60079 396202 412020 -14297 6936 3797
60143 396265 412045 -14283 6927 3792
60177 396264 412044 -14281 6920 3794
60185 396260 412049 -14301 6910 3801
60166 396228 412039 -14266 6916 3832
60146 396238 412048 -14300 6905 3822
60131 396237 412033 -14330 6897 3821
60139 396239 412046 -14331 6903 3820
60158 396263 412041 -14327 6915 3825
60197 396283 412060 -14325 6924 3826
60257 396314 412077 -14320 6934 3822
60327 396375 412095 -14319 6930 3815
60408 396420 412112 -14310 6931 3812
60493 396470 412134 -14271 6970 3847
60592 396541 412161 -14296 6969 3849
60701 396599 412198 -14304 6955 3851
60813 396654 412222 -14286 6937 3856
60927 396716 412255 -14274 6925 3864
61045 396772 412295 -14269 6916 3870
61167 396819 412312 -14278 6924 3862
61288 396887 412331 -14301 6946 3870
61410 396955 412360 -14302 6962 3880
61533 397014 412389 -14278 6982 3889
61655 397066 412405 -14270 6998 3897
61775 397113 412413 -14275 6999 3888
61888 397168 412442 -14294 6996 3889
62005 397220 412473 -14310 6986 3879
62125 397281 412487 -14297 6974 3861
62245 397342 412518 -14294 6957 3848
62365 397386 412529 -14289 6942 3831
62484 397448 412542 -14274 6931 3818
62569 397459 412568 -14283 6922 3817
62531 397346 412506 -14250 6925 3853
62335 397130 412429 -14234 6916 3845
62025 396891 412328 -14252 6919 3836
61684 396692 412239 -14305 6941 3830
61379 396540 412165 -14349 6955 3836
61135 396439 412128 -14354 6951 3836
60956 396396 412089 -14342 6952 3822
60827 396369 412083 -14334 6955 3801
60739 396361 412071 -14327 6941 3787
60674 396355 412068 -14247 6891 3817
60629 396348 412073 -14250 6876 3812
60632 396384 412069 -14292 6869 3804
60659 396432 412077 -14325 6860 3810
60673 396444 412079 -14327 6857 3819
60665 396422 412068 -14339 6866 3817
60628 396390 412047 -14352 6874 3809
60583 396359 412036 -14328 6884 3805
60546 396344 412018 -14308 6895 3807
60524 396343 411981 -14316 6904 3805
60513 396342 411968 -14311 6915 3815
60526 396371 411979 -14322 6918 3832
60558 396385 411977 -14344 6907 3831
60608 396407 411969 -14350 6910 3835
60667 396425 411967 -14363 6908 3837
60734 396464 411951 -14373 6897 3835
60808 396501 411943 -14372 6886 3841
60892 396525 411935 -14353 6884 3841
60984 396573 411942 -14331 6892 3843
61084 396603 411958 -14316 6888 3847
61187 396659 411989 -14292 6902 3856
61297 396737 412038 -14289 6914 3847
61414 396812 412072 -14294 6913 3818
61537 396876 412129 -14305 6919 3806
61666 396950 412161 -14319 6923 3791
61782 396999 412190 -14332 6925 3781
61896 397038 412208 -14350 6925 3782
62010 397060 412213 -14360 6927 3780
62123 397100 412215 -14376 6923 3770
62233 397123 412205 -14387 6911 3748
62343 397145 412183 -14358 6922 3751
62447 397159 412144 -14339 6925 3766
62541 397150 412084 -14357 6888 3753
62632 397083 411935 -14360 6858 3739
62687 396937 411718 -14359 6845 3721
62705 396728 411395 -14356 6820 3711
62666 396460 411061 -14391 6760 3731
62524 396145 410758 -14491 6718 3745
62281 395850 410547 -14548 6755 3708
61977 395592 410398 -14502 6847 3652
61650 395390 410299 -14372 6794 3692
61339 395226 410203 -14391 6739 3698
61077 395150 410175 -14441 6736 3673
60894 395186 410274 -14477 6734 3644
60776 395282 410423 -14461 6742 3612
60704 395428 410611 -14403 6764 3581
60670 395594 410864 -14359 6781 3581
60663 395787 411097 -14385 6794 3616
60698 395969 411324 -14453 6811 3676
60744 396067 411416 -14369 6903 3716
60774 396117 411493 -14360 6946 3700
60786 396177 411546 -14380 6964 3692
60766 396186 411589 -14380 6991 3688
60743 396195 411625 -14388 7011 3687
60724 396214 411643 -14387 7019 3677
60716 396233 411646 -14370 7013 3661
60735 396255 411650 -14361 6990 3674
60783 396309 411668 -14374 6964 3701
60854 396363 411707 -14387 6959 3718
60931 396434 411764 -14363 6963 3711
61008 396505 411818 -14338 6987 3675
61084 396572 411863 -14319 7009 3638
61159 396598 411862 -14285 7014 3620
61241 396644 411890 -14276 6998 3640
61339 396719 411904 -14291 6973 3663
61448 396774 411955 -14300 6965 3667
61560 396847 411981 -14308 6974 3684
61680 396902 411999 -14335 6989 3698
61801 396963 412050 -14361 7004 3711
61928 397037 412091 -14343 7022 3758
62052 397124 412136 -14358 7021 3747
62179 397181 412173 -14360 7019 3728
62303 397255 412199 -14363 7021 3718
62428 397317 412249 -14347 7016 3723
62538 397364 412279 -14309 7006 3720
62586 397353 412289 -14297 7010 3703
62504 397211 412252 -14309 7021 3697
62285 397017 412187 -14314 7032 3709
61981 396830 412115 -14266 7039 3742
61679 396649 412032 -14275 7033 3733
61418 396554 411991 -14286 7031 3720
61212 396489 411957 -14282 7012 3713
61056 396433 411924 -14283 6985 3715
60950 396419 411919 -14293 6977 3727
60882 396426 411925 -14316 6997 3733
60841 396450 411931 -14337 6994 3750
60845 396495 411964 -14324 6991 3771
60901 396586 412021 -14326 7030 3777
60956 396645 412074 -14333 7042 3766
60993 396691 412115 -14349 7045 3768
61003 396701 412144 -14358 7025 3776
60985 396685 412123 -14355 6999 3779
60963 396675 412146 -14350 6989 3764
60948 396699 412162 -14338 6984 3738
60944 396729 412195 -14317 6988 3723
60962 396758 412207 -14301 6988 3712
60994 396793 412228 -14290 6995 3696
61050 396836 412253 -14267 7019 3686
61117 396898 412281 -14256 7038 3686
61198 396940 412295 -14248 7034 3696
61284 396992 412313 -14236 7026 3699
61386 397046 412342 -14239 7033 3690
61491 397102 412381 -14257 7042 3687
61602 397166 412388 -14277 7056 3691
61719 397219 412410 -14282 7069 3703
61836 397292 412446 -14286 7081 3709
61958 397347 412462 -14293 7096 3711
62085 397408 412478 -14285 7113 3733
62208 397473 412496 -14272 7130 3738
62329 397531 412527 -14261 7130 3719
62449 397570 412551 -14253 7126 3703
62524 397574 412548 -14269 7127 3698
62478 397436 412496 -14297 7125 3705
62288 397241 412410 -14302 7118 3717
62000 397037 412330 -14285 7109 3721
61691 396860 412244 -14293 7089 3715
61419 396742 412171 -14307 7064 3706
61208 396651 412127 -14285 7113 3733
61060 396607 412115 -14272 7130 3738
60956 396578 412087 -14261 7130 3719
60890 396590 412071 -14253 7126 3703
60853 396602 412072 -14269 7127 3698
60861 396637 412077 -14297 7125 3705
60911 396704 412103 -14302 7118 3717
60973 396735 412120 -14285 7109 3721
61010 396754 412109 -14293 7089 3715
61023 396759 412094 -14307 7064 3706
61013 396723 412087 -14235 7022 3719
60996 396703 412071 -14224 7004 3721
60985 396694 412069 -14238 7004 3712
60985 396695 412061 -14258 7010 3714
61001 396709 412058 -14260 7013 3729
61028 396743 412069 -14281 7026 3732
61080 396772 412078 -14301 7040 3734
61135 396802 412082 -14320 7063 3740
61211 396853 412099 -14335 7084 3745
61295 396893 412112 -14331 7084 3754
61393 396958 412137 -14315 7070 3753
61497 397001 412168 -14315 7044 3747
61608 397073 412171 -14318 7022 3753
61715 397124 412201 -14298 7019 3756
61831 397177 412230 -14285 7016 3758
61947 397246 412261 -14290 7006 3762
62065 397305 412286 -14297 6992 3764
62179 397366 412318 -14301 6987 3762
62298 397418 412321 -14297 6984 3762
62417 397466 412345 -14248 6988 3775
61150 396611 411936 -14271 7057 3730
61132 396617 411923 -14320 7074 3723
61151 396663 411930 -14336 7073 3728
61210 396742 411948 -14332 7073 3725
61271 396767 411956 -14317 7067 3724
61307 396771 411956 -14291 7038 3727
61313 396750 411960 -14262 7007 3735
61295 396730 411934 -14235 6995 3742
61262 396697 411935 -14234 6987 3741
61229 396682 411909 -14246 7004 3755
61215 396677 411916 -14253 7019 3783
61218 396686 411915 -14274 7022 3792
61242 396726 411933 -14309 7040 3782
61286 396766 411949 -14322 7044 3769
61339 396802 411974 -14307 7037 3764
61404 396843 412002 -14301 7048 3760
61477 396910 412011 -14302 7047 3750
61560 396953 412047 -14298 7037 3740
61647 397019 412059 -14293 7040 3737
61738 397056 412102 -14256 7039 3760
61835 397122 412120 -14270 7035 3754
61936 397185 412157 -14294 7024 3750
62043 397255 412185 -14303 7009 3745
62153 397310 412236 -14304 7003 3740
62267 397379 412258 -14297 6998 3737
62382 397440 412295 -14286 6985 3744
62496 397503 412323 -14282 6987 3752
62593 397536 412353 -14278 6998 3757
62594 397462 412311 -14260 7024 3765
62458 397285 412232 -14276 7033 3765
62197 397073 412142 -14295 7023 3767
61893 396873 412067 -14292 7001 3777
61616 396745 411999 -14271 6984 3764
61404 396660 411943 -14246 6985 3741
61257 396613 411936 -14264 6999 3739
61173 396616 411923 -14309 7010 3753
61121 396638 411933 -14322 7021 3767
61099 396641 411915 -14308 7027 3783
61126 396691 411951 -14282 7020 3798
61192 396764 411981 -14267 7011 3781
61262 396811 411996 -14264 7009 3758
61304 396821 412000 -14255 7013 3756
61316 396805 412001 -14235 7016 3756
61300 396789 411990 -14229 7023 3760
61269 396776 411989 -14247 7029 3769
61254 396766 411993 -14255 7038 3778
61246 396765 411980 -14271 7055 3779
61262 396793 411993 -14286 7061 3774
61293 396823 412002 -14265 7061 3778
61342 396858 412010 -14244 7066 3785
61399 396891 412044 -14247 7060 3784
61471 396951 412059 -14260 7049 3777
61555 397002 412092 -14274 7047 3765
61640 397053 412124 -14276 7051 3769
61736 397126 412151 -14275 7052 3778
61834 397169 412179 -14276 7039 3776
61938 397235 412209 -14276 7038 3773
62041 397288 412229 -14276 7053 3768
62149 397348 412260 -14237 7035 3789
62257 397394 412283 -14243 7032 3785
62367 397460 412300 -14242 7039 3779
62480 397525 412347 -14250 7045 3769
62596 397572 412365 -14261 7044 3763
62712 397626 412387 -14273 7037 3770
62812 397671 412405 -14278 7032 3777
62826 397594 412380 -14283 7031 3772
62687 397410 412288 -14282 7029 3770
62403 397183 412193 -14259 7045 3784
62047 396954 412087 -14253 7013 3792
61708 396761 412017 -14244 6979 3785
61424 396652 411960 -14239 6991 3783
61209 396563 411926 -14259 7023 3772
61054 396539 411887 -14286 7023 3763
60943 396522 411880 -14301 7020 3765
60864 396513 411874 -14306 7032 3774
60806 396510 411853 -14309 7024 3779
60791 396539 411870 -14228 6999 3771
60815 396603 411898 -14191 6984 3779
60836 396613 411896 -14197 6977 3787
60835 396613 411908 -14244 6978 3794
60812 396591 411890 -14285 6973 3820
60767 396563 411869 -14290 6969 3846
60722 396535 411870 -14296 6959 3853
60683 396528 411850 -14311 6967 3844
60665 396530 411858 -14301 6990 3831
60666 396541 411863 -14271 6998 3841
60685 396577 411871 -14241 7013 3856
60724 396612 411900 -14238 7023 3847
60773 396638 411902 -14256 7018 3830
60837 396688 411919 -14264 7018 3826
60914 396741 411954 -14267 7013 3828
60998 396788 411972 -14265 7008 3823
61092 396855 411997 -14264 7018 3816
61188 396902 412018 -14264 7020 3820
61294 396958 412050 -14258 7003 3833
61398 397013 412066 -14258 6984 3849
61504 397079 412101 -14243 6975 3875
61613 397128 412123 -14257 6962 3863
61719 397166 412147 -14271 6972 3854
61831 397249 412192 -14283 6995 3840
61947 397316 412238 -14297 7006 3834
62059 397390 412276 -14302 7003 3834
62172 397432 412299 -14295 7000 3843
62274 397486 412332 -14273 7012 3839
62337 397475 412335 -14269 7028 3827
62263 397321 412264 -14246 7016 3846
62028 397086 412154 -14228 6981 3847
61676 396844 412040 -14218 6969 3827
61305 396643 411934 -14256 6995 3797
60977 396494 411864 -14308 7011 3796
60718 396399 411808 -14316 7015 3802
60524 396333 411785 -14313 7016 3804
60379 396308 411757 -14306 7018 3798
60267 396283 411753 -14300 7017 3791
60184 396284 411735 -14256 6991 3805
60138 396288 411745 -14229 6980 3796
60143 396330 411766 -14244 6964 3787
60164 396370 411800 -14300 6950 3794
60172 396369 411785 -14312 6952 3812
60148 396342 411785 -14302 6955 3833
60106 396289 411735 -14326 6945 3819
60059 396276 411727 -14329 6957 3791
60016 396238 411718 -14315 6981 3789
59980 396219 411708 -14312 6987 3792
59963 396215 411696 -14305 6982 3796
59953 396186 411658 -14301 6966 3783
59961 396191 411647 -14289 6952 3762
59981 396177 411591 -14307 6946 3753
60005 396127 411502 -14344 6931 3764
60018 396002 411317 -14345 6927 3767
60015 395855 411113 -14343 6923 3749
60003 395734 410888 -14347 6892 3729
59999 395568 410602 -14382 6841 3727
60027 395460 410423 -14423 6833 3750
60092 395403 410307 -14415 6881 3763
60179 395388 410226 -14387 6876 3766
60291 395415 410189 -14377 6820 3772
60402 395439 410152 -14381 6765 3778
60507 395471 410145 -14397 6748 3758
60611 395561 410217 -14406 6780 3706
60722 395682 410351 -14401 6802 3661
60842 395834 410516 -14404 6802 3655
60973 396007 410697 -14416 6823 3655
61110 396198 410897 -14395 6852 3656
61255 396365 411100 -14332 6891 3682
61375 396514 411274 -14367 6885 3706
61395 396508 411369 -14371 6878 3731
61250 396379 411355 -14364 6871 3764
60975 396208 411315 -14370 6913 3775
60637 396029 411284 -14398 6970 3757
60311 395897 411280 -14420 7016 3750
60032 395800 411236 -14396 7052 3768
59820 395728 411177 -14351 7068 3747
59685 395718 411194 -14260 7036 3696
59606 395734 411218 -14261 6977 3742
59546 395772 411258 -14280 6937 3780
59483 395772 411301 -14293 6931 3789
59434 395784 411326 -14298 6935 3789
59414 395814 411342 -14302 6941 3781
59397 395834 411340 -14300 6953 3768
59373 395826 411328 -14296 6960 3758
59344 395792 411336 -14315 6968 3760
59305 395782 411326 -14314 6997 3759
59271 395781 411333 -14292 7024 3757
59252 395775 411335 -14287 7033 3755
59246 395796 411353 -14284 7026 3744
59257 395806 411370 -14294 7014 3741
59287 395840 411396 -14300 7008 3751
59339 395894 411415 -14300 7007 3755
59404 395936 411434 -14310 6995 3749
60583 396575 411792 -14331 6980 3837
60694 396631 411834 -14320 6968 3859
60736 396621 411845 -14290 6949 3880
60644 396466 411793 -14253 6981 3899
60419 396274 411720 -14288 6999 3893
60114 396093 411646 -14306 7005 3894
59811 395938 411570 -14302 7009 3889
59557 395827 411518 -14295 7011 3871
59358 395762 411486 -14283 7009 3846
59211 395718 411462 -14268 6994 3835
59109 395710 411451 -14253 6976 3831
59032 395693 411448 -14236 6963 3827
58993 395700 411443 -14208 6976 3837
59000 395750 411464 -14223 6981 3851
59052 395794 411490 -14231 6975 3843
59092 395822 411493 -14258 6966 3828
59124 395827 411501 -14283 6970 3826
59119 395802 411497 -14290 6980 3826
59101 395778 411481 -14285 6997 3821
59076 395775 411462 -14266 7019 3809
59073 395774 411458 -14262 7021 3804
59082 395767 411466 -14236 7007 3839
59121 395799 411471 -14235 7008 3842
59174 395824 411482 -14265 7002 3850
59243 395882 411510 -14283 6994 3855
59324 395903 411514 -14287 6985 3855
59419 395966 411537 -14278 6991 3854
59522 396030 411566 -14264 7011 3838
59635 396095 411595 -14246 7015 3831
59751 396150 411626 -14230 7010 3839
59873 396205 411659 -14218 7011 3853
59999 396262 411690 -14197 7023 3869
60126 396334 411730 -14210 7051 3881
60258 396387 411748 -14257 7066 3877
60392 396452 411778 -14265 7058 3878
60525 396522 411810 -14248 7042 3885
60651 396579 411844 -14234 7024 3881
60753 396589 411849 -14229 7018 3870
60747 396509 411819 -14254 7027 3863
60593 396332 411748 -14275 7044 3870
60329 396134 411671 -14281 7053 3880
60026 395967 411589 -14260 7062 3893
59760 395827 411533 -14243 7064 3896
59543 395739 411477 -14252 7047 3869
59395 395686 411451 -14243 7019 3836
59290 395654 411432 -14215 6991 3824
59216 395670 411429 -14203 6987 3827
59173 395664 411419 -14224 6993 3826
59168 395691 411434 -14223 6993 3833
59215 395754 411446 -14203 6992 3837
59269 395778 411458 -14231 6995 3825
59301 395788 411466 -14246 7000 3844
59313 395767 411468 -14244 7009 3878
59297 395746 411439 -14266 7022 3875
59280 395735 411440 -14276 7017 3855
59265 395711 411425 -14274 6999 3838
59263 395730 411424 -14272 6983 3830
59286 395739 411427 -14264 6974 3834
59325 395759 411441 -14258 6972 3857
59376 395794 411455 -14265 6982 3876
59445 395833 411466 -14267 6986 3879
59525 395882 411482 -14238 6996 3883
59616 395931 411509 -14220 6997 3883
59712 395986 411530 -14217 6997 3880
59817 396039 411549 -14221 7016 3870
59922 396102 411594 -14215 7038 3871
60037 396154 411625 -14208 7040 3878
60155 396228 411657 -14223 7038 3880
60271 396270 411685 -14240 7041 3897
60390 396334 411713 -14258 7058 3908
60510 396390 411738 -14269 7053 3913
60631 396463 411766 -14235 7036 3925
60762 396520 411809 -14190 7016 3915
60888 396586 411833 -14169 6997 3895
60999 396621 411870 -14203 7024 3870
61022 396547 411837 -14258 7042 3865
60900 396395 411762 -14269 7037 3876
60657 396201 411694 -14261 7040 3874
60373 396025 411612 -14233 7037 3864
60108 395895 411538 -14188 7033 3863
59905 395817 411501 -14160 7024 3863
59770 395787 411482 -14154 7024 3871
59684 395790 411472 -14168 7026 3881
59629 395784 411474 -14178 7031 3869
59607 395788 411451 -14190 7031 3869
59626 395818 411460 -14196 7022 3873
59692 395871 411474 -14215 7009 3870
59754 395906 411488 -14245 6997 3876
59790 395915 411502 -14258 7003 3889
59787 395902 411498 -14278 7009 3906
59765 395868 411486 -14288 7000 3901
59737 395859 411469 -14265 6997 3898
59721 395866 411475 -14249 6997 3902
59719 395865 411475 -14251 6992 3882
59739 395887 411502 -14245 6994 3863
59776 395920 411508 -14253 6995 3865
59829 395964 411536 -14257 6985 3873
59896 396003 411557 -14252 6970 3871
59970 396065 411569 -14241 6959 3870
60049 396112 411610 -14234 6953 3867
60142 396159 411635 -14234 6951 3865
60243 396224 411666 -14221 6962 3886
60343 396282 411696 -14242 6960 3897
60450 396329 411722 -14250 6965 3903
60555 396399 411744 -14254 6975 3906
60668 396463 411786 -14291 6985 3919
60788 396529 411805 -14305 6979 3921
60909 396585 411843 -14286 6949 3905
61029 396646 411880 -14258 6933 3894
61133 396695 411920 -14256 6951 3888
61194 396672 411912 -14277 7002 3924
61127 396553 411864 -14272 7003 3944
60922 396366 411793 -14265 7009 3919
60634 396197 411701 -14254 7012 3900
60345 396042 411638 -14233 7005 3886
60103 395930 411603 -14191 6995 3873
59931 395896 411571 -14163 6984 3873
59812 395858 411562 -14168 6977 3893
59730 395852 411550 -14210 6970 3914
59677 395872 411534 -14233 6972 3951
59662 395895 411540 -14206 6986 3987
59699 395946 411569 -14214 6994 3973
59758 396007 411604 -14249 6995 3948
59799 396026 411601 -14265 7005 3933
59811 396033 411604 -14265 7014 3922
59797 396010 411593 -14263 7018 3916
59771 395987 411602 -14267 7025 3911
59749 395983 411596 -14268 7022 3905
59733 395973 411580 -14264 6997 3911
59738 395990 411586 -14255 6982 3934
59769 396008 411594 -14229 6989 3962
59814 396060 411609 -14210 7001 3968
59873 396090 411622 -14217 6996 3952
59945 396126 411637 -14225 6974 3938
60030 396186 411676 -14222 6963 3934
60114 396237 411704 -14236 6952 3944
60212 396288 411717 -14251 6946 3949
60316 396345 411749 -14242 6964 3938
60423 396407 411783 -14240 6975 3931
60533 396472 411811 -14241 6970 3928
60643 396544 411838 -14229 6989 3962
60753 396592 411872 -14210 7001 3968
60866 396652 411894 -14217 6996 3952
60981 396702 411920 -14225 6974 3938
61101 396750 411945 -14222 6963 3934
61221 396814 411975 -14236 6952 3944
61340 396869 411996 -14251 6946 3949
61432 396884 412008 -14242 6964 3938
61416 396804 411969 -14240 6975 3931
61245 396601 411897 -14241 6970 3928
60943 396379 411802 -14225 6992 3940
60598 396184 411717 -14252 6987 3933
60285 396040 411631 -14285 6990 3929
60026 395940 411601 -14286 6981 3930
59835 395895 411566 -14241 6959 3938
59692 395860 411539 -14213 6949 3932
59581 395834 411512 -14237 6965 3903
59497 395810 411497 -14269 6990 3893
59440 395815 411485 -14285 7003 3900
59432 395843 411507 -14274 7015 3905
59458 395890 411509 -14256 7021 3903
59470 395890 411511 -14249 7010 3889
59460 395889 411498 -14236 6997 3868
59424 395869 411499 -14213 6983 3864
59382 395849 411493 -14196 6972 3877
59349 395835 411484 -14205 6971 3884
59328 395830 411474 -14239 6972 3899
59328 395847 411467 -14250 6969 3915
59345 395868 411480 -14240 6968 3926
59379 395902 411503 -14249 6982 3937
59432 395947 411509 -14229 7000 3945
59494 395987 411536 -14212 7009 3938
59570 396024 411548 -14233 7021 3926
59657 396072 411557 -14243 7032 3910
59756 396135 411581 -14249 7032 3896
59861 396181 411619 -14255 7034 3898
59970 396253 411651 -14250 7025 3907
60084 396310 411666 -14246 7009 3918
60196 396348 411691 -14244 7016 3929
60319 396417 411709 -14243 7016 3933
60440 396484 411752 -14223 7007 3936
60559 396537 411775 -14202 7005 3933
60676 396599 411817 -14203 6993 3926
60792 396663 411864 -14205 6989 3917
60905 396737 411903 -14218 7002 3915
61024 396791 411942 -14225 7012 3913
61149 396858 411971 -14218 7016 3908
61265 396894 411975 -14220 7021 3917
61357 396901 411971 -14226 7027 3911
61349 396824 411928 -14227 7026 3894
61187 396607 411821 -14221 7003 3924
60897 396342 411700 -14236 7000 3913
60541 396103 411566 -14228 7005 3902
60199 395915 411438 -14247 7006 3900
59907 395764 411345 -14264 6995 3916
59684 395651 411258 -14226 6982 3907
59514 395569 411199 -14179 6976 3882
59382 395525 411148 -14198 6974 3861
59269 395465 411087 -14272 6982 3855
59177 395412 411026 -14268 6984 3915
59134 395374 410968 -14286 6958 3920
59119 395347 410897 -14312 6929 3914
59083 395239 410745 -14327 6890 3914
59005 395074 410558 -14316 6849 3921
58866 394841 410254 -14295 6829 3917
58717 394595 409981 -14302 6828 3903
58597 394423 409779 -14337 6843 3887
58528 394382 409706 -14340 6850 3883
58524 394407 409708 -14310 6837 3924
58562 394476 409756 -14370 6811 3886
58628 394574 409816 -14427 6780 3866
58712 394711 409942 -14463 6766 3864
58807 394870 410116 -14434 6783 3849
58912 395048 410300 -14356 6785 3836
59023 395228 410508 -14320 6737 3847
59148 395434 410748 -14361 6708 3843
59284 395627 410953 -14407 6715 3817
59418 395778 411130 -14413 6739 3802
59557 395926 411267 -14376 6773 3801
59698 396071 411382 -14349 6802 3808
59840 396175 411476 -14357 6807 3827
59973 396261 411508 -14355 6807 3856
60100 396324 411550 -14344 6844 3859
60215 396352 411579 -14322 6909 3838
60334 396402 411598 -14281 6952 3815
60455 396450 411626 -14248 6959 3807
60579 396513 411682 -14265 6964 3809
60698 396575 411722 -14299 6972 3804
60768 396564 411710 -14261 6994 3840
60702 396449 411686 -14268 6994 3850
60492 396257 411609 -14302 6992 3858
60181 396037 411542 -14317 6990 3874
59863 395865 411471 -14283 6979 3887
59575 395758 411405 -14241 6972 3897
59347 395654 411357 -14228 6985 3882
59165 395600 411334 -14238 7005 3857
59031 395572 411317 -14253 7027 3861
58920 395550 411300 -14245 7044 3895
58834 395516 411265 -14261 7038 3888
58780 395509 411261 -14250 7029 3886
58785 395551 411276 -14239 7014 3897
58811 395579 411293 -14244 6996 3909
58827 395595 411299 -14237 6987 3909
58822 395595 411302 -14252 6980 3915
58800 395568 411298 -14287 6974 3935
58772 395550 411282 -14288 6972 3951
58741 395528 411279 -14231 6982 3946
58727 395536 411274 -14225 6981 3924
58736 395556 411270 -14232 6985 3903
58763 395583 411289 -14235 6980 3897
58814 395609 411302 -14234 6988 3887
58874 395655 411314 -14214 6993 3878
58949 395684 411338 -14209 6985 3880
59038 395759 411357 -14235 6986 3893
59140 395821 411373 -14250 6992 3904
59248 395884 411409 -14250 6995 3907
59362 395930 411449 -14234 6985 3923
59479 396014 411485 -14223 6965 3922
59595 396066 411503 -14224 6952 3909
59717 396115 411535 -14245 6960 3912
58867 395408 411229 -14257 7009 3917
58722 395368 411203 -14266 6997 3924
58613 395336 411193 -14266 6969 3920
58529 395329 411171 -14268 6934 3923
58480 395323 411173 -14270 6905 3936
58487 395375 411196 -14280 6873 3957
58537 395434 411209 -14221 6868 4010
58587 395455 411221 -14230 6865 4002
58623 395465 411213 -14251 6877 3993
58637 395469 411208 -14250 6888 3986
60475 396405 411628 -14272 6970 3962
60538 396381 411621 -14290 6962 3983
60465 396241 411541 -14283 6939 4003
60250 396029 411458 -14251 6920 4010
59958 395821 411366 -14217 6924 4009
59655 395641 411266 -14216 6951 3995
59402 395514 411205 -14244 6974 3976
59218 395433 411150 -14263 6974 3952
59078 395397 411116 -14253 6967 3920
58982 395378 411094 -14226 6955 3910
58918 395360 411096 -14213 6941 3912
58884 395365 411088 -14225 6925 3909
58898 395404 411075 -14234 6899 3929
58951 395461 411090 -14222 6887 3960
58998 395502 411102 -14223 6896 3982
59017 395496 411108 -14233 6927 4039
59016 395488 411095 -14242 6921 4038
58997 395468 411099 -14256 6927 4021
58978 395446 411098 -14265 6944 4019
58969 395457 411090 -14273 6958 4039
58985 395468 411107 -14277 6970 4026
59017 395500 411115 -14260 6978 4007
59068 395547 411143 -14235 6982 4024
59128 395603 411164 -14220 6984 4030
59202 395630 411170 -14210 6983 4037
59291 395694 411197 -14194 6981 4051
59384 395746 411234 -14196 6981 4044
59494 395815 411247 -14209 6972 4031
59607 395884 411293 -14215 6949 4027
59722 395944 411328 -14222 6929 4026
59844 396002 411357 -14221 6917 4017
59964 396068 411393 -14212 6918 4012
60082 396127 411417 -14198 6917 4001
60209 396195 411460 -14187 6920 3989
60332 396257 411488 -14188 6938 4013
60456 396316 411519 -14197 6948 4006
60586 396383 411546 -14219 6971 3978
60719 396454 411588 -14247 6974 3967
60839 396513 411621 -14262 6955 3974
60889 396466 411610 -14249 6934 3983
60811 396325 411543 -14209 6916 3977
60604 396132 411472 -14213 6911 3962
60334 395948 411399 -14267 6912 3965
60081 395814 411344 -14295 6916 3994
59878 395742 411297 -14289 6914 4022
59739 395696 411260 -14268 6899 4016
59656 395690 411273 -14242 6885 3998
59612 395709 411267 -14229 6881 3997
59601 395718 411265 -14232 6880 4002
59626 395764 411288 -14233 6879 4006
59702 395841 411331 -14227 6889 3998
59780 395892 411365 -14235 6892 3998
59846 395934 411373 -14230 6891 4018
59877 395917 411399 -14215 6899 4029
59885 395914 411389 -14218 6917 4039
59881 395922 411378 -14238 6926 4060
59877 395914 411389 -14245 6925 4065
59889 395921 411374 -14243 6934 4049
59917 395957 411399 -14250 6939 4031
59969 395987 411419 -14262 6937 4015
60036 396029 411443 -14268 6934 4014
60113 396091 411461 -14248 6936 4025
60196 396146 411479 -14225 6947 4033
60297 396206 411525 -14223 6953 4044
60405 396267 411566 -14196 6969 4058
60518 396339 411586 -14193 6955 4039
60638 396406 411638 -14183 6955 4040
60760 396478 411653 -14182 6965 4037
60887 396547 411709 -14196 6985 4024
61013 396608 411737 -14209 6995 4017
61145 396674 411770 -14208 6995 4010
61275 396739 411800 -14206 7000 3999
61404 396814 411849 -14214 7006 3998
61536 396880 411877 -14191 7023 4009
61665 396946 411916 -14207 7012 4008
61788 397004 411931 -14207 7004 4005
61873 397000 411948 -14185 6995 4016
61828 396872 411889 -14171 6990 4015
61638 396672 411803 -14185 7000 4001
61349 396471 411714 -14212 7008 4002
61050 396282 411627 -14221 7014 4016
60789 396158 411578 -14216 7017 4022
60584 396082 411539 -14203 7020 4024
60444 396035 411506 -14176 7014 4032
60350 396025 411504 -14165 6991 4030
60290 396031 411514 -14164 6975 4020
60259 396044 411499 -14153 6966 4011
60268 396096 411526 -14171 6959 4025
60319 396141 411561 -14212 6957 4050
60377 396200 411568 -14216 6953 4054
60703 396426 411690 -14228 7008 4050
60795 396475 411717 -14233 6991 4058
60902 396535 411737 -14236 6961 4076
61013 396604 411769 -14183 6938 4090
61129 396664 411811 -14187 6932 4070
61242 396739 411839 -14188 6937 4062
61363 396807 411875 -14191 6939 4054
61488 396878 411903 -14201 6945 4055
61615 396951 411943 -14204 6948 4050
61739 397005 411957 -14193 6963 4032
61860 397072 412001 -14190 6989 4031
61985 397132 412026 -14199 6993 4045
62112 397197 412060 -14204 6980 4039
62228 397264 412093 -14201 6987 4029
62348 397319 412130 -14205 6992 4026
62473 397392 412150 -14213 6988 4014
62596 397443 412184 -14229 6982 4015
62708 397492 412219 -14240 6972 4016
62743 397442 412192 -14215 6965 4006
62629 397261 412112 -14204 6967 3990
62375 397040 412032 -14233 6980 3982
62038 396800 411924 -14262 6982 3993
61709 396615 411844 -14252 6990 4011
61426 396481 411774 -14224 6993 4018
61209 396411 411725 -14228 6980 4002
61052 396371 411700 -14237 6956 3985
60936 396351 411693 -14225 6923 3979
60848 396337 411668 -14196 6906 3981
60782 396346 411660 -14179 6893 3975
60760 396349 411649 -14196 6890 3961
60779 396397 411665 -14223 6899 3978
60805 396433 411668 -14224 6902 4000
60818 396444 411667 -14205 6914 4015
60808 396418 411670 -14201 6941 4021
60775 396408 411654 -14221 6943 4012
60736 396382 411628 -14239 6920 4006
60700 396353 411601 -14239 6929 4002
60680 396355 411594 -14241 6943 3993
60676 396368 411590 -14264 6935 3986
60695 396386 411619 -14276 6931 3988
60735 396440 411622 -14258 6922 3990
60783 396470 411625 -14248 6910 3998
60846 396518 411650 -14246 6906 4004
60920 396542 411642 -14208 6914 4015
61012 396572 411632 -14227 6893 4015
61115 396620 411625 -14254 6863 4039
61218 396665 411625 -14273 6838 4047
61325 396693 411628 -14281 6839 4050
61430 396736 411638 -14291 6832 4052
61539 396765 411631 -14295 6825 4024
61649 396817 411641 -14290 6838 3997
61771 396874 411663 -14285 6847 3986
61888 396914 411655 -14272 6855 3998
62000 396929 411659 -14285 6834 3985
62082 396887 411568 -14329 6811 3964
62134 396803 411446 -14363 6775 3979
62158 396680 411286 -14389 6753 3986
62179 396559 411093 -14405 6776 3947
62218 396449 410852 -14381 6793 3908
62296 396392 410736 -14329 6765 3906
62398 396418 410687 -14301 6715 3919
62498 396449 410688 -14310 6747 3901
62494 396350 410656 -14374 6774 3881
62346 396187 410585 -14400 6790 3896
62093 396029 410559 -14385 6795 3923
61809 395943 410596 -14373 6811 3928
61544 395905 410700 -14376 6828 3917
61325 395913 410798 -14361 6811 3931
61147 395961 410919 -14328 6801 3958
61023 396065 411115 -14278 6833 3947
60935 396155 411255 -14239 6888 3910
60870 396188 411297 -14244 6910 3916
60850 396232 411325 -14257 6896 3951
60890 396333 411397 -14256 6897 3969
60952 396427 411476 -14264 6909 3949
60997 396454 411489 -14273 6934 3908
61016 396452 411482 -14278 6948 3926
61009 396432 411460 -14304 6921 3992
60988 396404 411457 -14340 6894 4044
60968 396416 411472 -14345 6906 4047
60953 396433 411487 -14309 6918 4020
60953 396454 411494 -14250 6933 4010
60967 396473 411528 -14214 6961 3990
60990 396493 411539 -14225 6968 3952
61032 396531 411548 -14236 6959 3933
61089 396579 411567 -14225 6952 3934
61159 396619 411579 -14217 6938 3951
61244 396672 411596 -14225 6921 3969
61344 396740 411646 -14232 6907 3979
61449 396814 411687 -14237 6898 3989
61564 396900 411741 -14241 6897 3997
61680 396981 411781 -14240 6932 4029
61794 397052 411815 -14240 6932 4018
61909 397118 411853 -14241 6932 4003
62028 397190 411902 -14249 6931 4000
62147 397262 411929 -14240 6937 4019
62267 397308 411940 -14223 6933 4040
62385 397361 411979 -14214 6932 4029
62484 397409 411986 -14208 6960 4020
62512 397344 411974 -14221 6976 4032
62408 397191 411892 -14210 6993 4062
62179 397001 411820 -14205 7008 4053
61888 396776 411735 -14219 7000 4034
61606 396629 411653 -14215 6971 4009
61369 396527 411595 -14186 6954 4008
61195 396465 411552 -14161 6960 4020
61074 396424 411541 -14170 6970 4018
61001 396425 411524 -14204 6965 4018
60958 396432 411519 -14215 6965 4033
60946 396464 411517 -14207 6981 4045
60987 396508 411530 -14211 6992 4059
61049 396573 411564 -14212 6995 4066
61098 396595 411555 -14216 6999 4073
61126 396592 411544 -14223 7001 4064
61125 396579 411543 -14222 7005 4028
61104 396553 411528 -14207 7009 4004
61085 396544 411519 -14197 6998 3989
61072 396521 411511 -14207 6989 3992
61074 396535 411505 -14208 6975 4014
61093 396560 411499 -14205 6967 4028
61128 396584 411505 -14195 6977 4029
61179 396609 411512 -14201 6975 4029
61235 396641 411507 -14220 6961 4047
61312 396684 411510 -14220 6955 4061
61388 396714 411536 -14215 6938 4064
61474 396764 411544 -14221 6928 4063
61563 396796 411549 -14224 6933 4052
61661 396846 411564 -14223 6938 4031
61762 396902 411585 -14231 6948 4020
61870 396967 411594 -14233 6950 4023
61982 397019 411616 -14200 6943 4041
62093 397076 411645 -14174 6934 4058
62210 397146 411681 -14208 6936 4043
62304 397171 411683 -14271 6949 4033
62313 397096 411651 -14309 6957 4050
62191 396935 411588 -14298 6948 4076
61963 396757 411504 -14269 6943 4074
61692 396581 411427 -14233 6934 4043
61446 396449 411382 -14199 6914 4016
61255 396373 411329 -14183 6904 4001
61121 396333 411311 -14155 6925 4006
61043 396324 411306 -14166 6918 4021
60998 396336 411316 -14181 6903 4021
60993 396374 411309 -14200 6914 4003
61040 396440 411335 -14235 6921 3995
61117 396510 411368 -14252 6926 4006
61181 396533 411384 -14251 6931 4008
61220 396558 411397 -14246 6918 4004
61228 396557 411385 -14244 6916 4001
61216 396524 411395 -14244 6928 3995
61653 396850 411523 -14156 6969 4080
61749 396899 411551 -14159 6981 4085
61846 396969 411590 -14184 6985 4078
61946 397022 411609 -14202 6967 4068
62050 397070 411620 -14173 6949 4068
62162 397138 411652 -14148 6959 4083
62263 397180 411686 -14186 6987 4094
62322 397180 411692 -14238 7007 4095
62261 397049 411630 -14255 7011 4111
62062 396864 411547 -14245 7014 4126
61768 396658 411472 -14156 6969 4080
61465 396485 411410 -14159 6981 4085
61209 396364 411346 -14184 6985 4078
61003 396312 411318 -14202 6967 4068
60864 396283 411292 -14173 6949 4068
60766 396257 411286 -14148 6959 4083
60705 396263 411287 -14186 6987 4094
60683 396287 411283 -14238 7007 4095
60709 396359 411320 -14255 7011 4111
60760 396409 411334 -14245 7014 4126
60799 396429 411326 -14188 7004 4127
60815 396444 411337 -14190 6971 4107
60802 396425 411344 -14172 6947 4089
60776 396402 411322 -14158 6938 4075
60746 396392 411329 -14172 6940 4060
60728 396388 411327 -14173 6941 4052
60721 396385 411321 -14149 6944 4058
60735 396405 411334 -14159 6963 4074
60765 396432 411336 -14210 6972 4087
60805 396467 411352 -14223 6980 4104
60862 396499 411372 -14208 6979 4116
60928 396555 411399 -14202 6968 4086
61004 396602 411420 -14184 6959 4054
61083 396666 411446 -14177 6960 4034
61175 396704 411466 -14176 6973 4010
61260 396752 411487 -14175 6982 4010
61359 396804 411515 -14183 6992 4022
61457 396864 411531 -14190 7005 4028
61555 396907 411558 -14195 7007 4036
61657 396975 411584 -14155 7005 4079
61763 397023 411594 -14144 7001 4093
61862 397072 411625 -14148 7000 4095
61954 397114 411652 -14155 6986 4087
61996 397089 411660 -14164 6982 4078
61903 396931 411590 -14179 6986 4072
61664 396702 411482 -14178 6988 4078
61320 396480 411386 -14169 7000 4072
60960 396264 411282 -14185 6999 4063
60647 396120 411215 -14193 6994 4078
60397 396043 411157 -14161 6994 4101
60206 395965 411119 -14138 6989 4101
60060 395936 411106 -14158 6993 4102
59940 395904 411088 -14197 7007 4106
59849 395899 411073 -14209 7011 4105
59796 395912 411081 -14201 7012 4098
59789 395955 411092 -14201 7010 4084
59797 395974 411101 -14194 6992 4077
59789 395973 411112 -14191 6977 4068
59757 395972 411099 -14192 6972 4059
59704 395934 411082 -14154 6975 4069
59644 395892 411052 -14139 6969 4072
59589 395881 411045 -14176 6955 4063
59550 395869 411051 -14181 6954 4059
59531 395877 411039 -14169 6955 4058
59541 395902 411051 -14181 6949 4065
59561 395924 411058 -14194 6947 4073
59595 395949 411065 -14207 6950 4083
59646 395985 411101 -14214 6944 4077
59704 396032 411107 -14197 6951 4062
59775 396090 411115 -14187 6979 4062
59855 396127 411139 -14184 6980 4061
59947 396181 411159 -14186 6979 4074
60043 396233 411175 -14189 6978 4076
60143 396281 411193 -14185 6976 4073
60247 396326 411222 -14181 6969 4077
60347 396385 411253 -14173 6968 4076
60445 396431 411264 -14162 6968 4087
60547 396484 411311 -14158 6964 4108
60648 396542 411316 -14164 6962 4142
60751 396580 411346 -14186 6967 4146
60859 396622 411357 -14199 6975 4145
60950 396654 411362 -14204 6986 4146
60992 396625 411353 -14211 6989 4145
60890 396479 411281 -14195 6994 4128
60640 396258 411178 -14173 7002 4108
60294 396025 411081 -14172 7007 4096
59947 395828 410998 -14170 7008 4100
59638 395701 410926 -14152 7001 4105
59399 395604 410873 -14129 6999 4104
59217 395554 410826 -14138 7007 4085
59081 395519 410803 -14173 7027 4058
58978 395483 410782 -14198 7035 4061
58896 395463 410768 -14198 7033 4080
58855 395480 410767 -14196 7032 4079
58864 395512 410769 -14194 7007 4063
58875 395516 410775 -14181 6987 4055
58872 395522 410770 -14154 6979 4052
58838 395509 410763 -14133 6956 4050
58792 395469 410746 -14138 6941 4067
58739 395453 410743 -14167 6934 4087
58697 395431 410724 -14187 6917 4085
58674 395430 410724 -14185 6908 4069
58675 395460 410731 -14201 6916 4056
58696 395487 410745 -14219 6938 4063
58735 395531 410751 -14228 6950 4080
58789 395558 410778 -14232 6949 4076
58853 395594 410794 -14226 6948 4065
58924 395645 410813 -14221 6945 4064
59012 395698 410837 -14193 6934 4088
59104 395749 410864 -14212 6936 4083
60263 396361 411192 -14225 6895 4094
60321 396338 411195 -14235 6901 4096
60254 396221 411139 -14231 6918 4085
60050 396041 411075 -14235 6923 4077
59758 395851 410976 -14233 6908 4083
59463 395700 410912 -14204 6893 4093
59221 395605 410875 -14168 6891 4086
59050 395543 410843 -14170 6922 4069
58931 395508 410821 -14192 6961 4066
58850 395494 410788 -14204 6981 4080
58793 395482 410779 -14218 6984 4086
58775 395489 410768 -14220 6974 4066
58806 395528 410777 -14200 6966 4044
58857 395554 410766 -14183 6946 4040
58892 395531 410734 -14176 6915 4030
58896 395495 410687 -14176 6897 4026
58881 395470 410674 -14183 6887 4036
58850 395447 410665 -14215 6889 4068
58822 395427 410661 -14220 6903 4109
58802 395432 410658 -14217 6902 4112
58808 395444 410674 -14264 6878 4095
58826 395475 410693 -14298 6867 4082
58864 395502 410693 -14284 6870 4062
58916 395534 410708 -14259 6870 4042
58981 395583 410741 -14259 6877 4031
59049 395622 410748 -14273 6883 4022
59135 395669 410769 -14276 6879 4017
59227 395718 410782 -14262 6880 4020
59316 395730 410771 -14232 6894 4026
59396 395691 410670 -14207 6899 4023
59448 395582 410526 -14215 6891 4012
59467 395440 410317 -14236 6893 3995
59470 395290 410056 -14249 6889 3987
59506 395187 409897 -14264 6881 3995
59590 395222 409890 -14270 6885 3991
59707 395289 409889 -14262 6887 3985
59841 395336 409868 -14265 6878 3975
59972 395395 409871 -14302 6841 3998
60092 395452 409897 -14362 6868 4043
60200 395497 409941 -14293 6906 4017
60226 395500 410018 -14234 6882 4003
60127 395480 410109 -14250 6844 4001
59917 395427 410220 -14301 6847 3985
59624 395348 410308 -14326 6837 3970
59323 395269 410383 -14289 6817 3956
59066 395247 410449 -14212 6818 3961
58870 395238 410488 -14195 6859 3962
58724 395229 410495 -14258 6950 3942
58619 395231 410493 -14263 6968 3952
58552 395219 410516 -14289 6963 3983
58523 395258 410543 -14300 6953 4008
58545 395314 410565 -14283 6962 3989
58587 395356 410566 -14241 6979 3948
58620 395363 410576 -14199 6982 3925
58635 395373 410594 -14192 6976 3929
58622 395399 410648 -14227 6962 3945
58595 395397 410668 -14236 6949 3961
58565 395409 410700 -14201 6937 3984
58545 395414 410706 -14226 6920 4008
58540 395418 410714 -14265 6908 4023
58564 395437 410732 -14257 6918 4015
58606 395494 410754 -14236 6948 3987
58666 395556 410804 -14202 6971 3948
58744 395607 410847 -14164 6982 3923
58834 395672 410907 -14167 7012 3915
58928 395726 410928 -14178 7025 3934
59036 395793 410962 -14179 7017 3960
59151 395899 411023 -14186 7020 3997
59274 395938 411066 -14208 7037 4022
59390 395999 411102 -14209 7046 4001
59506 396056 411125 -14159 7036 3991
59624 396119 411153 -14141 7020 4008
59746 396180 411185 -14152 6993 4029
59860 396226 411219 -14148 6966 4035
59966 396273 411241 -14144 6960 4026
60035 396282 411260 -14140 6977 4018
59990 396175 411220 -14150 6994 4021
59806 396005 411140 -14182 7008 4087
59525 395808 411056 -14179 7005 4095
59223 395649 410986 -14153 7004 4094
58967 395537 410929 -14152 7005 4086
58763 395461 410892 -14182 7004 4088
58616 395422 410871 -14204 6998 4101
58509 395402 410857 -14192 6999 4113
58432 395396 410866 -14179 7011 4121
58379 395401 410833 -14177 7018 4117
58379 395426 410861 -14156 6993 4120
58425 395472 410874 -14137 6976 4125
58470 395517 410897 -14134 6956 4140
58495 395527 410900 -14146 6955 4148
58495 395519 410898 -14132 6958 4154
58481 395485 410910 -14113 6951 4158
58464 395500 410904 -14135 6961 4139
58457 395510 410911 -14164 6981 4122
58464 395515 410912 -14166 6994 4120
58491 395536 410927 -14129 7018 4129
58540 395562 410945 -14137 7018 4115
58600 395614 410973 -14142 7009 4096
58679 395671 410992 -14145 7002 4088
58764 395718 411025 -14147 6995 4101
58861 395779 411048 -14153 6995 4112
58963 395831 411074 -14168 7005 4113
59079 395902 411120 -14166 7017 4105
59192 395961 411152 -14156 7025 4107
59310 396023 411168 -14111 7012 4134
59429 396083 411206 -14105 7019 4129
59554 396143 411235 -14121 7005 4128
59681 396199 411267 -14128 6988 4137
59812 396260 411290 -14121 6988 4130
59939 396301 411309 -14135 6990 4113
60057 396356 411341 -14172 6994 4120
60099 396316 411328 -14189 6983 4136
60007 396164 411267 -14172 6955 4153
59780 395971 411202 -14148 6946 4177
59485 395789 411118 -14150 6965 4184
59188 395627 411044 -14175 6973 4178
58944 395529 410999 -14194 6966 4169
58760 395461 410948 -14183 6956 4173
58629 395432 410941 -14177 6949 4174
58527 395428 410928 -14188 6942 4164
58451 395360 410861 -14175 6932 4145
58396 395321 410805 -14144 6922 4125
58400 395364 410835 -14123 6920 4113
58443 395435 410859 -14129 6916 4117
58493 395474 410884 -14144 6917 4143
58519 395486 410913 -14154 6921 4160
58523 395491 410918 -14172 6922 4146
58504 395466 410912 -14201 6929 4141
58492 395467 410910 -14205 6937 4151
58489 395464 410904 -14196 6944 4152
58505 395493 410910 -14201 6943 4151
58539 395505 410925 -14199 6959 4132
58596 395560 410938 -14175 6973 4107
58660 395596 410959 -14153 6971 4108
58738 395653 410978 -14163 6985 4145
58825 395691 410999 -14163 6995 4142
58928 395730 411004 -14164 7005 4135
59041 395787 411034 -14164 7002 4127
59161 395855 411060 -14149 6984 4130
59281 395908 411087 -14135 6967 4145
59409 395971 411113 -14125 6963 4149
59531 396030 411143 -14125 6968 4144
59663 396093 411179 -14135 6967 4146
59787 396169 411210 -14121 7010 4186
59913 396216 411221 -14140 7018 4191
60036 396274 411250 -14159 7015 4193
60157 396333 411271 -14168 7000 4184
60276 396376 411311 -14162 6989 4177
60398 396428 411327 -14153 6988 4175
60512 396479 411358 -14141 6996 4180
60644 396528 411381 -14148 6999 4178
60772 396585 411408 -14164 6986 4172
60893 396637 411428 -14108 6970 4180
60946 396591 411423 -14109 6964 4164
60861 396450 411349 -14142 6964 4128
60635 396240 411266 -14176 6975 4125
60343 396040 411184 -14189 6994 4147
60058 395889 411096 -14198 7007 4146
59823 395794 411056 -14199 6998 4127
59647 395734 411010 -14180 6965 4124
59531 395696 410983 -14169 6933 4131
59452 395691 410965 -14150 6925 4143
59395 395700 410971 -14121 6926 4148
59360 395706 410958 -14127 6938 4138
59376 395726 410964 -14158 6942 4127
59415 395774 410990 -14177 6929 4132
59446 395789 410992 -14187 6923 4137
59445 395783 410988 -14197 6917 4130
59417 395761 410968 -14200 6930 4126
59378 395729 410959 -14203 6944 4121
59341 395709 410948 -14208 6953 4110
59319 395700 410932 -14192 6958 4101
59314 395704 410941 -14175 6956 4100
59327 395731 410948 -14172 6947 4115
59361 395759 410952 -14182 6937 4118
59409 395783 410953 -14191 6935 4116
59463 395830 410981 -14187 6927 4120
59538 395879 410995 -14182 6912 4117
59620 395924 411034 -14185 6906 4116
59714 395973 411045 -14183 6908 4115
59811 396035 411067 -14185 6908 4122
59912 396103 411112 -14178 6916 4126
60021 396149 411133 -14128 6920 4148
60132 396210 411154 -14147 6920 4145
60242 396274 411188 -14159 6917 4146
60355 396324 411225 -14156 6918 4148
60469 396386 411259 -14170 6927 4143
60580 396442 411289 -14212 6938 4138
60698 396503 411294 -14240 6928 4146
60813 396560 411338 -14229 6905 4165
60927 396620 411374 -14203 6888 4172
61014 396635 411380 -14156 6937 4139
61005 396536 411342 -14187 6965 4123
60867 396388 411270 -14195 6969 4135
60635 396202 411209 -14191 6959 4140
60374 396060 411140 -14192 6956 4141
60144 395933 411079 -14178 6958 4121
59972 395866 411038 -14157 6945 4099
59863 395846 411031 -14138 6928 4099
59796 395843 411030 -14120 6920 4096
59761 395864 411031 -14112 6930 4108
59755 395874 411040 -14121 6946 4140
59796 395937 411076 -14143 6946 4158
59862 396020 411118 -14166 6949 4153
59927 396039 411113 -14185 6952 4144
59960 396056 411132 -14194 6959 4144
59959 396046 411130 -14196 6961 4152
59944 396028 411117 -14196 6955 4156
59926 396010 411121 -14190 6955 4156
59912 396009 411110 -14185 6954 4151
59924 396023 411109 -14179 6951 4155
59947 396052 411115 -14163 6952 4167
59988 396063 411136 -14157 6949 4167
60044 396113 411165 -14168 6930 4168
60116 396172 411176 -14170 6919 4165
60198 396222 411201 -14172 6922 4161
60286 396290 411228 -14178 6917 4164
60380 396352 411267 -14188 6905 4171
60479 396408 411306 -14187 6898 4180
60583 396486 411327 -14172 6910 4182
60691 396529 411347 -14167 6916 4181
60804 396597 411399 -14161 6935 4207
60918 396655 411436 -14180 6926 4202
61030 396728 411448 -14189 6925 4207
61144 396777 411477 -14193 6920 4220
61256 396825 411501 -14188 6922 4221
61367 396889 411543 -14185 6921 4205
61482 396938 411580 -14192 6914 4179
61599 396998 411601 -14197 6903 4172
61715 397061 411628 -14168 6896 4168
61830 397115 411660 -14167 6916 4181
61919 397122 411694 -14161 6935 4207
61896 397033 411641 -14180 6926 4202
61722 396828 411568 -14189 6925 4207
61441 396611 411480 -14193 6920 4220
61126 396432 411383 -14188 6922 4221
60839 396272 411315 -14185 6921 4205
60610 396189 411257 -14192 6914 4179
60443 396145 411224 -14197 6903 4172
60312 396100 411207 -14168 6896 4168
60217 396092 411183 -14102 6934 4150
60144 396067 411177 -14145 6950 4148
60098 396065 411160 -14175 6957 4155
60103 396114 411170 -14186 6973 4158
60128 396157 411186 -14194 6977 4145
60141 396165 411174 -14197 6969 4122
60134 396159 411180 -14198 6950 4122
60102 396139 411177 -14183 6921 4145
60060 396121 411179 -14162 6909 4152
60022 396101 411198 -14144 6923 4161
59999 396110 411203 -14153 6922 4170
59999 396145 411246 -14161 6925 4172
60028 396221 411321 -14186 6929 4157
60074 396263 411390 -14200 6930 4136
60136 396346 411451 -14192 6928 4141
60206 396404 411501 -14176 6920 4147
60283 396458 411526 -14186 6922 4134
60366 396490 411522 -14201 6919 4131
60451 396513 411509 -14201 6905 4131
60539 396519 411462 -14193 6908 4135
60634 396538 411454 -14192 6912 4144
60725 396560 411432 -14204 6912 4142
60823 396591 411410 -14218 6909 4138
60923 396624 411408 -14227 6901 4126
61015 396634 411388 -14222 6888 4123
61098 396609 411301 -14209 6869 4130
61165 396521 411155 -14218 6858 4128
61197 396348 410903 -14235 6856 4132
61200 396120 410557 -14220 6859 4138
61209 395953 410289 -14210 6887 4125
61265 395910 410243 -14229 6867 4142
61364 396000 410283 -14231 6850 4160
61479 396082 410319 -14228 6842 4156
61609 396167 410345 -14242 6805 4151
61743 396286 410421 -14311 6753 4161
61877 396405 410525 -14402 6751 4170
61967 396465 410660 -14378 6803 4163
61936 396452 410751 -14252 6817 4187
61764 396371 410862 -14170 6787 4220
61479 396264 410950 -14195 6779 4186
61151 396115 410951 -14258 6780 4107
60846 395999 410945 -14247 6780 4065
60587 395910 410901 -14166 6772 4094
60387 395866 410914 -14121 6779 4139
60230 395830 410897 -14159 6816 4159
60114 395818 410884 -14223 6865 4170
60020 395795 410883 -14235 6913 4182
59956 395781 410846 -14219 6931 4196
59944 395822 410876 -14185 6959 4195
59953 395869 410909 -14195 6941 4209
59954 395901 410942 -14196 6916 4237
59929 395887 410959 -14176 6909 4253
59880 395864 410951 -14180 6911 4250
59820 395819 410915 -14205 6920 4230
59768 395809 410924 -14199 6901 4247
59732 395812 410935 -14162 6872 4276
59719 395804 410928 -14163 6881 4262
59723 395823 410931 -14171 6902 4239
59754 395857 410958 -14132 6930 4215
59803 395908 410981 -14093 6947 4184
59866 395955 410997 -14101 6944 4181
59943 396010 411034 -14141 6933 4207
60031 396073 411061 -14168 6935 4232
60121 396129 411077 -14176 6946 4239
60220 396177 411111 -14182 6945 4248
60319 396245 411126 -14183 6932 4249
60424 396298 411179 -14168 6932 4230
60529 396352 411203 -14157 6927 4227
60637 396405 411225 -14151 6925 4233
60747 396445 411240 -14126 6920 4235
60855 396488 411264 -14105 6895 4223
60966 396552 411271 -14106 6881 4230
61077 396612 411299 -14115 6890 4256
61175 396655 411339 -14125 6914 4257
61207 396613 411326 -14158 6927 4250
61110 396473 411273 -14176 6941 4256
60883 396284 411202 -14170 6968 4272
60586 396088 411125 -14177 6973 4296
60303 395941 411054 -14147 6973 4355
60059 395833 411007 -14127 6966 4350
59873 395769 410975 -14119 6978 4321
59740 395735 410940 -14133 6980 4284
59649 395727 410957 -14145 6952 4274
59590 395721 410964 -14142 6933 4271
59558 395744 410981 -14128 6922 4253
59570 395788 410996 -14115 6922 4224
59621 395843 411029 -14104 6923 4213
59664 395869 411049 -14108 6920 4250
59690 395879 411059 -14108 6923 4249
59687 395874 411050 -14139 6945 4223
59667 395846 411054 -14171 6954 4208
59645 395845 411050 -14160 6946 4209
59633 395843 411045 -14136 6934 4202
59637 395863 411049 -14148 6930 4193
59665 395881 411076 -14175 6934 4191
59708 395919 411097 -14187 6939 4192
59768 395984 411124 -14178 6958 4193
59841 396009 411142 -14160 6983 4184
59931 396080 411168 -14174 6982 4168
60023 396136 411207 -14205 6975 4155
60129 396202 411253 -14220 6986 4147
60244 396271 411291 -14207 6986 4140
60362 396352 411333 -14175 6988 4128
60484 396414 411359 -14140 7011 4118
60605 396469 411410 -14126 7021 4112
60734 396558 411455 -14141 7016 4122
60870 396640 411501 -14156 7025 4132
61005 396722 411547 -14161 7046 4135
61139 396772 411585 -14184 7054 4139
61267 396864 411651 -14219 7052 4139
