2025-10-09 01:37:20    绿光---红外光---红光---X轴---Y轴---Z轴
53308 301091 291230 -1088 13790 -9026
53293 301078 291201 -1057 13777 -9039
53285 301057 291174 -986 13732 -9035
53284 301037 291152 -988 13709 -9033
53279 300966 291105 -1064 13671 -9043
53270 300866 291062 -1119 13630 -9035
53262 300817 291020 -1033 13691 -8972
53258 300780 290985 -1033 13749 -8958
53251 300735 290958 -1129 13777 -9018
53238 300695 290921 -1102 13757 -9030
53235 300621 290887 -1048 13726 -9033
53227 300588 290874 -1087 13761 -9043
53220 300561 290859 -1121 13784 -9045
53218 300542 290835 -1100 13733 -9042
53216 300539 290824 -1068 13658 -9044
53221 300534 290820 -1111 13669 -9027
53228 300528 290803 -1148 13702 -9032
53233 300517 290795 -1123 13732 -9045
53237 300507 290788 -1083 13733 -9046
53251 300500 290777 -1070 13711 -9047
53259 300512 290787 -1074 13701 -9053
53273 300531 290790 -1099 13689 -9067
53290 300538 290798 -1127 13659 -9067
53307 300541 290798 -1113 13645 -9065
53322 300573 290802 -1080 13640 -9073
53341 300605 290803 -1077 13629 -9094
53360 300620 290794 -1069 13619 -9114
53381 300620 290793 -1071 13629 -9120
53405 300660 290785 -1117 13654 -9120
53420 300610 290766 -1119 13687 -9123
53429 300510 290721 -1068 13660 -9097
53420 300447 290674 -1091 13626 -9067
53410 300417 290632 -1130 13681 -9053
53399 300370 290586 -1148 13708 -9085
53381 300338 290549 -1115 13673 -9127
53366 300343 290521 -1016 13648 -9105
53353 300361 290514 -1062 13681 -9106
53347 300370 290521 -1118 13696 -9122
53344 300402 290506 -1062 13656 -9110
53348 300442 290506 -1023 13626 -9105
53355 300487 290517 -1010 13613 -9107
53371 300547 290527 -1034 13602 -9113
53386 300555 290520 -1079 13598 -9128
53403 300597 290511 -1069 13610 -9134
53423 300634 290514 -1113 13653 -9121
53442 300664 290520 -1078 13674 -9116
53454 300696 290521 -1004 13668 -9121
53469 300721 290529 -1040 13654 -9139
53490 300764 290535 -1091 13647 -9152
53506 300802 290540 -1085 13652 -9155
53523 300838 290554 -1027 13648 -9152
53542 300878 290557 -997 13646 -9149
53567 300923 290573 -1042 13638 -9155
53589 300956 290579 -1070 13613 -9150
53618 301036 290591 -1053 13604 -9147
53644 301095 290604 -1040 13589 -9163
53672 301146 290620 -1061 13583 -9186
53704 301208 290639 -1111 13573 -9185
53738 301265 290656 -1111 13560 -9185
53772 301323 290669 -1082 13563 -9196
53803 301372 290680 -1101 13561 -9193
53837 301433 290697 -1093 13568 -9197
53875 301485 290727 -1061 13588 -9219
53911 301542 290749 -1066 13608 -9223
53946 301579 290759 -1127 13629 -9223
53978 301632 290779 -1134 13639 -9229
54012 301648 290788 -1100 13597 -9206
54038 301610 290767 -1122 13580 -9155
54058 301527 290741 -1169 13581 -9147
54060 301469 290683 -1162 13562 -9197
54058 301435 290673 -1065 13545 -9239
54048 301406 290651 -1024 13537 -9258
54033 301373 290630 -1092 13561 -9273
54021 301375 290609 -1083 13549 -9266
54008 301372 290609 -1014 13504 -9241
54001 301387 290613 -1002 13476 -9212
53996 301415 290607 -1026 13490 -9205
53992 301450 290614 -1075 13508 -9214
53997 301489 290618 -1124 13498 -9215
54000 301541 290640 -1077 13521 -9222
54008 301565 290645 -1037 13538 -9212
54016 301566 290641 -1107 13560 -9212
54026 301605 290641 -1095 13575 -9225
54036 301626 290650 -1006 13562 -9207
54044 301651 290647 -1059 13587 -9219
54053 301667 290653 -1133 13588 -9229
54057 301686 290650 -1107 13564 -9202
54066 301715 290654 -1059 13546 -9183
54077 301743 290673 -1014 13530 -9205
54090 301768 290684 -1032 13520 -9241
54104 301815 290697 -1085 13524 -9248
54118 301839 290707 -1098 13535 -9231
54136 301870 290721 -1068 13534 -9225
54155 301895 290736 -1046 13521 -9231
54170 301923 290742 -1062 13514 -9251
54190 301953 290754 -1091 13510 -9263
54213 301962 290760 -1102 13496 -9261
54228 301976 290769 -1091 13486 -9265
54247 301991 290768 -1086 13481 -9266
54263 302007 290778 -1099 13482 -9271
54280 302024 290789 -1101 13495 -9277
54298 302028 290774 -1096 13505 -9279
54315 302081 290791 -1093 13493 -9282
54338 302131 290806 -1095 13492 -9278
54360 302157 290817 -1123 13535 -9288
54379 302192 290831 -1107 13546 -9318
54401 302205 290827 -1094 13512 -9314
54413 302140 290813 -1121 13500 -9254
54414 302053 290763 -1141 13504 -9239
54399 301989 290721 -1092 13496 -9281
54387 301971 290710 -1005 13483 -9295
54367 301913 290688 -1096 13542 -9309
54341 301871 290667 -1058 13515 -9307
54313 301859 290653 -1003 13476 -9296
54285 301870 290648 -1008 13466 -9280
54264 301867 290647 -1038 13457 -9278
54247 301881 290649 -1066 13443 -9277
54234 301915 290655 -1083 13451 -9279
54224 301953 290668 -1041 13491 -9278
54220 301984 290688 -1034 13498 -9258
54218 302012 290698 -1080 13530 -9252
54213 302000 290694 -1017 13507 -9244
54211 302055 290698 -1072 13534 -9250
54211 302066 290726 -1143 13537 -9270
54208 302100 290725 -1138 13496 -9274
54206 302130 290735 -1094 13478 -9276
54201 302143 290747 -1058 13480 -9276
54199 302164 290745 -1085 13477 -9277
54201 302183 290755 -1157 13486 -9295
54199 302208 290763 -1176 13495 -9300
54203 302260 290779 -1127 13483 -9274
54212 302328 290807 -1106 13470 -9259
54227 302415 290835 -1139 13457 -9275
54241 302470 290858 -1160 13437 -9294
54258 302535 290887 -1140 13449 -9287
54278 302576 290899 -1097 13466 -9263
54296 302590 290908 -1078 13467 -9266
54308 302598 290916 -1090 13475 -9282
54327 302590 290890 -1140 13481 -9296
54332 302513 290849 -1214 13495 -9344
54330 302428 290809 -1230 13497 -9381
54323 302407 290789 -1173 13459 -9377
54322 302388 290775 -1110 13438 -9355
54324 302377 290762 -1075 13460 -9361
54325 302355 290764 -1079 13474 -9396
54324 302377 290769 -1050 13448 -9415
54325 302400 290787 -1023 13403 -9372
54335 302489 290820 -1090 13375 -9306
54341 302506 290839 -1177 13352 -9303
54354 302527 290857 -1139 13369 -9321
54352 302528 290849 -1230 13497 -9381
54351 302549 290857 -1173 13459 -9377
54345 302576 290867 -1110 13438 -9355
54325 302601 290893 -1075 13460 -9361
54310 302615 290907 -1079 13474 -9396
54288 302642 290918 -1050 13448 -9415
54272 302680 290946 -1023 13403 -9372
54256 302710 290958 -1090 13375 -9306
54244 302721 290974 -1177 13352 -9303
54235 302726 290958 -1139 13369 -9321
54221 302764 290972 -887 13476 -9326
54222 302795 290981 -1050 13511 -9352
54221 302813 290994 -1102 13474 -9366
54218 302841 290989 -1015 13451 -9356
54217 302898 291029 -968 13459 -9333
54215 302950 291053 -966 13452 -9305
54218 303001 291079 -988 13427 -9298
54218 303041 291094 -1034 13423 -9315
54221 303071 291120 -1039 13451 -9359
54227 303066 291149 -1026 13461 -9321
54230 303113 291167 -1098 13460 -9319
54239 303149 291188 -1111 13461 -9389
54249 303165 291204 -982 13448 -9399
54263 303194 291223 -1007 13457 -9403
54284 303227 291238 -1099 13445 -9431
54296 303232 291248 -1093 13417 -9446
54309 303231 291237 -1077 13414 -9423
54324 303220 291228 -1029 13400 -9409
54336 303217 291235 -1014 13390 -9416
54355 303201 291228 -1061 13422 -9428
54493 303020 291136 -1109 13416 -9447
54504 302986 291104 -1113 13415 -9442
54506 302895 291063 -1099 13406 -9426
54495 302752 290990 -1102 13398 -9416
54475 302638 290935 -1117 13366 -9428
54448 302545 290886 -1108 13348 -9437
54409 302435 290830 -1119 13365 -9414
54364 302353 290781 -1133 13387 -9406
54319 302258 290735 -1114 13361 -9415
54275 302185 290686 -1122 13367 -9403
54237 302121 290644 -1158 13386 -9374
54196 302050 290611 -1199 13369 -9392
54167 301984 290574 -1120 13364 -9440
54137 301939 290541 -1040 13368 -9441
54112 301892 290525 -1099 13392 -9456
54095 301838 290487 -1135 13406 -9475
54071 301742 290462 -1088 13382 -9456
54051 301676 290414 -1025 13345 -9425
54032 301608 290389 -1050 13338 -9422
54006 301559 290368 -1130 13321 -9409
53986 301521 290345 -1115 13310 -9430
53963 301472 290329 -1064 13347 -9422
53949 301430 290319 -1106 13359 -9418
53934 301378 290283 -1181 13375 -9432
53921 301355 290272 -1115 13373 -9416
53905 301334 290246 -1062 13380 -9420
53897 301319 290241 -1119 13420 -9454
53892 301305 290232 -1166 13394 -9490
53889 301287 290221 -1141 13377 -9470
53885 301258 290205 -1066 13388 -9439
53807 300698 289962 -1094 13346 -9498
53790 300692 289958 -1058 13317 -9549
53780 300712 289962 -962 13300 -9528
53773 300733 289964 -1001 13321 -9538
53771 300758 289976 -1045 13330 -9550
53766 300755 289979 -1001 13286 -9541
53767 300752 289974 -974 13238 -9544
53771 300781 289987 -974 13259 -9531
53773 300780 289987 -1017 13296 -9512
53772 300793 289991 -1060 13268 -9523
53775 300804 289987 -1042 13282 -9536
53779 300828 289992 -1031 13318 -9517
53785 300843 290014 -1088 13332 -9528
53790 300869 290018 -1063 13317 -9546
53796 300888 290031 -979 13291 -9521
53800 300922 290036 -1030 13309 -9512
53813 300946 290038 -1126 13328 -9528
53821 300985 290045 -1126 13319 -9545
53836 301012 290063 -1073 13329 -9524
53853 301024 290064 -1024 13347 -9503
53866 301008 290084 -1046 13332 -9515
53878 301022 290102 -1097 13315 -9521
53890 301003 290121 -1103 13331 -9520
53901 301008 290130 -1060 13332 -9511
53915 301131 290172 -1036 13313 -9505
53941 301423 290226 -1059 13316 -9504
53980 301846 290367 -1079 13291 -9498
54033 302206 290677 -1080 13284 -9512
54134 302288 291246 -1069 13325 -9493
54319 302143 292200 -1132 13343 -9498
54513 301329 293239 -1157 13369 -9507
54339 298718 293365 -1153 13428 -9546
52981 291784 290122 -1218 13634 -9645
46542 268059 264929 -1307 13975 -9793
40413 243613 230823 -1350 14219 -9758
65523 273289 282412 -1247 14145 -9393
79653 289329 310069 -909 13911 -8977
83058 288527 312460 -662 13354 -8699
84044 285042 310127 -931 13375 -8658
83630 281960 307040 -997 13514 -8714
83131 276431 302211 -900 13601 -8926
82932 273263 299796 -873 13657 -9088
82769 271070 297894 -879 13619 -9065
82922 270570 297757 -834 13422 -8896
83041 270409 297611 -682 13294 -8735
83351 270869 298316 -446 13319 -8735
83677 271879 299263 -693 13551 -9059
83915 272752 300103 -712 13733 -9014
84103 273612 300913 -626 13691 -9120
84510 275431 302740 -555 13638 -9220
85083 277889 305316 -533 13693 -9283
86161 281912 309627 -600 13651 -9356
87111 285828 313655 -547 13444 -9409
88254 291734 319486 -607 13367 -9503
89183 298791 325749 -714 13422 -9497
88470 303840 328667 -673 13416 -9403
85362 306069 326157 -682 13407 -9342
78178 303591 314545 -715 13383 -9390
67183 293952 292009 -694 13308 -9476
53440 281130 262775 -624 13222 -9392
47228 278582 261805 -556 13040 -9391
50656 295309 279195 -546 12901 -9467
52111 304541 286394 -596 12963 -9363
52639 304115 288969 -829 13228 -9313
53000 303574 289665 -840 13347 -9447
53221 303675 289732 -672 13310 -9559
53412 303769 289742 -737 13387 -9660
53537 303786 289667 -827 13333 -9779
53637 303794 289626 -870 13227 -9832
53704 303732 289537 -860 13261 -9864
53753 303676 289424 -872 13359 -9918
53787 303612 289345 -925 13421 -9928
53813 303584 289326 -939 13387 -9880
53844 303547 289334 -960 13294 -9820
53866 303426 289314 -1002 13250 -9760
53879 303478 289259 -1031 13247 -9749
53892 303526 289248 -1036 13242 -9727
53912 303592 289249 -971 13204 -9702
53937 303666 289262 -948 13206 -9705
53963 303733 289261 -1035 13255 -9727
54234 303923 289041 -1119 13232 -9640
54255 303969 289035 -1228 13236 -9661
54277 303987 289029 -1258 13228 -9655
54297 304023 289010 -1224 13261 -9635
54319 304051 289011 -1164 13269 -9613
54338 304075 289008 -1198 13283 -9577
54359 304082 288996 -1248 13301 -9576
54380 304087 288997 -1241 13285 -9570
54400 304093 288995 -1206 13257 -9565
54419 304105 288997 -1218 13245 -9547
54496 303469 288768 -1205 13307 -9496
54490 303456 288780 -1090 13293 -9506
54488 303445 288774 -1111 13311 -9534
54493 303454 288769 -1198 13321 -9558
54495 303455 288752 -1186 13304 -9552
54501 303499 288740 -1134 13320 -9526
54511 303513 288739 -1112 13335 -9499
54522 303540 288724 -1129 13289 -9510
54528 303506 288687 -1173 13249 -9531
54536 303514 288654 -1191 13250 -9550
54595 303318 288337 -1099 13294 -9453
54606 303306 288323 -1088 13334 -9465
54620 303280 288305 -1112 13340 -9478
54628 303238 288268 -1127 13310 -9488
54637 303203 288239 -1109 13297 -9497
54649 303175 288217 -1111 13318 -9482
54658 303105 288173 -1124 13301 -9494
54664 303063 288140 -1103 13305 -9492
54674 303020 288104 -1106 13309 -9498
54683 302988 288072 -1134 13293 -9522
54590 302271 287792 -1142 13333 -9574
54580 302238 287787 -1078 13295 -9579
54572 302238 287782 -1067 13270 -9574
54561 302254 287784 -1073 13268 -9541
54551 302233 287799 -1086 13254 -9518
54552 302259 287819 -1147 13230 -9542
54553 302237 287817 -1181 13238 -9578
54560 302285 287860 -1154 13226 -9544
54566 302282 287885 -1181 13221 -9549
54569 302268 287883 -1158 13229 -9585
54567 302230 287884 -1047 13229 -9579
54566 302186 287883 -1092 13265 -9598
54572 302152 287888 -1176 13258 -9630
54572 302109 287870 -1172 13237 -9635
54574 302066 287862 -1147 13222 -9617
54574 302019 287832 -1125 13178 -9623
54573 301973 287802 -1163 13163 -9646
54572 301907 287771 -1232 13169 -9664
54570 301843 287736 -1280 13169 -9671
54562 301770 287691 -1256 13160 -9677
54557 301697 287649 -1232 13161 -9692
54551 301629 287600 -1250 13171 -9691
54545 301544 287558 -1220 13169 -9688
54538 301494 287511 -1180 13169 -9670
54528 301447 287471 -1165 13196 -9656
54519 301391 287422 -1176 13201 -9665
54516 301339 287385 -1192 13157 -9683
54505 301282 287345 -1202 13140 -9707
54498 301282 287326 -1222 13150 -9718
54497 301301 287320 -1228 13153 -9719
54498 301291 287306 -1245 13141 -9728
54498 301273 287297 -1260 13142 -9738
54502 301256 287279 -1256 13159 -9724
54494 301153 287239 -1248 13195 -9718
54484 301015 287189 -1140 13159 -9705
54462 300875 287137 -1223 13166 -9659
54441 300835 287129 -1265 13182 -9647
54415 300742 287100 -1233 13178 -9713
54389 300696 287079 -1115 13173 -9748
54368 300660 287068 -1068 13184 -9750
54350 300633 287054 -1141 13190 -9739
54335 300628 287052 -1134 13155 -9714
54317 300640 287056 -1101 13118 -9682
54306 300659 287059 -1092 13179 -9645
54301 300726 287067 -1133 13156 -9668
54296 300747 287076 -1156 13145 -9694
54286 300742 287078 -1121 13156 -9648
54283 300779 287063 -1146 13167 -9651
54283 300820 287073 -1176 13180 -9672
54279 300840 287084 -1064 13177 -9639
54276 300848 287082 -1062 13181 -9655
54272 300879 287083 -1161 13207 -9678
54271 300906 287087 -1165 13212 -9675
54275 300945 287106 -1115 13216 -9633
54278 300956 287108 -1063 13229 -9620
54281 300997 287118 -1078 13218 -9652
54288 301035 287138 -1139 13216 -9697
54292 301064 287149 -1153 13226 -9715
54304 301090 287158 -1119 13214 -9697
54311 301118 287173 -1085 13196 -9674
54325 301133 287176 -1071 13175 -9667
54336 301160 287177 -1085 13154 -9671
54347 301198 287191 -1098 13149 -9679
54361 301222 287203 -1105 13184 -9663
54377 301247 287216 -1100 13186 -9662
54392 301280 287233 -1079 13159 -9684
54407 301307 287229 -1063 13160 -9695
54428 301341 287257 -1081 13163 -9700
54448 301397 287288 -1099 13151 -9707
54469 301424 287279 -1096 13161 -9706
54485 301199 287165 -1115 13170 -9665
54478 301238 287167 -1000 13147 -9663
54474 301262 287173 -1011 13127 -9688
54467 301309 287184 -1141 13158 -9687
54474 301342 287208 -1104 13168 -9721
54472 301367 287222 -1053 13171 -9690
54471 301366 287213 -1122 13161 -9700
54477 301421 287249 -1139 13170 -9740
54482 301464 287260 -1004 13153 -9733
54488 301499 287281 -1021 13159 -9732
54492 301499 287297 -1139 13170 -9728
54493 301522 287306 -1152 13160 -9722
54499 301550 287314 -1105 13194 -9696
54506 301559 287332 -1069 13221 -9670
54511 301569 287329 -1102 13206 -9669
54515 301587 287345 -1144 13188 -9708
54521 301631 287345 -1151 13158 -9761
54531 301660 287359 -1128 13139 -9792
54542 301696 287364 -1101 13137 -9788
54549 301712 287370 -1091 13128 -9776
54561 301736 287387 -1091 13129 -9771
54571 301762 287398 -1108 13123 -9773
54583 301787 287420 -1104 13143 -9745
54595 301812 287429 -1083 13124 -9737
54608 301849 287447 -1058 13109 -9739
54618 301868 287462 -1075 13106 -9739
54629 301896 287476 -1090 13113 -9737
54642 301932 287488 -1079 13121 -9746
54657 301936 287491 -1075 13133 -9756
54668 301958 287495 -1074 13135 -9759
54684 302004 287514 -1067 13125 -9746
54705 302049 287533 -1087 13150 -9730
54717 302081 287542 -1100 13197 -9728
54734 302101 287547 -1070 13177 -9728
54744 302038 287537 -1064 13156 -9721
54744 301948 287501 -1106 13147 -9691
54735 301868 287453 -1149 13127 -9697
54729 301847 287442 -1092 13113 -9740
54717 301806 287426 -1007 13098 -9749
54699 301763 287408 -1058 13118 -9764
54682 301744 287396 -1109 13127 -9784
54668 301738 287389 -1060 13121 -9777
54653 301714 287381 -1018 13147 -9752
54641 301693 287364 -1024 13163 -9746
54630 301706 287366 -1060 13133 -9744
54620 301720 287364 -1109 13116 -9752
54614 301746 287356 -1110 13121 -9786
54608 301759 287365 -1044 13132 -9776
54601 301715 287353 -1063 13122 -9762
54590 301685 287336 -1139 13139 -9753
54583 301678 287327 -1064 13150 -9725
54571 301670 287324 -1022 13138 -9728
54556 301657 287318 -1092 13179 -9738
54538 301663 287308 -1139 13183 -9739
54524 301661 287306 -1125 13147 -9740
54508 301666 287305 -1061 13125 -9735
54493 301657 287289 -1030 13122 -9722
54480 301659 287296 -1056 13128 -9747
54468 301657 287272 -1090 13138 -9775
54461 301641 287243 -1085 13152 -9770
54450 301680 287245 -1075 13182 -9759
54446 301997 287381 -1084 13331 -9823
54456 302377 287639 -1086 13552 -9823
54484 302709 287996 -1021 13455 -9632
54528 302969 288381 -968 13316 -9471
54572 303179 288721 -1006 13200 -9332
54618 303363 289030 -1092 13207 -9247
54681 303590 289377 -1151 13268 -9204
54763 303831 289746 -1169 13403 -9214
54866 304030 290146 -1192 13552 -9209
55047 304287 290778 -1200 13601 -9162
55379 304798 292023 -1203 13972 -9208
55961 305733 294281 -1090 14190 -9153
56966 306755 298217 -867 14368 -9028
57711 306108 301300 -614 14112 -8893
56869 300019 300062 -536 13355 -8725
49670 274333 273402 -815 13039 -8653
43440 247868 236011 -1010 13231 -8749
67143 272704 282654 -926 13509 -8964
82101 288184 309843 -815 13774 -9102
84978 285604 309772 -678 13554 -8932
85491 281951 306544 -728 13335 -8838
86162 281470 306945 -613 13146 -8872
86452 280130 306289 -325 13260 -9005
86425 277999 304803 -418 13486 -9008
86543 277666 304802 -668 13436 -9053
85626 274632 301375 -657 13515 -9233
85106 273236 299772 -446 13789 -9344
85091 273720 300019 -374 13638 -9440
84943 273771 299905 -511 13474 -9546
85239 275015 301206 -591 13473 -9583
85631 276859 303036 -574 13317 -9556
86140 279007 305183 -501 13233 -9522
86560 280684 306976 -579 13256 -9608
87387 283968 310401 -624 13185 -9650
88100 288398 314450 -418 13033 -9617
89046 294988 320446 -438 12982 -9655
88845 300508 324260 -613 12926 -9692
86341 303436 323494 -689 12868 -9528
79818 302320 314159 -890 12982 -9308
67314 291350 288303 -889 13198 -9344
52962 278870 259709 -707 13246 -9605
47803 277795 262681 -785 13236 -9866
50559 289924 277026 -923 13426 -9986
51724 298443 282817 -870 13461 -9974
52259 302734 285461 -772 13256 -9856
52629 302608 287627 -840 13168 -9807
53046 302734 288680 -915 13144 -9862
53207 302333 288820 -898 13107 -9901
53481 302861 289356 -923 13136 -9909
53696 303573 289745 -889 13198 -9344
53804 303928 289770 -707 13246 -9605
53875 304087 289769 -785 13236 -9866
53929 304236 289769 -923 13426 -9986
53977 304392 289793 -870 13461 -9974
54033 304557 289778 -772 13256 -9856
54085 304648 289746 -840 13168 -9807
54123 304764 289694 -915 13144 -9862
54156 304796 289635 -898 13107 -9901
54182 304738 289577 -923 13136 -9909
54196 304629 289489 -987 13180 -9865
54188 304494 289389 -1000 13154 -9896
54176 304362 289295 -964 13099 -9902
54153 304214 289208 -990 13075 -9873
54120 304097 289136 -1076 13134 -9881
54091 304029 289078 -1072 13153 -9905
54058 303998 289056 -1032 13095 -9869
54026 303991 289037 -1054 13078 -9809
54004 303974 289014 -1107 13074 -9802
53978 303952 288992 -1127 13071 -9820
53951 303987 288982 -1044 13074 -9808
53934 303973 288967 -1038 13078 -9788
53921 303968 288959 -1140 13097 -9786
53902 303906 288915 -1178 13110 -9799
53888 303880 288892 -1142 13116 -9783
53872 303844 288867 -1096 13114 -9760
53849 303805 288850 -1156 13115 -9760
53825 303764 288820 -1250 13096 -9752
53807 303735 288796 -1257 13066 -9743
53789 303731 288784 -1204 13151 -9683
53732 303758 288686 -1253 13178 -9716
53739 303807 288688 -1246 13176 -9732
53755 303830 288681 -1223 13157 -9728
53763 303840 288692 -1206 13147 -9696
53773 303861 288694 -1214 13153 -9684
53776 303809 288686 -1237 13156 -9693
53772 303714 288636 -1232 13161 -9685
53750 303560 288548 -1192 13147 -9687
53715 303432 288471 -1186 13147 -9676
53675 303310 288395 -1198 13187 -9626
53627 303168 288306 -1223 13222 -9589
53576 303050 288221 -1223 13234 -9608
53527 302968 288169 -1215 13229 -9626
53477 302888 288104 -1236 13222 -9597
53435 302808 288056 -1260 13218 -9568
53396 302725 287993 -1302 13241 -9589
53360 302648 287935 -1225 13240 -9589
53320 302582 287883 -1153 13217 -9568
53298 302501 287835 -1246 13263 -9596
53264 302382 287767 -1227 13280 -9573
52959 301579 287272 -1229 13243 -9599
52946 301531 287237 -1232 13207 -9620
52931 301491 287219 -1173 13187 -9620
52922 301461 287204 -1145 13176 -9612
52915 301416 287185 -1178 13170 -9630
52907 301390 287161 -1217 13177 -9661
52904 301361 287145 -1205 13174 -9638
52898 301306 287110 -1140 13199 -9577
52895 301276 287075 -1159 13185 -9598
52890 301231 287055 -1183 13162 -9633
52773 300453 286665 -1161 13205 -9679
52723 300354 286623 -1136 13165 -9663
52676 300283 286587 -1194 13147 -9654
52629 300226 286566 -1214 13138 -9687
52593 300169 286551 -1162 13119 -9724
52558 300136 286530 -1073 13108 -9736
52528 300109 286512 -1078 13148 -9745
52500 300098 286495 -1142 13195 -9759
52471 300071 286496 -1100 13168 -9747
52455 300059 286495 -1037 13111 -9718
52437 299992 286469 -1043 13084 -9717
52421 299991 286467 -1093 13084 -9736
52407 299951 286464 -1140 13087 -9749
52394 299937 286446 -1150 13085 -9787
52375 299917 286439 -1084 13086 -9779
52362 299906 286431 -1075 13091 -9757
52350 299908 286441 -1149 13108 -9759
52343 299926 286451 -1112 13163 -9727
52335 299938 286457 -1047 13189 -9714
52333 299961 286456 -1087 13169 -9740
52337 300007 286480 -1137 13157 -9763
52342 300026 286491 -1121 13136 -9754
52347 300051 286494 -1076 13121 -9735
52356 300084 286507 -1036 13128 -9731
52370 300100 286514 -1058 13122 -9728
52383 300154 286526 -1103 13110 -9725
52399 300157 286529 -1097 13100 -9713
52415 300175 286533 -1060 13123 -9679
52433 300202 286545 -1049 13143 -9682
52448 300222 286550 -1077 13132 -9715
52466 300244 286559 -1099 13126 -9730
52489 300263 286566 -1102 13105 -9743
52512 300305 286574 -1102 13105 -9748
52537 300353 286586 -1104 13112 -9735
52558 300351 286582 -1115 13105 -9739
52581 300367 286599 -1123 13108 -9758
52602 300325 286584 -1136 13108 -9765
52616 300237 286556 -1130 13152 -9710
52614 300148 286512 -1137 13172 -9709
52605 300086 286485 -1145 13201 -9711
52597 300027 286474 -1114 13171 -9702
52578 299974 286461 -1147 13139 -9696
52560 299941 286454 -1196 13151 -9666
52544 299918 286441 -1199 13131 -9673
52529 299937 286449 -1155 13119 -9734
52516 299938 286440 -1052 13123 -9760
52503 299929 286433 -1093 13161 -9778
52498 299953 286421 -1172 13195 -9762
52493 299947 286434 -1113 13161 -9721
52489 299927 286423 -1060 13123 -9709
52486 299890 286395 -1093 13111 -9691
52487 299876 286391 -1181 13109 -9676
52491 299875 286378 -1237 13104 -9702
52494 299864 286377 -1208 13116 -9743
52495 299863 286376 -1129 13134 -9706
52499 299866 286374 -1157 13157 -9689
52508 299868 286377 -1194 13175 -9710
52516 299888 286388 -1091 13180 -9688
52528 299883 286381 -1080 13190 -9697
52541 299898 286393 -1153 13171 -9724
52559 299900 286392 -1183 13128 -9729
52573 299925 286401 -1166 13109 -9714
52592 299953 286414 -1114 13116 -9721
52610 299982 286422 -1117 13120 -9735
52631 300007 286432 -1158 13121 -9746
52650 300016 286434 -1149 13120 -9745
52673 300033 286438 -1096 13125 -9728
52694 300050 286447 -1079 13146 -9707
52718 300066 286440 -1105 13132 -9704
52741 300075 286441 -1128 13110 -9719
52764 300097 286444 -1142 13114 -9725
52790 300120 286443 -1141 13108 -9737
52812 300130 286451 -1141 13107 -9757
52836 300170 286465 -1150 13109 -9770
52865 300215 286474 -1156 13113 -9760
52890 300218 286479 -1149 13118 -9754
52915 300245 286487 -1119 13123 -9763
52933 300187 286461 -1098 13181 -9743
52947 300106 286422 -1097 13137 -9737
52947 299981 286371 -1122 13119 -9745
52944 299931 286338 -1139 13137 -9775
52936 299872 286324 -1111 13119 -9782
52919 299826 286311 -1138 13110 -9755
52903 299798 286295 -1181 13120 -9723
52893 299795 286303 -1173 13109 -9738
52884 299791 286312 -1098 13099 -9759
52873 299806 286318 -1018 13113 -9738
52866 299814 286329 -1063 13184 -9737
52870 299836 286338 -1111 13195 -9754
52868 299866 286340 -1081 13137 -9747
52870 299855 286333 -1053 13110 -9725
52867 299804 286323 -1065 13100 -9726
52867 299772 286293 -1103 13085 -9730
52868 299740 286285 -1133 13083 -9727
52865 299702 286247 -1128 13088 -9748
52861 299671 286242 -1084 13109 -9725
52860 299639 286227 -1110 13130 -9731
52859 299611 286208 -1060 13163 -9700
52858 299586 286194 -1065 13145 -9729
52859 299589 286188 -1157 13145 -9735
53301 301501 287897 -1229 13272 -9778
53475 301846 288513 -1236 13268 -9702
53686 302220 289277 -1135 13218 -9556
53941 302601 290171 -1153 13266 -9475
54303 303217 291483 -1266 13431 -9473
54987 304374 294091 -1287 13398 -9418
55894 305619 297722 -1176 13495 -9305
56583 304825 300977 -1240 13520 -9226
54863 295344 297010 -1296 13621 -9208
44713 259121 254292 -1263 13849 -9216
46476 246723 239380 -1134 14176 -9160
69167 272889 286524 -888 14348 -8955
81234 285206 308184 -556 14175 -8806
84336 283358 308908 -494 13621 -8739
85366 281046 306865 -831 13169 -8635
85428 279124 304961 -1016 13139 -8640
86536 280841 307590 -845 13312 -8781
86940 280798 308113 -580 13606 -8968
87186 280396 308131 -533 13728 -9064
86747 278899 306332 -713 13606 -8994
85545 275094 301853 -749 13388 -8873
84898 273723 300057 -676 13189 -8795
84342 273044 298674 -574 13140 -8861
83418 271079 296034 -543 13333 -8956
83684 273299 298133 -679 13520 -8999
84705 278088 302874 -624 13618 -9114
85131 280254 304870 -392 13697 -9215
85764 283261 307955 -386 13488 -9186
86706 288006 312697 -511 13306 -9317
87537 293786 317919 -706 13505 -9697
87488 298787 321376 -842 13632 -9791
85859 303004 322501 -761 13434 -9654
81635 303147 317179 -595 13243 -9716
74669 298264 304516 -598 13122 -9868
66600 289288 285717 -664 13056 -9892
57436 279922 265217 -543 12943 -9844
50276 273182 252583 -631 12792 -9752
45499 269801 249066 -954 12815 -9647
48301 278479 268794 -1048 12925 -9679
50167 290440 277671 -802 13019 -9822
53843 302705 288992 -1111 13000 -10023
53867 302612 288838 -1120 12965 -9920
53882 302510 288761 -1157 12972 -9855
53885 302444 288701 -1219 13002 -9866
53891 302455 288676 -1188 13027 -9890
53901 302474 288648 -1174 13124 -9850
53914 302520 288636 -1258 13139 -9842
53927 302592 288646 -1295 13096 -9838
53945 302675 288653 -1309 13074 -9806
53960 302742 288659 -1315 13061 -9775
53984 302816 288695 -1342 13050 -9759
54002 302846 288698 -1350 13056 -9752
54022 302906 288698 -1318 13076 -9748
54038 302946 288696 -1314 13077 -9688
54048 302974 288685 -1358 13103 -9672
54056 302984 288678 -1371 13169 -9700
54064 303019 288682 -1304 13171 -9704
54073 303019 288686 -1335 13159 -9740
54078 303010 288693 -1430 13156 -9764
54083 303015 288689 -1451 13122 -9748
54088 303018 288689 -1435 13101 -9734
54096 303004 288685 -1390 13094 -9737
54104 302987 288691 -1367 13090 -9742
54109 302981 288680 -1382 13096 -9760
54123 302978 288678 -1397 13121 -9758
54133 302970 288677 -1355 13154 -9744
54148 302952 288681 -1317 13145 -9734
54160 302938 288670 -1338 13118 -9738
54169 302930 288660 -1354 13110 -9761
54185 302927 288657 -1359 13102 -9781
54200 302909 288642 -1382 13107 -9800
54213 302921 288629 -1368 13100 -9794
54224 302873 288612 -1350 13096 -9766
54231 302776 288570 -1353 13125 -9758
54230 302634 288504 -1321 13130 -9765
54211 302523 288439 -1302 13160 -9738
54196 302441 288389 -1320 13174 -9690
54170 302357 288332 -1354 13147 -9670
54140 302270 288282 -1351 13150 -9686
54113 302208 288242 -1240 13142 -9695
54085 302144 288192 -1208 13147 -9687
54053 302060 288145 -1297 13184 -9693
54028 301980 288104 -1318 13174 -9710
54001 301918 288064 -1282 13139 -9700
53967 301859 288028 -1260 13130 -9673
53947 301769 287996 -1254 13148 -9664
53919 301662 287941 -1288 13139 -9694
53895 301574 287889 -1245 13161 -9696
53871 301519 287868 -1240 13151 -9673
53848 301459 287828 -1312 13150 -9668
53825 301377 287785 -1262 13149 -9670
53798 301286 287736 -1181 13129 -9674
53772 301207 287696 -1236 13148 -9697
53747 301126 287654 -1290 13149 -9694
53721 301086 287628 -1272 13167 -9661
53700 301024 287593 -1249 13177 -9651
53680 300959 287557 -1223 13160 -9675
53661 300907 287519 -1225 13150 -9690
53645 300860 287499 -1270 13147 -9711
53633 300814 287464 -1294 13152 -9719
53617 300766 287438 -1262 13135 -9708
53607 300722 287398 -1236 13117 -9708
53593 300663 287377 -1259 13118 -9715
53585 300623 287348 -1281 13122 -9723
53576 300565 287306 -1248 13120 -9702
53566 300535 287284 -1254 13128 -9713
53562 300511 287277 -1257 13136 -9749
53556 300495 287252 -1259 13116 -9767
53551 300450 287230 -1253 13102 -9771
53545 300401 287193 -1274 13117 -9776
53535 300310 287154 -1303 13152 -9782
53520 300181 287095 -1242 13142 -9780
53493 300016 287010 -1202 13102 -9764
53454 299877 286935 -1239 13100 -9712
53414 299775 286884 -1260 13126 -9707
53367 299659 286826 -1242 13124 -9771
53312 299558 286770 -1150 13092 -9791
53263 299488 286743 -1135 13089 -9790
53218 299421 286719 -1212 13098 -9789
53170 299367 286684 -1174 13099 -9789
53131 299321 286669 -1095 13074 -9779
53099 299281 286653 -1088 13051 -9778
53058 299259 286644 -1138 13045 -9795
53034 299217 286637 -1178 13047 -9792
53011 299211 286632 -1154 13091 -9800
52988 299281 286661 -1098 13118 -9775
52958 299262 286673 -1139 13107 -9780
52916 299168 286651 -1189 13091 -9858
52877 299132 286678 -1134 13073 -9869
52839 299152 286688 -1106 13076 -9790
52804 299240 286689 -1145 13083 -9771
52768 299385 286704 -1203 13083 -9823
52738 299520 286707 -1193 13076 -9809
52706 299671 286717 -1114 13049 -9797
52682 299800 286722 -1161 13082 -9839
52669 299870 286732 -1229 13067 -9858
52656 299917 286741 -1215 13058 -9851
52645 299945 286733 -1163 13040 -9827
52633 299938 286715 -1136 13040 -9825
52615 299904 286685 -1171 13035 -9836
52598 299869 286634 -1205 13018 -9839
52586 299833 286599 -1180 13015 -9842
52580 299842 286567 -1139 13029 -9846
52576 299865 286563 -1175 13085 -9841
52580 299889 286563 -1185 13057 -9855
52587 299903 286558 -1203 13042 -9848
52586 299887 286543 -1222 13073 -9850
52594 299920 286543 -1180 13087 -9861
52592 299867 286516 -1139 13036 -9840
52583 299791 286469 -1186 13017 -9816
52561 299660 286388 -1200 13046 -9806
52544 299636 286372 -1205 13056 -9830
52525 299620 286365 -1086 13070 -9823
52497 299574 286326 -1163 13083 -9834
52470 299572 286325 -1184 13075 -9843
52449 299601 286328 -1125 13044 -9836
52432 299614 286336 -1097 13023 -9837
52417 299668 286340 -1114 13024 -9856
52406 299701 286349 -1155 13023 -9854
52405 299763 286364 -1175 13013 -9849
52405 299800 286400 -1134 13036 -9847
52403 299826 286399 -1137 13077 -9840
52400 299815 286394 -1188 13105 -9812
52398 299843 286404 -1108 13095 -9791
52397 299846 286401 -1064 13068 -9814
52392 299846 286416 -1149 13075 -9844
52389 299852 286411 -1203 13077 -9857
52384 299859 286419 -1189 13048 -9835
52380 299877 286434 -1135 13046 -9821
52383 299908 286449 -1134 13056 -9822
52379 299915 286449 -1185 13051 -9817
52378 299948 286470 -1206 13066 -9822
52381 299966 286478 -1176 13091 -9801
52384 299994 286482 -1149 13089 -9784
52389 300018 286498 -1149 13075 -9803
52396 300022 286511 -1160 13072 -9792
52403 300033 286513 -1175 13065 -9790
52413 300058 286526 -1181 13053 -9812
52420 300076 286523 -1178 13046 -9827
52432 300088 286536 -1180 13047 -9840
52449 300097 286536 -1185 13051 -9845
52465 300100 286542 -1199 13051 -9848
52478 300127 286541 -1197 13063 -9823
52501 300170 286566 -1176 13073 -9816
52527 300205 286576 -1185 13069 -9841
52542 300198 286581 -1214 13083 -9844
52567 300219 286586 -1187 13055 -9846
52575 300132 286559 -1172 13038 -9832
52576 299998 286507 -1219 13060 -9789
52561 299864 286449 -1237 13054 -9787
52552 299817 286409 -1219 13054 -9841
52531 299755 286391 -1121 13050 -9858
52506 299681 286357 -1148 13108 -9827
52485 299639 286338 -1108 13053 -9826
52468 299618 286337 -1076 13024 -9825
52447 299620 286341 -1109 13014 -9833
52436 299636 286350 -1149 13002 -9834
52428 299648 286353 -1178 13002 -9834
52428 299682 286357 -1170 13011 -9845
52428 299720 286377 -1085 13028 -9837
52432 299733 286390 -1099 13036 -9843
52429 299681 286369 -1102 13097 -9808
52435 299714 286371 -1062 13065 -9826
52440 299732 286389 -1152 13070 -9862
52444 299722 286384 -1218 13058 -9886
52448 299744 286399 -1188 13036 -9886
52453 299759 286389 -1109 13038 -9869
52460 299770 286403 -1086 13038 -9860
52465 299790 286413 -1139 13035 -9871
52478 299794 286415 -1175 13045 -9869
52489 299819 286417 -1145 13075 -9857
52501 299833 286427 -1095 13086 -9847
52515 299833 286428 -1106 13059 -9862
52526 299829 286427 -1141 13038 -9887
52538 299829 286420 -1141 13022 -9891
52552 299817 286427 -1141 13000 -9892
52559 299797 286417 -1147 12987 -9899
52565 299777 286396 -1149 12987 -9897
52571 299765 286379 -1156 12996 -9906
52570 299748 286353 -1167 13009 -9908
52567 299725 286336 -1160 13046 -9893
52556 299660 286281 -1157 13083 -9880
52528 299535 286202 -1173 13060 -9880
52498 299430 286103 -1205 13049 -9901
52463 299348 286014 -1256 13065 -9897
52407 299182 285887 -1243 13069 -9895
52366 299098 285818 -1223 13068 -9891
52329 299048 285738 -1247 13137 -9876
52282 299031 285658 -1262 13275 -9856
52239 299057 285687 -1312 13483 -9869
52219 299179 285970 -1282 13724 -9879
52352 299534 286914 -1145 13849 -9799
52775 299835 289462 -1185 14061 -9695
53795 300231 295308 -1206 14378 -9539
52798 292065 293360 -911 14240 -9235
43836 257438 251682 -574 13271 -8916
49683 252332 248041 -697 12601 -8761
73490 279380 296490 -1053 12893 -8725
80389 281913 304391 -975 13159 -8809
82032 276631 300823 -675 13299 -9029
82150 273072 297362 -585 13422 -9057
83075 273760 298836 -830 13171 -8849
83417 271945 297639 -693 13189 -8997
83530 270357 296605 -599 13359 -9019
83432 269124 295412 -782 13400 -9042
82508 266222 292021 -792 13370 -9207
81718 263914 289403 -483 13614 -9346
81421 263540 288763 -362 13688 -9370
81161 263370 288232 -456 13492 -9519
80995 263313 288002 -591 13480 -9791
81605 265747 290549 -585 13422 -9057
82133 267766 292570 -830 13171 -8849
82282 268808 293663 -693 13189 -8997
83367 273501 298515 -599 13359 -9019
84545 279886 304750 -782 13400 -9042
85792 288376 312644 -792 13370 -9207
85604 296235 318015 -483 13614 -9346
82453 300657 317162 -362 13688 -9370
73992 296623 302777 -456 13492 -9519
62208 285401 276447 -591 13480 -9791
51854 276221 256528 -635 13310 -9683
46441 272417 254078 -550 13150 -9703
49343 281166 270957 -543 13083 -9719
49695 287950 275781 -459 12951 -9719
50802 296698 280285 -474 12845 -9673
51221 300399 282987 -586 12759 -9585
51686 300636 285663 -727 12771 -9540
52165 300312 286772 -800 12949 -9703
52521 300821 287251 -792 13083 -9962
52788 301078 287572 -848 13184 -10138
52974 301379 287697 -912 13299 -10175
53087 301642 287700 -926 13218 -10126
53155 301710 287669 -897 13025 -10094
53214 301854 287659 -889 12981 -10052
53260 301935 287594 -914 13000 -9984
53287 301920 287520 -943 12943 -9959
53313 301908 287456 -968 12929 -9974
53336 301923 287430 -1023 12992 -10003
53362 301898 287382 -1052 13029 -10007
53381 301925 287359 -990 12995 -9986
53403 301887 287326 -1030 13028 -10004
53425 301886 287315 -1129 13108 -10022
53438 301812 287267 -1107 13098 -10002
53454 301786 287224 -1084 13045 -9986
53468 301750 287201 -1115 13005 -9971
53479 301687 287154 -1169 12988 -9938
53487 301638 287116 -1224 12977 -9910
53495 301594 287081 -1250 12985 -9904
53505 301564 287052 -1228 13025 -9886
53516 301551 287044 -1218 13021 -9852
53528 301550 287034 -1247 13051 -9824
53541 301544 287009 -1201 13093 -9808
53554 301521 286996 -1165 13081 -9810
53571 301532 286995 -1269 13114 -9833
53590 301574 287012 -1366 13123 -9856
53610 301589 287018 -1358 13100 -9835
53632 301625 287030 -1321 13084 -9805
53654 301654 287033 -1296 13062 -9801
53679 301692 287046 -1329 13058 -9814
53700 301731 287075 -1385 13077 -9811
53725 301752 287079 -1372 13127 -9763
53746 301785 287096 -1315 13142 -9736
53772 301815 287107 -1293 13112 -9747
53787 301767 287098 -1326 13094 -9755
53798 301697 287059 -1360 13070 -9763
53797 301562 286998 -1358 13061 -9773
53797 301513 286976 -1356 13052 -9799
53794 301490 286968 -1351 13048 -9801
53788 301444 286949 -1355 13064 -9786
53779 301427 286938 -1388 13093 -9795
53820 301559 286921 -1277 13064 -9728
53825 301545 286916 -1311 13054 -9770
53830 301492 286880 -1316 13065 -9812
53833 301419 286840 -1310 13059 -9770
53835 301359 286786 -1367 13073 -9760
53833 301293 286744 -1387 13086 -9801
53837 301228 286682 -1291 13075 -9799
53831 301142 286642 -1307 13100 -9803
53829 301054 286575 -1370 13111 -9791
53825 300977 286534 -1352 13117 -9775
53822 300910 286496 -1339 13107 -9772
53822 300847 286458 -1318 13082 -9784
53820 300810 286429 -1310 13073 -9807
53824 300754 286396 -1341 13074 -9815
53826 300693 286357 -1368 13063 -9811
53826 300652 286336 -1345 13058 -9817
53827 300622 286319 -1309 13062 -9818
53831 300583 286292 -1296 13050 -9816
53835 300553 286269 -1303 13041 -9825
53836 300515 286255 -1298 13059 -9820
53842 300513 286247 -1291 13057 -9821
53850 300491 286235 -1286 13027 -9842
53861 300491 286218 -1275 13019 -9857
53872 300489 286214 -1270 13020 -9874
53887 300494 286198 -1267 13026 -9878
53890 300429 286173 -1258 13036 -9867
53886 300353 286128 -1254 13040 -9866
53867 300276 286078 -1255 13041 -9880
53847 300186 286047 -1228 13040 -9875
53816 300091 286013 -1216 13065 -9825
53779 300007 285982 -1238 13086 -9812
53746 299931 285949 -1229 13057 -9859
53715 299885 285924 -1230 13054 -9873
53682 299829 285906 -1262 13053 -9837
53654 299773 285885 -1268 13051 -9825
53631 299716 285878 -1160 13036 -9834
53611 299686 285869 -1058 13003 -9822
53587 299652 285868 -1096 13029 -9834
53572 299615 285849 -1120 13047 -9856
53550 299546 285811 -1053 13055 -9808
53528 299511 285786 -1062 13036 -9828
53513 299478 285769 -1093 13018 -9833
53487 299442 285731 -1127 13009 -9846
53467 299406 285707 -1109 13019 -9876
53445 299367 285680 -1034 13034 -9863
53423 299339 285659 -1075 13030 -9870
53402 299320 285630 -1150 13033 -9886
53382 299308 285609 -1066 13029 -9862
53363 299286 285588 -1120 13099 -9901
53343 299272 285567 -1163 13081 -9899
53325 299234 285532 -1122 13039 -9888
53306 299196 285499 -1048 13021 -9885
53291 299156 285465 -1030 13018 -9886
53273 299126 285422 -1088 13006 -9903
53258 299101 285405 -1129 13008 -9910
53246 299103 285392 -1099 13017 -9894
53238 299102 285376 -1073 13001 -9880
53232 299113 285380 -1085 13035 -9871
53230 299135 285375 -1103 13019 -9880
53224 299122 285367 -1103 13003 -9900
53223 299147 285380 -1110 13001 -9912
53227 299184 285389 -1114 12989 -9920
53230 299220 285404 -1123 12993 -9924
53230 299210 285387 -1128 13004 -9918
53237 299255 285415 -1139 13007 -9922
53238 299231 285386 -1151 13001 -9921
53232 299172 285349 -1136 13015 -9900
53212 299083 285284 -1138 13065 -9883
53191 299041 285245 -1152 13080 -9882
53177 299021 285239 -1111 13022 -9889
53155 299012 285233 -1090 12969 -9893
53136 299017 285246 -1159 12970 -9876
53121 299034 285264 -1192 12984 -9872
53109 299069 285295 -1163 12990 -9922
53099 299103 285314 -1056 12968 -9952
53096 299139 285332 -1057 12975 -9947
53097 299187 285352 -1141 13011 -9941
53104 299250 285382 -1097 13031 -9901
53115 299272 285397 -1062 13002 -9873
53115 299233 285392 -1080 12969 -9888
53120 299258 285389 -1115 12980 -9900
53129 299242 285404 -1152 12977 -9902
53129 299237 285413 -1140 12995 -9923
53141 299265 285462 -1074 13033 -9902
53162 299340 285531 -1122 13065 -9913
53170 299376 285559 -1157 13061 -9952
53178 299380 285567 -1036 13010 -9936
53179 299393 285575 -1031 13024 -9927
53183 299430 285591 -1111 13044 -9929
53185 299430 285595 -1132 12993 -9933
53192 299436 285606 -1093 12960 -9918
53200 299450 285602 -1025 12970 -9908
53208 299470 285608 -1023 12975 -9907
53216 299462 285604 -1075 12967 -9901
53227 299475 285613 -1098 12975 -9893
53235 299484 285614 -1065 12986 -9884
53245 299499 285619 -1040 12996 -9887
53256 299506 285625 -1109 13053 -9889
53267 299515 285633 -1142 13045 -9900
53280 299503 285632 -1133 13033 -9903
53290 299507 285634 -1115 13024 -9911
53299 299538 285661 -1111 13013 -9922
53315 299583 285677 -1112 13006 -9928
53326 299585 285674 -1109 13000 -9931
53342 299606 285688 -1125 12981 -9932
53345 299550 285655 -1135 12967 -9927
53346 299461 285637 -1118 12987 -9926
53330 299358 285575 -1121 13035 -9920
53309 299284 285551 -1124 13056 -9927
53289 299230 285530 -1107 13006 -9941
53260 299167 285500 -1116 12969 -9938
53231 299125 285489 -1146 12981 -9903
53206 299101 285481 -1178 12982 -9915
53179 299095 285471 -1132 12978 -9953
53160 299092 285463 -1032 12978 -9939
53142 299094 285470 -1083 13008 -9937
53127 299124 285475 -1129 13037 -9926
53116 299168 285482 -1071 13030 -9884
53117 299168 285497 -1042 13004 -9878
53104 299154 285494 -1065 12983 -9899
53097 299153 285475 -1121 12971 -9910
53093 299154 285474 -1153 12962 -9921
53083 299143 285478 -1124 12969 -9938
53077 299140 285476 -1059 12969 -9911
53073 299140 285474 -1109 12962 -9908
53065 299140 285472 -1167 12974 -9915
53065 299145 285473 -1056 12993 -9878
53062 299152 285469 -1028 13026 -9880
53062 299172 285473 -1128 13030 -9912
53066 299199 285484 -1171 13004 -9929
53075 299220 285492 -1131 13003 -9923
53082 299234 285492 -1073 13001 -9924
53091 299255 285496 -1085 12995 -9932
53098 299264 285507 -1129 13005 -9938
53106 299266 285495 -1144 13013 -9938
53119 299270 285513 -1128 13008 -9932
53128 299275 285526 -1107 13010 -9926
53140 299280 285531 -1106 13020 -9911
53153 299277 285529 -1128 13015 -9900
53164 299261 285540 -1145 12989 -9912
53178 299245 285553 -1145 12962 -9938
53187 299234 285547 -1141 12945 -9958
53193 299193 285557 -1140 12948 -9963
53198 299186 285540 -1145 12956 -9948
53198 299202 285556 -1144 12964 -9950
53205 299197 285532 -1141 12979 -9967
53208 299205 285528 -1128 12978 -9957
53214 299196 285521 -1125 13017 -9935
53211 299097 285470 -1141 12989 -9942
53203 298988 285401 -1141 12972 -9948
53185 298934 285357 -1178 12980 -9941
53173 298911 285323 -1171 12981 -9942
53152 298889 285299 -1136 12973 -9933
53127 298880 285275 -1152 12971 -9901
53104 298869 285267 -1195 12967 -9909
53083 298889 285273 -1175 12983 -9954
53061 298875 285277 -1099 13064 -9939
53041 298852 285273 -1157 13056 -9944
53007 298784 285242 -1141 13009 -9936
52949 298670 285184 -1118 12994 -9914
52883 298621 285164 -1079 13017 -9904
52841 298631 285197 -1073 13022 -9896
52801 298700 285265 -1119 13024 -9888
52771 298803 285369 -1153 13007 -9881
52760 298898 285579 -1138 13043 -9886
52758 299009 285806 -1143 13171 -9784
52799 299136 286191 -1185 13195 -9769
52862 299297 286678 -1120 13177 -9705
52920 299455 287065 -1169 13211 -9690
52982 299583 287440 -1262 13226 -9653
53032 299723 287730 -1202 13377 -9642
53128 299997 288180 -1123 13454 -9619
53289 300275 288823 -1089 13232 -9533
53550 300728 289834 -1159 13122 -9496
54001 301505 291729 -1271 13192 -9461
54798 302696 295224 -1209 13346 -9420
55582 302007 299146 -1060 13581 -9417
54140 292845 295779 -981 13723 -9394
44134 255604 249566 -982 13874 -9378
53814 254555 254536 -958 14155 -9344
74855 278982 296773 -828 14360 -9227
80709 281206 303322 -633 14097 -9137
82009 275537 299079 -573 13368 -9058
81863 271346 294732 -844 12922 -9028
82764 270939 295284 -951 12885 -9044
83734 271280 296609 -723 13020 -9077
84440 271777 298035 -572 13236 -9216
84593 271503 298185 -598 13365 -9304
84318 270730 297246 -749 13371 -9241
83715 269190 295281 -694 13221 -9133
83659 269478 295503 -543 13022 -9158
83801 270808 296509 -707 13037 -9288
83738 271577 297038 -944 13267 -9257
84478 274569 300250 -778 13374 -9242
84298 274605 299912 -476 13523 -9465
84850 277419 302802 -551 13584 -9602
85733 281520 306941 -582 13366 -9665
86559 286127 311412 -541 13248 -9740
87382 292437 317167 -692 13206 -9836
87211 299047 321691 -555 13047 -9989
84275 302082 319972 -427 12981 -10040
77229 299728 308737 -561 13022 -10028
64034 286856 280144 -514 12963 -9938
49779 274810 254303 -474 12825 -9814
48802 279718 269021 -510 12634 -9793
50999 293276 279348 -464 12553 -9752
51966 301406 284164 -609 12721 -9758
52224 300861 286196 -919 12930 -9858
52618 300842 287150 -1023 12937 -10016
52868 301308 287488 -946 13030 -10250
53103 301830 287783 -898 13155 -10374
53278 302061 288017 -892 13060 -10356
53416 302117 288137 -943 12991 -10307
53504 302299 288119 -1026 12958 -10252
53571 302527 288103 -1069 12903 -10200
53644 302728 288116 -1053 12957 -10186
53706 302867 288130 -1106 12918 -10145
53768 302967 288142 -1059 12887 -10107
53829 303034 288136 -1014 12880 -10082
53885 303071 288127 -1060 12871 -10074
53934 303079 288127 -1139 12865 -10065
53980 303125 288131 -1137 12875 -10048
54026 303157 288129 -1092 12887 -10049
54074 303209 288146 -1114 12892 -10070
54123 303256 288151 -1189 12924 -10053
54166 303326 288173 -1180 12924 -10031
54214 303388 288177 -1213 12907 -10019
54256 303423 288181 -1251 12900 -10021
54295 303482 288189 -1274 12908 -10026
54332 303493 288189 -1322 12928 -10027
54364 303467 288179 -1341 12948 -10019
54380 303371 288123 -1347 12965 -10007
54391 303253 288056 -1343 12961 -9982
54397 303200 288017 -1341 12965 -9935
54394 303136 287989 -1352 13013 -9902
54388 303071 287959 -1285 13012 -9903
54384 303023 287926 -1228 12987 -9913
54378 303008 287916 -1287 13010 -9931
54378 303002 287908 -1327 13021 -9919
54373 302999 287899 -1293 13008 -9885
54373 303022 287906 -1271 13007 -9869
54379 303056 287919 -1266 13016 -9864
54383 303047 287917 -1265 12997 -9845
54388 303041 287914 -1295 12992 -9849
54388 302974 287870 -1287 13048 -9869
54389 302918 287841 -1240 13058 -9808
54388 302849 287792 -1271 13052 -9788
54385 302773 287747 -1287 13063 -9822
54383 302689 287698 -1193 13035 -9807
54380 302611 287637 -1221 13049 -9802
54376 302530 287589 -1313 13071 -9829
54373 302455 287547 -1314 13062 -9841
54375 302388 287503 -1299 13067 -9818
54374 302326 287469 -1255 13065 -9814
54376 302264 287417 -1247 13089 -9816
54372 302178 287369 -1295 13069 -9836
54372 302097 287321 -1303 13054 -9843
54368 302032 287280 -1279 13036 -9855
54370 301970 287239 -1265 13018 -9871
54369 301910 287206 -1276 13003 -9874
54368 301851 287179 -1284 12998 -9875
54374 301812 287154 -1283 12995 -9877
54374 301783 287130 -1276 12989 -9875
54380 301758 287110 -1246 13011 -9864
54385 301713 287092 -1234 13033 -9857
54391 301688 287073 -1286 13032 -9881
54392 301611 287041 -1290 13030 -9918
54392 301532 286998 -1249 13003 -9935
54376 301415 286932 -1255 12978 -9923
54360 301344 286888 -1277 12972 -9895
54343 301259 286841 -1288 12981 -9899
54317 301178 286786 -1224 12982 -9942
54294 301124 286751 -1159 12981 -9954
54269 301096 286733 -1217 13046 -9945
54254 301101 286722 -1168 13024 -9959
54246 301111 286738 -1141 12994 -9949
54237 301109 286748 -1165 12994 -9935
54234 301157 286820 -1218 13015 -9928
54229 301182 286876 -1272 13013 -9932
54237 301183 286942 -1256 13011 -9964
54228 301090 286971 -1175 13034 -9915
54219 301070 287001 -1181 13049 -9873
54203 301019 287001 -1187 13021 -9848
54181 300969 286968 -1085 12989 -9779
54160 300923 286929 -1108 12995 -9782
54132 300863 286877 -1202 13007 -9821
54110 300797 286832 -1211 12998 -9848
54088 300753 286778 -1205 12992 -9849
54063 300684 286725 -1177 13008 -9858
54035 300613 286665 -1164 13012 -9869
54011 300516 286611 -1199 13016 -9870
53983 300427 286543 -1216 13021 -9876
53960 300332 286467 -1187 13013 -9879
53937 300238 286402 -1162 13021 -9858
53918 300163 286348 -1146 13022 -9861
53904 300131 286299 -1157 13011 -9899
53896 300124 286261 -1173 12985 -9920
53890 300118 286238 -1147 12959 -9936
53885 300132 286225 -1133 12957 -9957
53884 300159 286228 -1145 12948 -9972
53883 300154 286208 -1144 12937 -9979
53877 300147 286174 -1155 12951 -9982
53879 300156 286171 -1186 12992 -9985
53864 300101 286117 -1147 12968 -9987
53845 300021 286028 -1212 12946 -9958
53813 299931 285931 -1219 12958 -9946
53791 299923 285900 -1218 12961 -9995
53776 299906 285875 -1136 12925 -10009
53750 299863 285835 -1106 12926 -9983
53730 299855 285806 -1196 12963 -9978
53714 299858 285794 -1169 12967 -9976
53700 299876 285784 -1105 12927 -9956
53689 299910 285792 -1135 12947 -9920
53689 299950 285805 -1190 12936 -9959
53693 300054 285849 -1208 12924 -9996
53705 300122 285870 -1167 12934 -9961
53709 300147 285888 -1199 12942 -9949
53714 300183 285893 -1221 12954 -9979
53727 300240 285920 -1106 12953 -9968
53737 300285 285939 -1105 12950 -9980
53749 300331 285954 -1201 12962 -9998
53758 300369 285960 -1166 12977 -9956
53768 300420 285986 -1116 12971 -9972
53778 300450 286002 -1130 12959 -9974
53787 300480 286021 -1162 12945 -9975
53802 300503 286026 -1151 12936 -9978
53815 300535 286048 -1123 12925 -9972
53830 300566 286051 -1122 12918 -9982
53845 300584 286060 -1151 12915 -9992
53859 300592 286063 -1172 12915 -9991
53876 300597 286062 -1160 12935 -9980
53891 300592 286068 -1130 12967 -9963
53902 300589 286071 -1117 12964 -9964
53919 300608 286082 -1127 12934 -9993
53940 300642 286105 -1157 12941 -10007
53961 300663 286124 -1194 12982 -10002
53976 300640 286119 -1160 12990 -9999
53995 300663 286126 -1110 12953 -9992
54012 300635 286136 -1169 12940 -9983
54021 300567 286103 -1214 12956 -9972
54020 300464 286052 -1243 12965 -9993
54014 300393 286007 -1175 12955 -10017
54016 300384 286013 -1083 12942 -10021
54014 300352 286007 -1167 12944 -10027
54005 300316 285986 -1194 12927 -10022
54001 300293 285980 -1124 12893 -10009
53997 300294 285987 -1085 12882 -9995
53994 300306 285988 -1125 12882 -9994
53996 300314 285989 -1197 12867 -9999
54004 300343 286007 -1206 12867 -10017
54011 300400 286025 -1125 12898 -10001
54021 300429 286031 -1096 12948 -9975
54020 300413 286024 -1147 12988 -9978
54026 300440 286029 -1095 12967 -9982
54039 300442 286046 -1058 12937 -9991
54046 300455 286046 -1134 12938 -10007
54052 300464 286048 -1201 12929 -10018
54056 300457 286046 -1186 12917 -10026
54068 300468 286044 -1109 12919 -10034
54076 300483 286055 -1084 12912 -10033
54188 300633 286105 -1142 12895 -10047
54201 300649 286103 -1136 12931 -10023
54214 300670 286114 -1086 12915 -10020
54222 300694 286132 -1098 12892 -10034
54242 300750 286165 -1130 12865 -10052
54261 300760 286162 -1130 12851 -10067
54274 300789 286175 -1118 12854 -10071
54285 300774 286182 -1116 12866 -10058
54286 300688 286144 -1111 12874 -10061
54277 300562 286084 -1095 12879 -10075
54265 300469 286041 -1092 12919 -10093
54259 300421 286006 -1098 12901 -10103
54241 300341 285994 -1110 12898 -10102
54220 300306 285969 -1136 12904 -10098
54202 300273 285943 -1117 12897 -10106
54188 300250 285923 -1089 12869 -10095
54170 300226 285903 -1132 12851 -10065
54152 300195 285882 -1167 12847 -10054
54131 300191 285851 -1147 12843 -10074
54117 300232 285853 -1039 12832 -10084
54107 300242 285847 -1014 12853 -10082
54092 300255 285836 -1144 12885 -10100
54071 300184 285799 -1148 12879 -10095
54055 300186 285779 -1068 12855 -10070
54046 300167 285761 -1053 12850 -10056
54032 300155 285750 -1087 12858 -10059
54016 300126 285719 -1149 12859 -10060
53998 300095 285686 -1173 12864 -10064
53979 300062 285646 -1099 12874 -10070
53957 300026 285581 -1053 12877 -10038
53938 300009 285542 -1130 12911 -10054
53919 299978 285481 -1149 12917 -10067
53885 299941 285385 -1050 12881 -10038
53840 299906 285260 -1093 12904 -10041
53782 299845 285116 -1194 12908 -10050
53710 299656 284955 -1183 12882 -10048
53623 299474 284769 -1121 12876 -10041
53523 299252 284578 -1059 12874 -10040
53410 298843 284409 -1068 12871 -10040
53309 298360 284273 -1119 12880 -10061
53209 297981 284135 -1140 12919 -10081
53158 297923 284190 -1126 12928 -10087
53242 298646 284669 -1114 12903 -10083
53371 299512 285222 -1138 12901 -10084
53511 299955 285900 -1174 12916 -10094
53722 300763 286806 -1191 12919 -10099
54063 301853 288184 -1188 12894 -10077
54564 302472 290466 -1211 12875 -10062
55379 302579 294702 -1222 12866 -10066
55499 298519 297358 -1182 12873 -10063
49244 272247 271844 -1057 13192 -10082
44847 248365 238469 -1060 13140 -10017
67735 270538 282218 -1139 13042 -9921
80475 282787 303938 -1237 13153 -9899
82002 277149 299677 -1280 13288 -9908
81536 269579 292194 -1187 13364 -9839
81578 266872 289783 -1047 13642 -9732
82739 267215 291039 -958 14113 -9686
83816 268165 292871 -825 14377 -9648
83860 266915 292164 -657 12779 -9161
83828 266502 292292 -929 12481 -9053
83487 266101 291665 -892 12675 -9098
82847 264590 289535 -601 12834 -9261
82453 264293 288622 -499 13166 -9471
82329 264827 288765 -667 13445 -9544
82739 267116 290976 -745 13224 -9405
82911 268812 292490 -804 12837 -9316
83544 271645 295407 -798 12688 -9362
83664 272579 296090 -760 13084 -9340
84451 275989 299820 -615 13318 -9541
85367 279538 303422 -456 13512 -9759
85957 282594 306468 -455 13306 -9876
86899 288757 312239 -580 13103 -9986
86755 295904 317332 -546 12995 -10053
84231 299551 316841 -534 12944 -10174
77494 298308 307025 -675 12974 -10361
65158 286766 280171 -664 12951 -10352
52141 275869 255240 -615 12810 -10055
48237 275435 260339 -601 12675 -10077
51402 287281 274626 -610 12580 -9894
52516 298422 281264 -562 12521 -9795
52807 302072 283938 -614 12596 -9954
52928 301596 285472 -734 12715 -10120
53481 302772 287131 -705 12726 -10180
53821 302816 287799 -681 12755 -10261
54087 303514 288116 -868 12895 -10415
54285 303886 288262 -1023 12916 -10429
54416 303922 288344 -1005 12811 -10378
54508 303659 288343 -1003 12812 -10408
54548 303568 288218 -1051 12836 -10393
54570 303370 288035 -1029 12762 -10310
54555 303007 287820 -1011 12721 -10266
54525 302699 287647 -1076 12769 -10273
54491 302420 287471 -1153 12772 -10286
54455 302230 287333 -1165 12714 -10263
54427 302173 287258 -1117 12678 -10205
54406 302198 287217 -1124 12673 -10198
54388 302246 287207 -1168 12671 -10247
54377 302357 287219 -1112 12633 -10276
54370 302432 287234 -1129 12666 -10304
54359 302524 287246 -1230 12751 -10331
54354 302620 287276 -1202 12758 -10333
54354 302715 287296 -1135 12712 -10318
54343 302686 287261 -1121 12669 -10307
54333 302711 287257 -1147 12665 -10291
54325 302729 287251 -1219 12668 -10266
54314 302746 287260 -1248 12677 -10270
54300 302752 287250 -1190 12734 -10263
54289 302728 287234 -1218 12743 -10251
54273 302700 287215 -1325 12738 -10235
54259 302687 287220 -1252 12742 -10199
54248 302694 287208 -1191 12733 -10189
54236 302692 287204 -1262 12757 -10191
54226 302676 287186 -1310 12754 -10181
54217 302666 287170 -1300 12733 -10168
54208 302626 287132 -1246 12729 -10159
54196 302569 287084 -1227 12729 -10165
54180 302483 287004 -1287 12764 -10196
54158 302345 286939 -1292 12772 -10179
54134 302198 286849 -1251 12760 -10170
54113 302076 286760 -1244 12757 -10157
54091 301957 286683 -1289 12757 -10150
54067 301831 286609 -1291 12758 -10157
54045 301723 286549 -1267 12762 -10181
54024 301599 286501 -1255 12755 -10207
54001 301476 286456 -1228 12746 -10201
53963 301264 286381 -1251 12797 -10228
53921 301093 286322 -1246 12788 -10226
53875 300944 286275 -1219 12766 -10206
53822 300788 286234 -1221 12753 -10180
53769 300706 286202 -1279 12764 -10157
53712 300671 286166 -1297 12777 -10173
53658 300684 286144 -1188 12758 -10195
53601 300677 286104 -1152 12768 -10203
53550 300702 286083 -1259 12786 -10202
53498 300712 286044 -1281 12772 -10203
53438 300744 286029 -1223 12763 -10206
53379 300686 285959 -1184 12770 -10200
53310 300603 285869 -1187 12751 -10181
53246 300568 285792 -1236 12747 -10162
53195 300580 285748 -1274 12763 -10169
53137 300569 285699 -1240 12780 -10172
53087 300585 285652 -1233 12771 -10156
53029 300581 285610 -1266 12788 -10131
52980 300565 285564 -1186 12790 -10105
52928 300554 285508 -1128 12793 -10116
52878 300548 285454 -1190 12845 -10147
52828 300567 285389 -1230 12834 -10145
52790 300612 285346 -1189 12804 -10116
52752 300645 285323 -1155 12799 -10097
52711 300638 285263 -1159 12793 -10094
52676 300668 285207 -1179 12787 -10110
52646 300693 285189 -1208 12794 -10128
52612 300672 285145 -1188 12814 -10124
52580 300607 285093 -1139 12826 -10107
52540 300516 285006 -1125 12827 -10100
52495 300438 284922 -1120 12838 -10146
52460 300413 284869 -1123 12822 -10144
52424 300373 284810 -1125 12805 -10139
52400 300351 284778 -1126 12796 -10133
52378 300329 284751 -1109 12796 -10134
52345 300232 284682 -1113 12800 -10146
52319 300189 284636 -1139 12801 -10157
52297 300159 284608 -1130 12792 -10158
52255 299991 284489 -1118 12795 -10144
52192 299716 284291 -1122 12852 -10143
52111 299446 284117 -1091 12868 -10160
52060 299367 284082 -1060 12818 -10151
52013 299300 284050 -1108 12795 -10114
51952 299211 284000 -1146 12803 -10100
51905 299184 283998 -1162 12829 -10139
51853 299079 283947 -1076 12819 -10162
51797 298951 283879 -1005 12820 -10157
51758 298940 283884 -1096 12848 -10149
51728 298919 283885 -1105 12832 -10132
51711 299039 283949 -1052 12813 -10089
51709 299136 284008 -1071 12806 -10105
51700 299183 284035 -1110 12787 -10113
51684 299194 284030 -1127 12767 -10113
51689 299333 284102 -1057 12784 -10078
51689 299436 284157 -1061 12809 -10062
51685 299512 284201 -1125 12827 -10073
51674 299548 284212 -1054 12828 -10061
51663 299580 284236 -1033 12829 -10077
51664 299687 284281 -1125 12860 -10096
51663 299758 284314 -1152 12886 -10106
51666 299847 284352 -1097 12883 -10105
51675 299965 284399 -1045 12869 -10108
51683 300008 284447 -1036 12853 -10116
51685 300010 284477 -1083 12843 -10121
51684 300023 284491 -1110 12851 -10120
51692 300059 284512 -1066 12837 -10105
51696 300087 284533 -1032 12815 -10104
51711 300157 284556 -1054 12800 -10110
51725 300208 284602 -1077 12807 -10118
51733 300241 284611 -1083 12831 -10125
51745 300275 284644 -1078 12824 -10126
51755 300302 284672 -1078 12808 -10117
51772 300389 284712 -1095 12798 -10113
51796 300473 284765 -1091 12796 -10125
51804 300446 284756 -1091 12814 -10134
51826 300516 284801 -1086 12820 -10138
51841 300516 284826 -1082 12817 -10140
51834 300379 284741 -1132 12836 -10137
51812 300189 284657 -1138 12875 -10137
51787 300105 284609 -1089 12872 -10144
51781 300139 284628 -1103 12851 -10130
51751 300097 284608 -1141 12851 -10090
51721 300110 284618 -1184 12849 -10091
51702 300176 284657 -1153 12842 -10121
51686 300228 284682 -1023 12825 -10111
51677 300293 284720 -1077 12834 -10112
51668 300334 284753 -1155 12850 -10133
51663 300346 284776 -1078 12830 -10112
51671 300456 284831 -1028 12809 -10089
51675 300426 284848 -1088 12843 -10094
51682 300448 284864 -1146 12837 -10090
51680 300453 284860 -1132 12844 -10101
51692 300483 284893 -1084 12839 -10071
51693 300458 284886 -1135 12851 -10074
51698 300485 284926 -1174 12864 -10093
51696 300456 284915 -1045 12854 -10068
51697 300421 284909 -1025 12860 -10077
51701 300426 284925 -1111 12861 -10099
51706 300420 284948 -1100 12876 -10079
51706 300406 284944 -1042 12866 -10083
51709 300394 284953 -1038 12843 -10103
51707 300374 284958 -1103 12835 -10112
51716 300377 284971 -1126 12841 -10115
51714 300365 284973 -1081 12844 -10116
51718 300336 284965 -1054 12838 -10119
51719 300291 284954 -1076 12834 -10119
51722 300260 284947 -1092 12831 -10108
51723 300233 284928 -1097 12851 -10100
51721 300160 284895 -1102 12849 -10120
51724 300115 284873 -1122 12834 -10120
51729 300096 284864 -1130 12828 -10117
51736 300049 284825 -1111 12832 -10118
51739 300007 284794 -1110 12831 -10118
51742 299946 284767 -1119 12825 -10124
51744 299893 284727 -1113 12832 -10131
51746 299854 284706 -1114 12831 -10132
51752 299814 284680 -1111 12825 -10134
51750 299719 284616 -1101 12838 -10137
51754 299700 284598 -1155 12843 -10129
51750 299594 284532 -1179 12844 -10130
51729 299420 284416 -1139 12827 -10128
51700 299274 284320 -1129 12812 -10105
51672 299184 284244 -1147 12802 -10084
51645 299115 284205 -1169 12798 -10096
51601 299019 284144 -1097 12803 -10120
51567 298989 284132 -1022 12818 -10129
51540 298968 284116 -1060 12864 -10147
51506 298933 284095 -1086 12887 -10147
51483 298936 284094 -1061 12863 -10131
51466 298947 284099 -1036 12826 -10127
51454 298955 284109 -1032 12803 -10126
51454 299034 284151 -1057 12789 -10122
51460 299080 284185 -1091 12793 -10114
51465 299126 284211 -1054 12804 -10117
51468 299125 284213 -962 12822 -10094
51479 299187 284242 -1015 12833 -10104
51494 299215 284266 -1095 12850 -10107
51509 299314 284311 -998 12883 -10092
51527 299390 284362 -1089 12900 -10114
51549 299461 284403 -1130 12871 -10117
51570 299512 284431 -1101 12853 -10108
51589 299544 284458 -1040 12869 -10106
51617 299612 284518 -1046 12871 -10103
51652 299715 284609 -1077 12880 -10111
51695 299816 284715 -1093 12905 -10123
51733 299888 284834 -1099 12901 -10113
51774 299945 284960 -1098 12905 -10089
51803 299919 285059 -1087 12907 -10074
51809 299784 285109 -1107 12914 -10069
51793 299555 285076 -1174 12927 -10067
51744 299222 284955 -1218 12870 -10049
51685 298879 284816 -1212 12810 -10029
51631 298609 284714 -1198 12842 -10044
51640 298630 284825 -1167 12936 -10062
51688 298670 285017 -1080 13059 -10062
51757 298773 285328 -972 13149 -10011
51823 298717 285576 -986 13197 -9848
51857 298406 285801 -1014 13158 -9787
51981 298501 286388 -1062 13093 -9737
52183 298858 287265 -1056 13134 -9736
52542 299846 288817 -958 13277 -9704
53185 301624 291180 -855 13371 -9719
53800 302295 293413 -942 13256 -9777
54357 301709 295884 -1057 13249 -9634
54247 296928 297007 -938 13629 -9472
49084 273922 276006 -741 14186 -9443
45282 248838 240023 -633 14395 -9378
69828 274205 288131 -403 14047 -9175
81164 284101 306134 -229 13221 -9019
81831 276266 299289 -443 12576 -9101
79923 266497 288937 -779 12697 -9339
79927 263689 287029 -735 12987 -9491
81099 264666 288937 -437 13174 -9530
81847 264875 289847 -485 13313 -9506
82940 266693 292975 -755 13059 -9412
83721 268219 295907 -859 12720 -9323
83663 267906 296069 -782 12717 -9237
82764 265890 292750 -843 12940 -9220
82467 265906 292058 -886 13225 -9329
82387 266348 292054 -552 13321 -9498
82988 269332 294995 -386 13473 -9709
83220 270648 296109 -458 13509 -9907
83311 271665 296981 -470 13246 -9999
83550 272822 298092 -528 13039 -10092
83820 274435 299769 -576 12980 -10199
84772 278128 303561 -607 12992 -10289
85419 281231 306660 -568 12963 -10189
86457 287389 312521 -499 12907 -10039
86631 294373 317878 -517 12820 -10033
84834 299072 319118 -551 12686 -9916
79820 300123 313371 -528 12540 -9800
70916 293415 295961 -559 12523 -9874
57605 280467 266574 -668 12667 -10045
47778 272737 251951 -732 12839 -10162
49163 280023 269685 -755 12833 -10127
50303 290456 276871 -787 12767 -10195
51556 300901 282501 -881 12905 -10369
51585 300901 284900 -924 12899 -10363
52152 302133 286842 -1034 12872 -10369
52593 302609 287671 -1070 12817 -10359
52820 302953 287865 -1043 12818 -10315
53005 303271 287974 -1068 12882 -10280
53168 303349 288106 -1087 12889 -10269
53309 303085 288212 -1089 12828 -10241
53388 302696 288124 -1118 12785 -10181
53445 302624 288000 -1151 12775 -10128
53498 302614 287897 -1185 12774 -10136
53544 302615 287846 -1164 12770 -10145
53575 302580 287801 -1101 12770 -10127
53594 302542 287753 -1157 12781 -10146
53619 302563 287726 -1251 12795 -10170
53635 302575 287704 -1237 12794 -10166
53653 302604 287670 -1219 12782 -10154
53671 302647 287650 -1245 12781 -10156
53682 302663 287635 -1260 12773 -10156
53701 302698 287623 -1281 12826 -10223
53725 302775 287641 -1236 12842 -10188
53748 302828 287659 -1279 12826 -10160
53771 302837 287658 -1342 12810 -10164
53795 302917 287675 -1217 12795 -10128
53825 303004 287706 -1164 12823 -10097
53853 303034 287716 -1260 12870 -10095
53878 303040 287699 -1327 12873 -10111
53902 303056 287705 -1352 12866 -10134
53925 303117 287725 -1277 12852 -10149
53951 303165 287743 -1223 12874 -10146
53978 303216 287749 -1266 12903 -10157
54007 303331 287797 -1299 12852 -10153
54043 303449 287836 -1266 12814 -10108
54080 303533 287869 -1210 12833 -10065
54115 303601 287891 -1198 12830 -10045
54148 303693 287930 -1228 12820 -10041
54190 303775 287945 -1270 12835 -10033
54222 303806 287963 -1304 12865 -10018
54251 303779 287929 -1299 12895 -10017
54278 303753 287903 -1249 12914 -10021
54302 303747 287896 -1237 12916 -10017
54327 303674 287844 -1296 12933 -10024
54339 303561 287783 -1322 12947 -10047
54353 303453 287723 -1333 12930 -10056
54350 303307 287630 -1340 12912 -10048
54339 303071 287508 -1331 12916 -10038
54314 302783 287360 -1327 12900 -10030
54285 302575 287237 -1251 12871 -10033
54255 302403 287156 -1192 12876 -10044
54227 302276 287098 -1227 12912 -10066
54205 302211 287075 -1188 12872 -10061
54183 302170 287061 -1159 12847 -10055
54158 302129 287046 -1185 12839 -10062
54134 302089 287024 -1239 12828 -10060
54108 302053 287016 -1270 12816 -10060
54089 302027 287024 -1248 12819 -10073
54065 302004 287015 -1221 12826 -10041
54055 301949 287013 -1232 12857 -10040
54038 301846 286983 -1192 12876 -10044
54029 301770 286972 -1227 12912 -10066
54015 301689 286971 -1188 12872 -10061
53998 301610 286953 -1159 12847 -10055
53985 301538 286928 -1185 12839 -10062
53973 301466 286912 -1239 12828 -10060
53959 301427 286904 -1270 12816 -10060
53948 301452 286885 -1248 12819 -10073
53924 301437 286848 -1221 12826 -10041
53903 301395 286816 -1232 12857 -10040
53891 301390 286785 -1097 12857 -10061
53869 301382 286753 -1151 12870 -10090
53849 301341 286703 -1262 12876 -10110
53833 301300 286663 -1252 12875 -10110
53806 301257 286610 -1204 12868 -10100
53776 301173 286529 -1154 12848 -10108
53739 301089 286436 -1145 12844 -10130
53698 300979 286349 -1175 12841 -10126
53674 300933 286290 -1186 12823 -10112
53665 300969 286298 -1148 12833 -10104
53668 300999 286305 -1112 12852 -10103
53654 300922 286243 -1113 12831 -10102
53643 300910 286222 -1121 12808 -10102
53634 300864 286181 -1133 12806 -10118
53610 300777 286078 -1140 12801 -10124
53568 300665 285958 -1126 12791 -10122
53527 300662 285876 -1101 12796 -10127
53496 300651 285818 -1088 12789 -10131
53450 300659 285741 -1119 12794 -10127
53404 300644 285687 -1158 12865 -10131
53358 300628 285624 -1145 12910 -10152
53313 300644 285553 -1103 12847 -10148
53272 300663 285500 -1094 12790 -10118
53231 300660 285448 -1115 12793 -10088
53177 300616 285361 -1155 12801 -10101
53148 300673 285372 -1106 12808 -10136
53106 300582 285291 -1038 12822 -10136
53063 300477 285217 -1106 12843 -10140
53034 300452 285177 -1128 12833 -10151
53008 300385 285141 -1076 12788 -10128
52983 300354 285128 -1056 12758 -10112
52968 300378 285141 -1061 12754 -10122
52944 300320 285119 -1101 12752 -10126
52923 300302 285126 -1150 12752 -10144
52907 300307 285133 -1119 12772 -10142
52896 300298 285148 -1108 12796 -10133
52891 300302 285169 -1153 12816 -10132
52878 300289 285162 -1100 12803 -10116
52872 300294 285173 -1071 12794 -10119
52870 300320 285201 -1143 12830 -10140
52876 300383 285229 -1185 12849 -10134
52891 300474 285280 -1173 12825 -10115
52913 300592 285343 -1118 12810 -10110
52931 300681 285388 -1078 12821 -10102
52952 300779 285446 -1099 12835 -10109
52981 300938 285530 -1131 12842 -10109
53006 301025 285565 -1127 12833 -10098
53012 301026 285578 -1092 12820 -10083
53042 301163 285634 -1091 12822 -10072
53052 301145 285626 -1114 12830 -10079
53039 300981 285540 -1124 12852 -10089
53008 300761 285424 -1123 12859 -10093
52988 300698 285381 -1134 12838 -10094
52981 300732 285400 -1130 12822 -10097
52959 300706 285387 -1089 12811 -10096
52943 300712 285391 -1115 12837 -10093
52923 300709 285384 -1154 12873 -10111
52906 300713 285383 -1113 12849 -10120
52893 300745 285399 -1125 12823 -10111
52883 300754 285418 -1174 12849 -10083
52879 300805 285452 -1144 12899 -10116
52883 300893 285490 -1054 12871 -10113
52881 300895 285491 -1066 12858 -10098
52870 300848 285478 -1158 12866 -10095
52869 300894 285494 -1116 12851 -10087
52853 300809 285465 -1058 12826 -10078
52839 300772 285450 -1066 12811 -10087
52830 300777 285460 -1127 12805 -10100
52824 300776 285475 -1160 12788 -10110
52822 300815 285474 -1149 12871 -10084
52813 300785 285470 -1203 12870 -10075
52804 300759 285464 -1191 12864 -10109
52798 300780 285486 -1060 12847 -10092
52808 300851 285525 -1082 12852 -10099
52815 300891 285533 -1215 12855 -10112
52817 300909 285541 -1252 12839 -10104
52820 300953 285563 -1176 12841 -10094
52829 300971 285572 -1105 12847 -10095
52837 300997 285589 -1126 12848 -10094
52842 301007 285596 -1155 12862 -10099
52848 300803 285484 -1143 12862 -10143
52820 300755 285458 -1143 12846 -10127
52788 300703 285432 -1169 12862 -10127
52760 300711 285438 -1144 12857 -10125
52735 300734 285458 -1112 12838 -10111
52715 300780 285462 -1153 12835 -10087
52695 300791 285475 -1170 12833 -10080
52674 300765 285459 -1146 12831 -10091
52667 300843 285497 -1052 12802 -10082
52667 300908 285523 -1132 12878 -10089
52663 300932 285545 -1106 12847 -10108
52652 300911 285527 -1052 12815 -10110
52649 300936 285533 -1052 12796 -10102
52638 300894 285518 -1077 12792 -10089
52629 300902 285517 -1122 12794 -10087
52625 300931 285533 -1139 12804 -10108
52618 300925 285528 -1089 12835 -10120
52612 300927 285527 -1088 12834 -10119
52604 300910 285508 -1124 12871 -10126
52604 300927 285531 -1049 12841 -10117
52605 300967 285536 -1108 12855 -10119
52605 300997 285559 -1188 12851 -10130
52604 301007 285543 -1171 12831 -10126
52602 300966 285538 -1103 12833 -10127
52605 300991 285529 -1067 12832 -10128
52609 300997 285532 -1108 12827 -10133
52613 300999 285528 -1153 12823 -10135
52611 300966 285511 -1103 12848 -10102
52614 300936 285511 -1093 12838 -10118
52624 300949 285508 -1107 12824 -10123
52630 300945 285489 -1126 12815 -10126
52632 300931 285482 -1127 12807 -10129
52650 300999 285509 -1121 12798 -10123
52667 301028 285515 -1146 12806 -10126
52672 301016 285503 -1159 12825 -10124
52692 301046 285516 -1136 12821 -10115
52677 300878 285418 -1121 12822 -10113
52644 300592 285268 -1111 12830 -10125
52579 300221 285063 -1119 12840 -10134
52517 299971 284919 -1150 12866 -10124
52435 299554 284691 -1110 12864 -10125
52300 298987 284383 -1078 12834 -10109
52139 298311 284027 -1123 12831 -10085
51957 297470 283626 -1158 12839 -10071
51779 296766 283159 -1139 12831 -10092
51619 296096 282772 -1039 12820 -10124
51493 295642 282505 -1029 12841 -10121
51339 295038 282153 -1125 12878 -10141
51227 294714 281968 -1114 12866 -10134
51149 294491 281828 -1030 12826 -10106
51070 294288 281747 -1030 12841 -10114
50961 293838 281550 -1093 12845 -10107
50888 293559 281587 -1129 12816 -10091
50910 293738 281952 -1168 12821 -10081
50930 293766 282220 -1128 12852 -10090
50898 293548 282314 -1056 12881 -10056
50858 293213 282449 -1145 12932 -10060
50888 293153 282864 -1037 13031 -10016
50960 292901 283531 -999 13082 -10035
51267 294099 285162 -1084 13009 -9996
52021 297465 288488 -1139 12912 -9948
52587 298323 291703 -1142 12963 -9942
52855 296863 294172 -1019 13116 -9908
52071 289078 292281 -898 13196 -9851
45307 261538 258822 -1004 13233 -9854
48137 249725 243568 -1075 13239 -9894
69292 269399 283716 -836 13523 -9580
79598 281737 302823 -646 14146 -9549
81338 276707 299167 -557 14330 -9573
80420 267527 290068 -277 13761 -9299
79966 263618 286226 -235 13007 -9131
81055 264341 287074 -719 12661 -9242
82072 265703 289214 -955 12696 -9323
82854 266680 290742 -689 13055 -9391
83349 267181 291945 -504 13394 -9552
83884 268432 294348 -444 13346 -9350
84515 270435 297237 -615 13052 -9159
84676 271741 298866 -885 12767 -9238
85481 275182 302355 -750 12955 -9324
85676 276742 303432 -562 13165 -9242
62568 285131 276301 -477 12514 -9895
51927 274383 255262 -522 12393 -9929
46537 270573 248933 -548 12517 -10026
47961 274140 266019 -717 12915 -10180
50014 284562 273328 -888 13031 -10326
50637 293562 278520 -922 12915 -10436
51405 301071 282442 -885 12954 -10447
51350 300689 284294 -866 12898 -10369
51736 301229 285986 -968 12746 -10253
52246 302425 287153 -1007 12672 -10209
52470 302412 287410 -983 12726 -10249
52668 302858 287633 -984 12770 -10269
52838 302986 287748 -984 12767 -10279
52978 302725 287846 -966 12751 -10267
53065 302368 287800 -976 12735 -10243
53156 302625 287802 -1026 12728 -10235
53235 302735 287806 -1017 12740 -10227
53295 302794 287806 -998 12758 -10230
53360 302898 287842 -1052 12735 -10248
53431 303042 287897 -1122 12722 -10250
53491 303084 287917 -1148 12719 -10247
53535 303094 287898 -1150 12690 -10254
53584 303182 287920 -1152 12660 -10259
53631 303258 287946 -1170 12671 -10275
53668 303227 287925 -1193 12756 -10323
53685 303113 287863 -1196 12712 -10291
53692 302979 287797 -1234 12708 -10242
53694 302888 287736 -1273 12707 -10206
53694 302816 287702 -1297 12697 -10203
53681 302748 287653 -1228 12683 -10204
53669 302693 287615 -1193 12700 -10208
53663 302663 287589 -1297 12737 -10219
53659 302652 287575 -1351 12734 -10214
53655 302644 287552 -1232 12758 -10210
53652 302607 287519 -1252 12737 -10193
53652 302630 287520 -1308 12708 -10176
53655 302625 287509 -1336 12709 -10167
53657 302611 287481 -1275 12736 -10169
53652 302487 287418 -1243 12729 -10147
53648 302427 287366 -1318 12746 -10132
53641 302338 287311 -1307 12758 -10142
53633 302232 287243 -1213 12747 -10141
53620 302091 287165 -1299 12820 -10181
53595 301902 287052 -1290 12794 -10176
53573 301695 286947 -1257 12777 -10167
53552 301516 286860 -1227 12772 -10162
53535 301355 286796 -1239 12757 -10159
53524 301257 286773 -1268 12756 -10168
53516 301184 286775 -1272 12764 -10176
53513 301109 286781 -1256 12754 -10168
53508 301037 286782 -1230 12751 -10168
53508 300967 286800 -1209 12768 -10180
53511 300969 286816 -1198 12763 -10186
53510 301017 286814 -1213 12735 -10176
53508 301044 286814 -1240 12722 -10168
53503 301080 286798 -1240 12712 -10173
53501 301080 286776 -1240 12716 -10176
53490 301080 286732 -1269 12746 -10179
53478 301086 286702 -1253 12751 -10190
53450 301033 286611 -1225 12723 -10189
53409 300921 286482 -1222 12705 -10169
53335 300730 286273 -1221 12717 -10160
53270 300642 286129 -1219 12753 -10187
53216 300637 286010 -1170 12750 -10190
53159 300654 285903 -1138 12743 -10178
53105 300727 285817 -1180 12781 -10203
53063 300774 285774 -1189 12784 -10220
53011 300812 285707 -1131 12748 -10208
52966 300851 285634 -1087 12729 -10183
52922 300851 285558 -1097 12716 -10160
52869 300831 285468 -1132 12703 -10164
52827 300864 285423 -1159 12703 -10185
52772 300727 285301 -1105 12752 -10214
52704 300513 285133 -1142 12736 -10180
52623 300248 284953 -1120 12734 -10170
52568 300062 284858 -1025 12723 -10173
52517 299926 284750 -1069 12753 -10208
52469 299778 284660 -1150 12765 -10218
52409 299538 284500 -1119 12745 -10212
52338 299256 284350 -1072 12715 -10207
52278 299014 284203 -1043 12700 -10215
52217 298777 284073 -1098 12746 -10256
52166 298620 283935 -1099 12737 -10231
52130 298446 283808 -1068 12708 -10214
52080 298246 283663 -1049 12689 -10211
52028 298061 283522 -1065 12683 -10217
51978 297887 283377 -1084 12675 -10224
51933 297763 283260 -1086 12663 -10222
51891 297591 283130 -1087 12649 -10221
51852 297454 283000 -1096 12643 -10232
51824 297362 282912 -1098 12685 -10274
51797 297271 282827 -1109 12702 -10288
51781 297234 282791 -1143 12726 -10288
51771 297201 282761 -1107 12697 -10275
51728 296996 282607 -1071 12656 -10253
51713 296976 282575 -1127 12681 -10213
51691 296861 282459 -1154 12721 -10194
51625 296512 282169 -1149 12730 -10230
51553 296199 281874 -1072 12699 -10242
51526 296203 281789 -1044 12718 -10241
51514 296244 281762 -1117 12759 -10246
51480 296199 281660 -1124 12714 -10229
51461 296212 281616 -1112 12651 -10204
51444 296234 281605 -1094 12639 -10183
51408 296134 281496 -1102 12642 -10187
51376 296077 281429 -1164 12643 -10204
51382 296213 281506 -1189 12667 -10222
51385 296303 281583 -1164 12701 -10208
51395 296391 281647 -1229 12729 -10212
51376 296351 281616 -1246 12737 -10229
51359 296305 281580 -1117 12759 -10246
51371 296417 281678 -1124 12714 -10229
51373 296451 281705 -1112 12651 -10204
51381 296530 281755 -1094 12639 -10183
51390 296593 281805 -1102 12642 -10187
51401 296633 281852 -1164 12643 -10204
51410 296702 281916 -1189 12667 -10222
51436 296853 282002 -1164 12701 -10208
51454 296968 282073 -1229 12729 -10212
51482 297092 282156 -1246 12737 -10229
51509 297223 282227 -1084 12755 -10230
51534 297324 282281 -1189 12792 -10233
51553 297371 282316 -1166 12762 -10213
51581 297475 282397 -1097 12742 -10199
51611 297569 282452 -1067 12750 -10196
51654 297706 282552 -1092 12757 -10199
51679 297754 282583 -1133 12750 -10199
51709 297847 282655 -1126 12728 -10184
51747 297978 282747 -1071 12720 -10162
51757 297924 282727 -1034 12721 -10155
51794 298065 282816 -1063 12720 -10175
51847 298262 282941 -1127 12725 -10184
51850 298145 282886 -1136 12718 -10179
51835 297989 282798 -1112 12721 -10181
51831 297937 282762 -1110 12732 -10194
51865 298142 282883 -1108 12724 -10204
51897 298301 282983 -1113 12719 -10209
51918 298433 283083 -1127 12747 -10223
51949 298620 283208 -1094 12750 -10230
51972 298777 283326 -1072 12734 -10223
51993 298891 283429 -1106 12742 -10195
52022 299012 283552 -1123 12742 -10178
52038 299085 283635 -1172 12739 -10206
52076 299293 283753 -1111 12710 -10214
52098 299355 283821 -1054 12698 -10207
52121 299457 283854 -1130 12736 -10218
52126 299434 283846 -1114 12729 -10216
52134 299431 283860 -1065 12691 -10210
52134 299390 283845 -1056 12684 -10209
52148 299452 283866 -1086 12676 -10218
52146 299395 283853 -1132 12679 -10245
52145 299343 283823 -1141 12698 -10254
52143 299309 283808 -1073 12707 -10215
52133 299228 283772 -1084 12705 -10214
52136 299198 283769 -1169 12711 -10226
52139 299187 283761 -1113 12694 -10193
52143 299164 283762 -1095 12693 -10195
52151 299160 283760 -1193 12728 -10223
52157 299117 283742 -1231 12733 -10237
52160 299060 283721 -1180 12723 -10229
52165 299031 283720 -1105 12751 -10269
52174 299022 283719 -1162 12719 -10257
52186 299011 283718 -1179 12707 -10246
52196 298989 283711 -1148 12703 -10229
52204 298969 283707 -1123 12687 -10233
52232 299096 283768 -1114 12672 -10233
52259 299150 283808 -1110 12665 -10232
52256 299085 283776 -1110 12654 -10230
52289 299232 283846 -1096 12654 -10231
52290 299145 283806 -1068 12724 -10248
52262 298871 283664 -1075 12724 -10232
52221 298595 283522 -1082 12711 -10228
52201 298514 283463 -1070 12712 -10215
52190 298460 283450 -1087 12742 -10198
52165 298387 283403 -1088 12773 -10204
52137 298315 283359 -1039 12755 -10203
52106 298211 283310 -1033 12744 -10186
52081 298155 283272 -1072 12752 -10174
52065 298152 283269 -1038 12781 -10206
52047 298089 283239 -951 12773 -10208
52026 297998 283206 -1024 12773 -10222
52026 298076 283243 -1078 12757 -10225
52014 298023 283222 -1000 12722 -10201
52022 298093 283245 -967 12698 -10179
52007 297996 283183 -989 12700 -10171
52022 298055 283228 -1034 12699 -10169
52022 298043 283206 -1068 12704 -10164
52029 298096 283236 -1045 12741 -10190
52028 298082 283229 -988 12779 -10177
52033 298077 283228 -1062 12789 -10182
52036 298109 283227 -1124 12792 -10192
52052 298175 283249 -989 12767 -10159
52064 298217 283277 -1019 12759 -10168
52074 298197 283266 -1163 12771 -10194
52071 298131 283230 -1161 12759 -10204
52073 298066 283206 -1081 12746 -10189
52074 297996 283166 -1025 12736 -10180
52064 297890 283101 -1055 12744 -10192
52050 297725 283027 -1096 12768 -10227
52032 297570 282933 -1093 12765 -10231
51997 297322 282795 -1048 12739 -10206
51954 297090 282646 -1012 12726 -10198
51890 296701 282398 -1028 12721 -10201
51722 295742 281743 -1057 12718 -10205
51476 294384 280689 -1060 12709 -10208
51236 293252 279394 -1052 12718 -10218
51024 292002 278160 -1066 12731 -10219
50839 290533 277258 -1084 12730 -10211
50607 288911 276289 -1073 12740 -10226
50477 287899 275333 -1063 12745 -10220
50471 287897 275152 -1117 12787 -10206
50474 288120 275404 -1212 12822 -10204
50409 287998 275453 -1196 12752 -10166
50336 287742 275540 -1110 12723 -10146
50254 287414 275707 -1157 12818 -10174
50218 287250 276168 -1217 12857 -10185
50202 287112 276741 -1159 12845 -10184
50089 286421 276849 -1094 12948 -10198
49951 285389 276914 -1193 12968 -10040
50193 286122 278586 -1165 12917 -10029
50502 287040 280548 -1103 12977 -10003
50781 287682 282002 -1098 13107 -9988
51007 288147 283634 -1056 13178 -9939
51355 289029 285918 -1037 13087 -9819
52280 292550 289823 -1078 12970 -9741
52620 290823 291647 -1130 12964 -9787
51255 279598 286177 -1190 12997 -9765
45270 258052 255968 -1120 13124 -9622
50358 251388 246583 -986 13218 -9579
69884 268279 282629 -1007 13244 -9611
78461 276998 297970 -1116 13345 -9661
80324 273610 295977 -1064 13581 -9601
80010 266330 289060 -778 14073 -9389
79363 262495 285054 -491 14410 -9236
80214 261758 285222 -269 13949 -9143
81110 262310 286667 -380 13143 -9142
81799 263177 288192 -855 12674 -9191
81045 260197 284937 -691 12889 -9425
80446 258510 283138 -515 13061 -9608
80342 258443 282974 -717 13179 -9721
79698 256879 280902 -735 13095 -9598
79024 255372 278799 -544 12902 -9382
78713 255258 278212 -607 12868 -9324
78959 257044 279680 -560 13011 -9472
79777 261081 283483 -329 13165 -9636
81210 267724 290072 -368 13252 -9750
82803 275766 297750 -565 13266 -9846
83968 284247 305681 -620 13170 -9918
84174 293560 313279 -563 13046 -9961
81879 300420 315416 -572 12946 -10034
74837 300481 305320 -587 12903 -10099
61138 287338 274301 -527 12831 -10036
50028 277341 258941 -509 12725 -10001
49736 281543 271626 -615 12777 -10060
51234 291887 279638 -677 12781 -10013
52091 300097 283534 -634 12689 -9971
51998 299986 284605 -688 12767 -10080
52124 299836 285191 -855 12841 -10245
52339 300617 285695 -877 12771 -10307
52415 300287 285813 -743 12623 -10261
52448 299654 285813 -692 12575 -10348
52492 299538 285839 -798 12687 -10491
52530 299550 285911 -906 12823 -10562
52545 299474 285896 -919 12855 -10606
52547 299393 285824 -920 12787 -10565
52568 299349 285804 -988 12690 -10467
52593 299407 285807 -1053 12654 -10390
52617 299425 285801 -995 12736 -10405
52639 299425 285783 -1061 12691 -10370
52657 299342 285780 -1146 12649 -10333
52675 299399 285785 -1035 12655 -10281
52687 299410 285773 -955 12664 -10259
52699 299415 285773 -1083 12690 -10273
52717 299428 285767 -1228 12718 -10291
52735 299458 285758 -1222 12710 -10265
52756 299482 285775 -1105 12673 -10217
52781 299487 285795 -1091 12727 -10214
52808 299415 285812 -1140 12723 -10197
52827 299293 285811 -1165 12758 -10195
52848 299132 285830 -1153 12787 -10189
52887 299098 285878 -1141 12774 -10174
52919 299113 285942 -1173 12776 -10159
52957 299144 285997 -1194 12796 -10140
52976 299152 286024 -1184 12802 -10116
52989 299148 286046 -1166 12816 -10102
53002 299109 286033 -1200 12878 -10087
53022 299080 286025 -1261 12918 -10114
53025 298996 285974 -1260 12887 -10110
53013 298918 285926 -1251 12842 -10070
52989 298863 285892 -1220 12837 -9997
52962 298794 285852 -1200 12869 -9977
52937 298757 285817 -1174 12866 -10027
52908 298715 285782 -1084 12830 -10049
52877 298670 285761 -1095 12851 -10062
52851 298648 285748 -1174 12890 -10072
52826 298639 285727 -1153 12920 -10067
52805 298599 285695 -1087 12911 -10055
52784 298577 285685 -1061 12884 -10050
52756 298495 285614 -1080 12869 -10043
52727 298396 285545 -1119 12858 -10026
52683 298236 285392 -1127 12858 -10032
52628 298078 285244 -1077 12868 -10017
52567 297912 285097 -1121 12882 -10020
52521 297801 285015 -1199 12897 -10032
52483 297733 284930 -1142 12906 -10029
52446 297651 284866 -1103 12941 -10038
52417 297588 284810 -1158 12963 -10059
52392 297539 284763 -1208 12923 -10089
52368 297491 284719 -1213 12882 -10085
52348 297476 284690 -1180 12856 -10080
52328 297452 284649 -1141 12839 -10089
52318 297484 284642 -1146 12820 -10095
52314 297541 284656 -1186 12815 -10084
52317 297609 284672 -1186 12837 -10070
52313 297640 284668 -1137 12849 -10068
52307 297638 284631 -1103 12867 -10084
52293 297636 284581 -1122 12877 -10097
52277 297620 284503 -1149 12860 -10104
52269 297679 284470 -1159 12831 -10101
52265 297734 284431 -1141 12817 -10091
52240 297693 284330 -1133 12821 -10098
52223 297698 284249 -1146 12812 -10107
52186 297612 284094 -1119 12809 -10104
52115 297318 283830 -1126 12832 -10106
52026 296867 283532 -1129 12847 -10123
51923 296352 283243 -1092 12840 -10137
51829 295946 283009 -1089 12836 -10133
51713 295439 282698 -1130 12820 -10110
51594 294931 282414 -1179 12805 -10113
51472 294372 282084 -1142 12791 -10143
51362 293905 281748 -1049 12777 -10165
51289 293591 281520 -1052 12798 -10171
51197 293258 281283 -1087 12805 -10154
51105 292935 281024 -1046 12790 -10126
51011 292679 280803 -981 12787 -10112
50919 292372 280488 -992 12829 -10115
50849 292219 280273 -1018 12800 -10105
50754 291935 279917 -1010 12800 -10122
50683 291817 279626 -966 12797 -10098
50606 291663 279310 -1004 12786 -10101
50549 291563 279092 -1052 12783 -10119
50497 291434 278860 -980 12776 -10103
50432 291201 278561 -1013 12790 -10128
50375 290999 278255 -1113 12833 -10158
50325 290869 278000 -1056 12849 -10159
50283 290748 277808 -1011 12818 -10145
50250 290653 277671 -1029 12794 -10142
50220 290524 277518 -1087 12779 -10154
50192 290398 277398 -1091 12777 -10162
50166 290224 277257 -1040 12784 -10156
50153 290164 277192 -1005 12773 -10146
50150 290117 277166 -1011 12755 -10142
50136 290010 277081 -1022 12749 -10148
50125 289937 277039 -1013 12763 -10158
50135 290009 277091 -1012 12797 -10164
50149 290081 277155 -1008 12799 -10155
50176 290220 277260 -1020 12792 -10142
50187 290236 277271 -1057 12796 -10130
50164 290140 277182 -1078 12785 -10114
50196 290312 277319 -1088 12791 -10108
50213 290378 277339 -1108 12826 -10110
50183 290189 277159 -1072 12824 -10114
50140 289981 276984 -1017 12785 -10108
50151 290104 277076 -1042 12806 -10087
50186 290325 277267 -1075 12862 -10065
50200 290485 277393 -1100 12877 -10090
50218 290640 277513 -1029 12844 -10116
50227 290760 277604 -985 12838 -10116
50241 290886 277700 -1044 12863 -10116
50261 291074 277828 -1020 12855 -10106
50286 291230 277943 -994 12836 -10099
50312 291391 278096 -1011 12834 -10096
50368 291709 278296 -1037 12825 -10099
50387 291775 278350 -1056 12810 -10102
50392 291803 278348 -1028 12860 -10087
50420 291974 278458 -1061 12851 -10086
50449 292114 278538 -1084 12849 -10110
50480 292316 278649 -963 12842 -10101
50513 292496 278737 -967 12845 -10104
50533 292613 278809 -1076 12857 -10119
50538 292718 278857 -1105 12849 -10130
50553 292867 278944 -1052 12848 -10102
50577 293035 279039 -986 12850 -10078
50603 293208 279141 -1042 12889 -10102
50629 293342 279254 -1063 12881 -10097
50648 293418 279326 -1051 12866 -10096
50658 293454 279372 -1039 12854 -10099
50670 293485 279415 -1039 12854 -10098
50690 293515 279465 -1042 12849 -10094
50708 293549 279524 -1051 12835 -10097
50740 293632 279629 -1046 12828 -10106
50767 293710 279708 -1032 12834 -10104
50786 293714 279759 -1063 12867 -10096
50811 293818 279926 -1057 12853 -10101
50862 294020 280118 -1060 12852 -10106
50887 294067 280194 -1087 12878 -10105
50927 294239 280343 -1065 12881 -10110
50953 294279 280397 -1027 12853 -10098
50924 294064 280296 -1056 12847 -10063
50901 293891 280177 -1082 12857 -10051
50901 293887 280171 -1089 12861 -10074
50928 294032 280275 -1014 12835 -10083
50934 294111 280342 -967 12850 -10079
50930 294117 280424 -1050 12886 -10097
50926 294107 280479 -1058 12867 -10107
50930 294180 280570 -1001 12834 -10095
50957 294293 280697 -976 12828 -10085
50973 294364 280770 -992 12829 -10088
50967 294305 280786 -1036 12818 -10089
50973 294328 280851 -1040 12824 -10088
50977 294342 280900 -979 12844 -10092
50987 294365 280970 -973 12838 -10085
50979 294273 280962 -1049 12879 -10093
50983 294247 280974 -1030 12898 -10087
50983 294219 280979 -937 12857 -10063
50984 294252 281004 -997 12868 -10081
50974 294159 280974 -1113 12871 -10107
50952 294010 280899 -1117 12845 -10103
50931 293850 280824 -1042 12835 -10093
50909 293716 280761 -969 12846 -10090
50887 293616 280706 -969 12845 -10090
50870 293500 280628 -1016 12836 -10097
50842 293333 280523 -1035 12860 -10096
50814 293182 280427 -1005 12879 -10092
50806 293115 280399 -1000 12861 -10102
50798 293057 280359 -1050 12849 -10111
50789 292984 280304 -1093 12839 -10120
50780 292911 280263 -1094 12833 -10119
50776 292838 280200 -1064 12836 -10115
50780 292808 280187 -1037 12835 -10111
50796 292850 280196 -1030 12829 -10113
50816 292902 280235 -1018 12821 -10116
50838 292948 280255 -1026 12865 -10120
50861 293001 280271 -1031 12842 -10120
50882 293066 280299 -1022 12818 -10116
50914 293173 280362 -989 12814 -10101
50959 293299 280451 -1000 12829 -10097
50974 293300 280440 -1038 12844 -10121
51018 293460 280540 -1019 12825 -10130
51035 293450 280490 -990 12832 -10114
51031 293326 280396 -999 12829 -10096
51021 293208 280304 -978 12855 -10119
51014 293165 280277 -902 12823 -10114
51014 293165 280264 -953 12842 -10117
50991 293110 280221 -1007 12858 -10129
50972 293050 280198 -975 12849 -10121
50959 293016 280183 -937 12830 -10113
50960 293112 280246 -934 12812 -10104
50966 293165 280277 -951 12791 -10093
50965 293193 280297 -973 12783 -10097
50965 293176 280313 -929 12864 -10118
50979 293217 280375 -938 12849 -10107
50987 293232 280385 -991 12831 -10098
51002 293283 280449 -948 12824 -10094
50982 293127 280359 -914 12831 -10113
50981 293059 280354 -981 12862 -10125
50985 293029 280359 -1025 12848 -10124
50983 292986 280372 -1027 12841 -10130
50976 292875 280344 -992 12849 -10135
50944 292609 280262 -946 12880 -10142
50897 292285 280126 -958 12910 -10159
50855 291952 280012 -985 12942 -10169
50830 291744 280026 -1009 12965 -10157
50824 291594 280128 -992 12996 -10126
50859 291564 280469 -936 13013 -10051
50957 291801 281099 -1005 12950 -9978
51070 291930 281743 -1088 12951 -9954
51193 291917 282490 -1090 13029 -9931
51318 291695 283369 -1069 13037 -9898
51429 291414 284249 -1013 13049 -9859
51603 291394 285449 -998 13113 -9818
51873 292026 286912 -1062 13116 -9808
52179 293018 288320 -1087 13066 -9783
52513 294318 289706 -1050 13098 -9732
52832 295553 290895 -1048 13290 -9703
53203 296653 292454 -963 13438 -9687
53600 297455 294279 -890 13455 -9688
54098 297681 296568 -810 13830 -9553
53800 290863 294958 -520 14147 -9334
48148 266480 270172 -264 13772 -9207
44517 247108 237563 -998 13113 -9818
63937 261183 270528 -1062 13116 -9808
77160 274829 294494 -1087 13066 -9783
80192 273564 295511 -1050 13098 -9732
79825 265935 288243 -1048 13290 -9703
79041 260850 283156 -963 13438 -9687
80419 261842 285312 -890 13455 -9688
81443 262689 286856 -810 13830 -9553
82091 263273 287933 -520 14147 -9334
82355 263112 288249 -264 13772 -9207
82238 262677 288184 -718 12650 -9249
81998 262399 287683 -895 12663 -9394
81036 260163 284974 -728 12797 -9529
80461 259045 283607 -455 13032 -9618
80519 260078 284566 -374 13149 -9657
80597 260855 285256 -547 13028 -9592
80182 260056 284108 -632 12906 -9514
80878 263047 287336 -445 12880 -9528
81647 266271 290702 -430 12932 -9639
82927 271588 296251 -592 13019 -9656
84416 278960 303395 -548 13010 -9628
85279 286181 309449 -434 13086 -9800
84632 292173 313118 -393 13185 -9993
82061 296753 313557 -357 13140 -10000
76456 295824 305606 -515 13079 -10025
64890 284535 278605 -581 12909 -10253
52488 272810 254323 -419 12813 -10353
48093 271961 261119 -359 12794 -10291
50490 283957 273230 -404 12718 -10196
51823 295493 279850 -487 12626 -10078
53240 299863 286014 -963 12690 -10668
53299 299871 286039 -1004 12659 -10626
53338 299780 285999 -1010 12649 -10579
53375 299797 285975 -1010 12660 -10537
53407 299831 285983 -994 12600 -10471
53428 299868 285987 -1036 12559 -10444
53446 299886 286008 -1104 12603 -10435
53458 299900 286035 -1119 12623 -10449
53474 299960 286056 -1129 12593 -10424
53490 299991 286085 -1130 12587 -10378
53510 300024 286116 -1145 12611 -10385
53529 300095 286165 -1141 12600 -10391
53534 300131 286174 -1084 12557 -10359
53550 300132 286174 -1109 12570 -10357
53557 300068 286119 -1225 12612 -10348
53554 300018 286043 -1251 12607 -10324
53534 299922 285953 -1196 12579 -10303
53504 299831 285832 -1194 12576 -10277
53470 299737 285714 -1262 12579 -10264
53429 299634 285567 -1322 12578 -10266
53378 299521 285402 -1304 12629 -10319
53304 299345 285201 -1253 12669 -10311
53249 299250 285055 -1311 12667 -10276
53222 299242 284987 -1387 12683 -10267
53181 299211 284948 -1286 12669 -10232
53170 299292 285019 -1255 12655 -10237
53153 299229 285007 -1370 12675 -10256
53121 299159 284960 -1403 12685 -10263
53089 299102 284909 -1339 12655 -10250
53051 298925 284836 -1262 12626 -10247
53021 298783 284773 -1286 12675 -10318
52977 298548 284651 -1332 12687 -10315
52890 298060 284373 -1355 12789 -10343
52809 297541 284105 -1334 12879 -10349
52731 297045 283819 -1259 12763 -10252
52641 296483 283423 -1195 12620 -10171
52549 295861 282892 -1199 12674 -10172
52449 295225 282411 -1253 12736 -10163
52381 294902 282153 -1280 12695 -10142
52307 294656 281911 -1271 12779 -10101
52245 294532 281731 -1228 12772 -10082
52208 294470 281624 -1238 12720 -10079
52174 294439 281563 -1280 12759 -10066
52145 294395 281514 -1292 12817 -10054
52122 294389 281475 -1294 12857 -10088
52107 294415 281510 -1175 12860 -10106
52133 294674 281658 -1136 12862 -10098
52129 294654 281651 -1223 12895 -10086
52111 294600 281578 -1156 12865 -10026
52122 294707 281637 -1158 12858 -10020
52139 294791 281701 -1205 12842 -10031
52150 294874 281743 -1230 12814 -10038
52182 295068 281861 -1199 12812 -10055
52213 295241 281974 -1178 12826 -10018
52230 295334 282015 -1231 12867 -9993
52257 295486 282096 -1217 12899 -10013
52284 295587 282180 -1107 12882 -10010
52309 295702 282233 -1129 12899 -10021
52340 295846 282319 -1199 12929 -10050
52374 295989 282398 -1197 12909 -10064
52398 296047 282450 -1154 12892 -10055
52423 296114 282483 -1113 12901 -10049
52455 296212 282539 -1161 12901 -10048
52486 296314 282592 -1227 12891 -10046
52537 296537 282714 -1225 12884 -10047
52588 296738 282833 -1174 12886 -10042
52607 296731 282835 -1153 12882 -10039
52642 296884 282924 -1164 12866 -10044
52668 296959 282960 -1148 12856 -10055
52654 296777 282857 -1146 12844 -10070
52632 296557 282742 -1169 12829 -10071
52622 296522 282694 -1179 12831 -10059
52646 296645 282759 -1217 12860 -10056
52646 296697 282776 -1211 12880 -10066
52647 296696 282771 -1180 12860 -10069
52645 296722 282785 -1235 12855 -10050
52652 296810 282830 -1260 12872 -10030
52668 296924 282893 -1268 12886 -10061
52685 297043 282957 -1089 12876 -10094
52699 297096 283011 -1163 12896 -10111
52729 297317 283106 -1198 12886 -10103
52751 297392 283163 -1116 12849 -10091
52747 297293 283114 -1085 12840 -10078
52759 297351 283143 -1110 12837 -10065
52780 297429 283186 -1146 12816 -10066
52803 297580 283259 -1163 12803 -10065
52831 297710 283332 -1112 12831 -10059
52841 297691 283354 -1157 12896 -10055
52861 297780 283400 -1112 12902 -10047
52890 297895 283479 -1036 12888 -10050
52917 298021 283552 -1064 12909 -10058
52941 298115 283634 -1145 12915 -10076
52971 298216 283703 -1182 12901 -10075
52998 298359 283759 -1125 12899 -10071
53009 298407 283804 -1069 12891 -10074
53024 298473 283838 -1101 12877 -10077
53048 298553 283870 -1138 12899 -10063
53069 298580 283901 -1089 12883 -10057
53089 298606 283928 -1066 12856 -10047
53095 298611 283943 -1074 12838 -10052
53102 298637 283956 -1108 12833 -10071
53129 298747 284002 -1137 12834 -10076
53136 298587 284004 -1132 12840 -10079
53157 298610 284046 -1127 12836 -10088
53162 298575 284026 -1118 12822 -10091
53140 298281 283925 -1105 12830 -10088
53125 298097 283842 -1129 12871 -10082
53103 297948 283759 -1132 12882 -10089
53108 297920 283767 -1114 12866 -10096
53097 297847 283762 -1108 12869 -10069
53084 297833 283754 -1109 12858 -10055
53076 297848 283747 -1128 12858 -10075
53089 297978 283810 -1053 12836 -10090
53108 298156 283881 -999 12835 -10092
53136 298351 283967 -1073 12863 -10101
53153 298461 284020 -1103 12848 -10106
53186 298650 284114 -1055 12844 -10104
53201 298741 284140 -1025 12840 -10105
53233 298898 284204 -1045 12817 -10095
53241 298899 284203 -1087 12801 -10086
53268 299042 284253 -1113 12814 -10088
53294 299197 284300 -1050 12837 -10100
53326 299374 284367 -993 12826 -10070
53351 299477 284400 -1049 12853 -10061
53373 299508 284416 -1067 12871 -10081
53390 299581 284454 -986 12855 -10071
53406 299602 284462 -992 12890 -10085
53420 299590 284454 -1066 12899 -10093
53430 299550 284454 -1075 12878 -10080
53437 299513 284424 -1027 12869 -10079
53438 299467 284397 -974 12856 -10088
53441 299433 284384 -974 12843 -10090
53447 299386 284366 -998 12838 -10101
53446 299309 284311 -1003 12831 -10104
53443 299235 284275 -987 12824 -10094
53438 299177 284236 -993 12817 -10094
53436 299106 284189 -1046 12851 -10113
53428 299032 284148 -1053 12829 -10119
53417 298971 284090 -1028 12815 -10126
53420 298960 284063 -1007 12802 -10131
52911 296539 282474 -961 12760 -10150
52854 296312 282310 -982 12793 -10167
52797 296098 282161 -1046 12810 -10183
52746 295919 281995 -1031 12796 -10164
52694 295675 281828 -987 12803 -10147
52658 295606 281758 -982 12822 -10144
52603 295402 281578 -1013 12816 -10147
52560 295310 281465 -1037 12793 -10156
52492 295016 281261 -1023 12782 -10175
52447 294848 281141 -967 12795 -10160
51964 293541 279489 -1001 12758 -10181
51951 293561 279398 -986 12774 -10173
51942 293548 279338 -970 12772 -10169
51931 293507 279259 -975 12759 -10167
51905 293406 279118 -986 12753 -10174
51888 293332 279000 -983 12776 -10178
51877 293342 278911 -969 12786 -10170
51884 293448 278904 -981 12765 -10169
51903 293560 278982 -986 12754 -10168
51877 293374 278845 -966 12752 -10166
51827 293157 278626 -965 12745 -10175
51808 293080 278563 -981 12749 -10187
51695 292452 278023 -993 12781 -10190
51476 291089 276903 -1016 12822 -10179
51239 289460 275738 -1002 12803 -10181
50967 287785 274557 -1043 12759 -10159
50784 286748 273250 -1064 12785 -10142
50660 285899 271991 -1057 12778 -10161
50421 284240 270520 -1019 12763 -10187
50137 282777 269125 -976 12787 -10182
49765 282255 270336 -1054 13063 -9810
49831 282719 271304 -1037 13041 -9754
49843 282752 271743 -1068 13050 -9702
49828 282585 271980 -1226 13118 -9738
49852 282846 272715 -1118 13163 -9635
49991 283229 273662 -992 13212 -9629
50472 284296 275860 -989 13158 -9602
50826 286008 278365 -1040 13028 -9581
51452 289118 281683 -1117 13032 -9662
52314 292958 285057 -1160 13210 -9701
52739 294220 287088 -1106 13263 -9680
52988 294668 287964 -1048 13265 -9686
52347 288254 285962 -1024 13404 -9632
47916 266643 264530 -929 13663 -9507
46781 251529 238838 -803 14179 -9386
61737 260702 264576 -564 14643 -9364
74471 273352 289558 -287 14061 -9451
79116 275295 294523 -381 12755 -9477
79152 267471 287716 -876 12204 -9426
77994 259431 279377 -1130 12585 -9516
78335 257016 277784 -831 13053 -9682
78892 255689 276956 -613 13301 -9791
79013 254059 275549 -719 13400 -9823
78620 251842 273291 -832 13199 -9639
78656 251898 273853 -885 12922 -9436
78867 252849 274979 -775 12797 -9439
78291 251863 273473 -572 12718 -9524
77729 251259 272509 -782 12859 -9564
77627 251677 272693 -957 13111 -9595
78120 254351 275476 -666 13082 -9695
79160 258268 279668 -518 13106 -9911
79618 260218 281601 -385 13204 -10108
80005 261866 283348 -395 13073 -10188
80739 264967 286523 -660 12904 -10256
81807 269570 291322 -649 12852 -10320
83133 275958 297574 -499 12837 -10303
84007 282357 303253 -548 12732 -10300
84162 288846 308211 -638 12648 -10228
83058 293410 310339 -509 12564 -10079
80560 295758 309166 -439 12461 -10033
76602 294544 303078 -560 12484 -10097
68571 287072 285009 -715 12568 -10184
57888 275357 260984 -844 12686 -10317
50783 269791 249818 -787 12770 -10342
47002 268437 247854 -837 12567 -10322
49327 275702 268025 -971 12635 -10423
50650 286294 273888 -1044 12754 -10477
52173 297609 280247 -964 12622 -10404
52334 299750 282807 -942 12550 -10358
52557 299664 284256 -1096 12684 -10413
52878 300498 285054 -1183 12741 -10465
53045 300289 285337 -1083 12636 -10500
53135 299830 285400 -1017 12619 -10518
53191 299710 285364 -1052 12682 -10483
53249 299781 285400 -1139 12694 -10435
53299 299905 285435 -1223 12696 -10421
53335 299898 285450 -1238 12674 -10393
53366 299905 285465 -1238 12637 -10347
53385 299854 285432 -1275 12620 -10302
53403 299898 285442 -1326 12638 -10287
53411 299953 285464 -1326 12641 -10298
53398 299976 285459 -1226 12618 -10295
53391 299998 285466 -1276 12713 -10316
53387 300050 285478 -1292 12710 -10279
53382 300106 285506 -1257 12708 -10245
53378 300172 285524 -1256 12712 -10227
53375 300228 285555 -1298 12700 -10210
53373 300260 285603 -1361 12703 -10204
53376 300349 285641 -1361 12730 -10200
53376 300354 285664 -1302 12743 -10153
53369 300341 285651 -1355 12740 -10140
53375 300342 285672 -1432 12760 -10144
53377 300370 285701 -1303 12793 -10117
53370 300373 285694 -1264 12830 -10119
53367 300362 285697 -1358 12846 -10125
53356 300351 285696 -1392 12814 -10131
53354 300368 285706 -1383 12790 -10120
53352 300394 285711 -1325 12789 -10096
53352 300399 285732 -1308 12797 -10092
53345 300428 285727 -1344 12800 -10107
53341 300442 285736 -1377 12813 -10115
53340 300446 285742 -1362 12825 -10103
53340 300458 285749 -1285 12823 -10103
53337 300445 285732 -1243 12823 -10106
53335 300419 285725 -1285 12804 -10088
53339 300401 285718 -1320 12787 -10078
53337 300420 285716 -1325 12802 -10079
53342 300431 285713 -1333 12808 -10085
53340 300405 285710 -1332 12805 -10092
53334 300334 285684 -1337 12817 -10095
53334 300331 285669 -1372 12845 -10103
53336 300331 285661 -1344 12841 -10115
53324 300253 285614 -1279 12856 -10109
53317 300168 285560 -1262 12866 -10086
53291 300046 285468 -1308 12840 -10071
53263 299974 285399 -1340 12842 -10086
53227 299895 285344 -1225 12813 -10097
53187 299817 285266 -1151 12813 -10099
53146 299745 285205 -1227 12845 -10111
53101 299689 285148 -1258 12838 -10116
53058 299622 285085 -1226 12812 -10118
53014 299547 285022 -1185 12803 -10103
52971 299450 284952 -1201 12834 -10085
52918 299349 284855 -1238 12822 -10096
52864 299270 284781 -1181 12820 -10112
52798 299097 284635 -1179 12797 -10097
52729 298908 284457 -1258 12806 -10108
52668 298785 284332 -1237 12808 -10115
52619 298701 284228 -1156 12788 -10112
52560 298584 284109 -1208 12815 -10144
52494 298460 283976 -1289 12822 -10158
52414 298300 283799 -1183 12841 -10141
52338 298123 283637 -1134 12820 -10119
52271 297915 283511 -1142 12803 -10109
52198 297662 283373 -1171 12797 -10118
52132 297443 283232 -1191 12788 -10138
52060 297167 283076 -1172 12774 -10149
51986 296863 282900 -1147 12760 -10146
51906 296524 282702 -1144 12748 -10154
51827 296184 282488 -1155 12733 -10161
51757 295868 282286 -1162 12727 -10178
51688 295554 282082 -1145 12745 -10209
51640 295306 281881 -1136 12748 -10213
51596 295039 281670 -1145 12731 -10204
51534 294810 281475 -1137 12729 -10189
51477 294607 281289 -1139 12734 -10189
51425 294423 281117 -1141 12744 -10201
51372 294205 280926 -1130 12760 -10206
51326 294042 280767 -1122 12754 -10210
51281 293896 280612 -1096 12737 -10201
51246 293802 280488 -1095 12750 -10188
51187 293571 280271 -1125 12791 -10194
51114 293324 279997 -1098 12767 -10203
51066 293185 279795 -1054 12714 -10189
50995 292946 279446 -1075 12714 -10161
50905 292620 278947 -1115 12718 -10161
50823 292247 278483 -1104 12724 -10193
50775 292133 278210 -1016 12724 -10203
50720 292001 277924 -1000 12745 -10202
50645 291769 277620 -1047 12764 -10210
50565 291475 277300 -1019 12756 -10203
50482 291099 276978 -990 12763 -10207
50405 290741 276690 -987 12756 -10214
50324 290379 276412 -1008 12717 -10193
50183 289730 276010 -1053 12700 -10183
50026 288960 275673 -1064 12714 -10202
49969 288807 275553 -1016 12738 -10171
49889 288465 275242 -1030 12743 -10169
49849 288298 275028 -1066 12747 -10194
49802 288143 274829 -987 12737 -10182
49779 288110 274718 -981 12738 -10185
49751 288098 274606 -1090 12782 -10227
49738 288130 274579 -1051 12738 -10182
49722 288116 274521 -1013 12717 -10176
49707 288114 274488 -1026 12705 -10174
49701 288167 274501 -1061 12726 -10166
49702 288223 274540 -1066 12743 -10159
49706 288281 274589 -1046 12732 -10154
49728 288424 274719 -1036 12726 -10159
49746 288575 274855 -1047 12734 -10163
49765 288683 274959 -981 12738 -10185
49799 288890 275145 -1090 12782 -10227
49859 289180 275414 -1051 12738 -10182
49935 289565 275734 -1013 12717 -10176
50015 289946 276046 -1026 12705 -10174
50080 290245 276292 -1061 12726 -10166
50133 290493 276496 -1066 12743 -10159
50159 290625 276602 -1046 12732 -10154
50169 290691 276688 -1036 12726 -10159
50157 290626 276643 -1047 12734 -10163
50102 290351 276416 -1058 12760 -10174
50109 290409 276464 -1072 12738 -10173
50101 290362 276390 -1090 12716 -10171
50044 290031 276139 -1084 12712 -10173
49990 289748 275913 -1097 12725 -10190
49991 289787 275946 -1125 12737 -10201
50015 289941 276073 -1119 12757 -10206
50011 289987 276100 -1132 12805 -10203
50021 290118 276202 -1121 12841 -10183
50039 290303 276345 -1035 12802 -10167
50060 290478 276475 -1039 12765 -10169
50073 290619 276587 -1113 12768 -10157
50082 290693 276667 -1156 12764 -10156
50093 290779 276763 -1166 12764 -10186
50137 291045 276937 -1060 12743 -10188
50140 291078 276986 -1046 12747 -10184
50142 291057 276968 -1114 12766 -10183
50146 291067 277007 -1066 12742 -10176
50147 291068 277037 -1002 12722 -10155
50155 291098 277079 -1000 12736 -10142
50171 291188 277157 -1050 12756 -10137
50176 291215 277188 -1101 12751 -10142
50188 291300 277250 -1120 12760 -10171
50196 291358 277275 -1099 12778 -10147
50197 291390 277282 -1132 12802 -10148
50216 291502 277345 -1122 12840 -10155
50240 291617 277421 -996 12824 -10127
50226 291516 277354 -1023 12820 -10125
50209 291385 277253 -1139 12839 -10128
50190 291258 277175 -1154 12830 -10131
50194 291264 277168 -1095 12816 -10116
50209 291331 277209 -1040 12797 -10109
50222 291364 277214 -1069 12782 -10115
50236 291406 277248 -1111 12787 -10124
50252 291421 277255 -1094 12793 -10133
50254 291395 277217 -1067 12772 -10127
50266 291394 277221 -1064 12753 -10119
50271 291386 277208 -1059 12763 -10120
50291 291426 277239 -1057 12762 -10126
50298 291389 277228 -1070 12746 -10148
50246 291027 276981 -1097 12766 -10181
50192 290714 276742 -1116 12790 -10192
50143 290492 276503 -1113 12779 -10184
50064 290036 276103 -1103 12774 -10179
49958 289476 275612 -1090 12792 -10172
49889 289174 275319 -1084 12799 -10174
49858 289039 275224 -1087 12788 -10179
49808 288846 275064 -1066 12784 -10179
49768 288711 274935 -1068 12789 -10169
49722 288539 274807 -1085 12821 -10158
49693 288422 274725 -1078 12829 -10202
49665 288357 274668 -1099 12794 -10132
49628 288204 274547 -1137 12781 -10089
49567 287863 274296 -1135 12791 -10115
49499 287501 273985 -1032 12773 -10128
49431 287108 273477 -1035 12802 -10141
49389 286736 272923 -1116 12828 -10155
49375 286376 272261 -1075 12801 -10141
49377 286046 271696 -1027 12795 -10121
49331 285587 271210 -1039 12824 -10122
49246 285091 270715 -1075 12832 -10140
49103 284414 270062 -1097 12806 -10149
48998 283974 269504 -1075 12798 -10152
48924 283635 268956 -1018 12812 -10151
48908 283579 268614 -1069 12777 -10150
48904 283390 268160 -1165 12773 -10144
48934 283226 267631 -1121 12774 -10116
48960 283463 267630 -1078 12761 -10106
48888 283305 267406 -1124 12790 -10113
48820 283398 267664 -1080 12876 -10180
48791 283647 268480 -1015 12885 -10162
48828 284201 269594 -956 12796 -10138
48771 284117 270093 -967 12756 -10129
48746 283835 270491 -993 12763 -10127
48907 284353 271871 -964 12859 -10163
48974 284399 272643 -888 12965 -10182
49216 284483 274121 -861 12966 -10160
49220 283046 274276 -874 12968 -10137
48383 277390 269908 -912 12954 -10110
45267 262560 248472 -1004 12909 -10103
50141 253850 243201 -971 12913 -10057
66152 264634 272161 -855 12963 -10014
76030 273936 290617 -847 12926 -10012
78210 269165 288132 -872 12920 -9966
77086 259693 278557 -846 13188 -9923
77226 256976 276787 -829 13584 -9869
78691 258184 279206 -853 13914 -9814
79476 258284 279945 -862 14172 -9799
79416 256867 278683 -631 13973 -9724
78914 254835 276523 -298 12956 -9539
81534 275024 294799 -485 13185 -9995
82882 284886 303674 -438 13155 -10089
82929 293452 310503 -433 12997 -10129
80182 297114 309969 -542 12831 -10155
74459 295089 300917 -630 12777 -10202
62570 282404 272322 -618 12727 -10216
52088 271987 252880 -598 12651 -10227
46671 268713 247690 -589 12585 -10170
47237 271998 264034 -564 12449 -10118
48989 280688 270297 -534 12355 -10145
49712 287531 275055 -629 12508 -10174
50603 294831 278829 -784 12782 -10300
50742 297514 280493 -856 12812 -10436
50807 297403 281794 -869 12621 -10399
51002 297683 282541 -850 12554 -10413
51301 298451 283362 -844 12653 -10570
51482 298559 283716 -856 12701 -10617
51560 297877 283833 -876 12596 -10538
51653 297661 283975 -1003 12600 -10573
51726 297551 284046 -1078 12601 -10517
51797 297623 284123 -1081 12593 -10499
51860 297679 284179 -1096 12600 -10469
51911 297621 284180 -1129 12595 -10420
51964 297667 284221 -1136 12604 -10409
52016 297721 284247 -1118 12606 -10409
52061 297761 284251 -1143 12602 -10406
52099 297807 284235 -1192 12618 -10387
52129 297862 284208 -1158 12645 -10362
52146 297933 284213 -1166 12703 -10370
52145 297940 284173 -1251 12750 -10357
51895 297251 283488 -1257 12785 -10152
51885 297241 283470 -1241 12785 -10114
51878 297230 283446 -1254 12788 -10086
51875 297220 283441 -1250 12807 -10082
51875 297195 283400 -1182 12856 -10048
51876 297209 283405 -1210 12889 -10060
51881 297233 283421 -1300 12879 -10077
51895 297303 283467 -1233 12865 -10042
51917 297386 283527 -1188 12923 -10039
51937 297426 283555 -1226 12967 -10043
51954 297456 283576 -1268 12940 -10051
51975 297516 283618 -1317 12907 -10047
51994 297561 283651 -1278 12884 -10025
52019 297633 283696 -1205 12900 -10000
52044 297676 283727 -1180 12910 -9997
52057 297650 283708 -1235 12910 -10003
52062 297562 283661 -1313 12904 -10008
52073 297533 283657 -1347 12895 -10039
52090 297536 283649 -1323 12927 -10005
52103 297511 283630 -1299 12938 -9990
