2025-10-16 03:03:25    绿光---红外光---红光---X轴---Y轴---Z轴
46636 316728 280337 -1653 14043 -8535
46639 316729 280337 -1654 14001 -8547
46646 316748 280341 -1655 14025 -8526
46651 316750 280350 -1661 14074 -8504
46664 316772 280350 -1680 14090 -8486
46674 316789 280367 -1698 14086 -8493
46692 316804 280375 -1698 14079 -8511
46705 316820 280371 -1699 14087 -8504
46723 316843 280382 -1671 14084 -8492
46743 316857 280393 -1651 14076 -8489
46767 316916 280444 -1692 14071 -8503
46792 316956 280472 -1706 14024 -8525
46807 316954 280466 -1672 14026 -8503
46819 316921 280428 -1670 14067 -8469
46825 316840 280378 -1706 14062 -8491
46812 316690 280289 -1656 14058 -8512
46799 316635 280273 -1567 14076 -8517
46781 316615 280288 -1599 14109 -8541
46754 316577 280278 -1659 14104 -8551
46729 316568 280273 -1649 14078 -8557
46630 316499 280250 -1628 14110 -8499
46624 316482 280237 -1640 14056 -8514
46623 316465 280232 -1626 14024 -8535
46618 316440 280201 -1619 14056 -8536
46613 316405 280177 -1622 14063 -8533
46611 316398 280156 -1647 14057 -8540
46610 316382 280128 -1665 14063 -8559
46615 316369 280111 -1661 14083 -8556
46624 316394 280116 -1667 14093 -8542
46635 316389 280113 -1677 14089 -8528
46648 316411 280119 -1665 14090 -8514
46661 316421 280127 -1629 14015 -8578
46679 316443 280127 -1645 14029 -8563
46694 316448 280137 -1648 14036 -8533
46714 316464 280148 -1652 14050 -8531
46733 316500 280169 -1661 14063 -8530
46756 316513 280179 -1661 14053 -8534
46771 316510 280175 -1652 14056 -8557
46788 316497 280160 -1651 14066 -8567
46803 316496 280159 -1677 14079 -8564
46827 316516 280180 -1665 14090 -8514
46842 316518 280161 -1629 14015 -8578
46856 316470 280128 -1645 14029 -8563
46865 316404 280066 -1648 14036 -8533
46861 316274 279979 -1652 14050 -8531
46845 316176 279953 -1661 14063 -8530
46830 316162 279958 -1661 14053 -8534
46801 316102 279922 -1652 14056 -8557
46773 316064 279900 -1651 14066 -8567
46748 316037 279902 -1677 14079 -8564
46725 316016 279899 -1637 14011 -8595
46707 315989 279879 -1662 14037 -8534
46691 315977 279875 -1694 14061 -8528
46684 315984 279890 -1643 14072 -8549
46673 315963 279879 -1558 14073 -8567
46662 315952 279873 -1596 14066 -8598
46660 315946 279856 -1671 14059 -8585
46660 315930 279837 -1647 14048 -8571
46662 315918 279845 -1597 14048 -8573
46661 315922 279851 -1610 14016 -8587
46657 315906 279841 -1652 13966 -8598
46659 315924 279857 -1665 13976 -8605
46660 315937 279891 -1646 14007 -8627
46668 315977 279918 -1630 14039 -8624
46678 316017 279943 -1634 14060 -8589
46679 316036 279951 -1676 14065 -8583
46691 316066 279969 -1687 14074 -8590
46696 316074 279979 -1623 14069 -8582
46704 316096 279980 -1623 14069 -8586
46713 316124 279997 -1670 14046 -8595
46730 316182 280026 -1663 14006 -8600
46748 316226 280063 -1629 14010 -8586
46766 316235 280066 -1617 14011 -8567
46781 316255 280078 -1637 14003 -8582
46806 316302 280119 -1666 14016 -8597
46824 316346 280134 -1668 14028 -8602
46848 316356 280141 -1658 14033 -8603
46877 316426 280190 -1671 14035 -8602
46906 316505 280243 -1686 14020 -8609
46928 316523 280241 -1689 13996 -8613
46948 316519 280246 -1652 13969 -8647
46968 316553 280252 -1614 13972 -8669
46995 316601 280307 -1614 13991 -8640
47022 316640 280326 -1628 13983 -8627
47046 316639 280322 -1654 13991 -8639
47056 316614 280292 -1674 14013 -8638
47069 316549 280243 -1663 14017 -8643
47060 316427 280176 -1648 14016 -8664
47052 316394 280163 -1671 14015 -8672
47029 316333 280124 -1689 14013 -8673
47002 316295 280097 -1646 13947 -8696
46980 316300 280094 -1670 13993 -8687
46970 316342 280145 -1662 13991 -8676
46967 316425 280197 -1676 13977 -8641
46969 316467 280243 -1712 13964 -8643
46961 316486 280254 -1703 13967 -8678
46959 316507 280260 -1636 13990 -8691
46950 316493 280230 -1635 14018 -8708
46954 316498 280241 -1688 14035 -8710
46949 316444 280188 -1599 13907 -8723
46953 316452 280203 -1621 13913 -8676
46965 316514 280266 -1667 13932 -8652
46977 316551 280284 -1701 13957 -8662
46974 316554 280296 -1714 13980 -8667
46979 316573 280305 -1712 13996 -8663
46973 316588 280324 -1696 14013 -8642
46981 316611 280337 -1691 14014 -8652
46982 316608 280348 -1672 14004 -8651
46986 316618 280351 -1606 13934 -8668
46991 316636 280367 -1687 13948 -8700
47001 316647 280374 -1690 13963 -8668
47010 316663 280386 -1662 13970 -8639
47022 316703 280400 -1661 13978 -8647
47040 316734 280428 -1687 13973 -8674
47057 316759 280434 -1707 13969 -8711
47074 316785 280460 -1705 13983 -8722
47095 316824 280491 -1693 13995 -8708
47117 316879 280511 -1680 13975 -8688
47140 316913 280555 -1667 13938 -8697
47161 316964 280577 -1671 13940 -8703
47184 316982 280596 -1686 13965 -8684
47211 317028 280623 -1685 13965 -8675
47235 317075 280663 -1673 13956 -8682
47264 317140 280708 -1678 13964 -8694
47292 317173 280729 -1681 13972 -8697
47308 317144 280714 -1662 13986 -8706
47325 317142 280710 -1672 13988 -8717
47327 317034 280641 -1685 13975 -8721
47319 316938 280597 -1642 13950 -8731
47302 316892 280568 -1637 13957 -8733
47272 316789 280507 -1657 14012 -8718
47244 316726 280462 -1654 14008 -8679
47229 316729 280480 -1671 14003 -8635
47217 316758 280490 -1689 14024 -8611
47208 316778 280500 -1705 14004 -8626
47192 316747 280473 -1662 13988 -8651
47186 316736 280475 -1629 13987 -8686
47180 316746 280475 -1681 13980 -8719
47184 316782 280503 -1655 13933 -8717
47183 316774 280488 -1608 13911 -8676
47184 316750 280461 -1637 13931 -8621
47181 316705 280438 -1684 13937 -8611
47177 316687 280410 -1716 13955 -8612
47174 316660 280400 -1714 13977 -8620
47177 316668 280409 -1703 14002 -8634
47178 316653 280392 -1694 14032 -8594
47179 316645 280391 -1713 14050 -8584
47182 316653 280397 -1739 14055 -8589
47183 316636 280378 -1629 13972 -8618
47186 316632 280378 -1695 14000 -8610
47198 316653 280400 -1739 14006 -8606
47212 316691 280418 -1718 14026 -8591
47221 316695 280419 -1679 14044 -8578
47233 316720 280442 -1685 14031 -8574
47248 316725 280438 -1712 14023 -8589
47258 316738 280435 -1723 14019 -8608
47275 316764 280453 -1714 14019 -8600
47296 316783 280462 -1693 13956 -8625
47314 316811 280489 -1703 13975 -8633
47335 316847 280501 -1705 14013 -8612
47359 316872 280519 -1693 14026 -8596
47379 316894 280547 -1689 14017 -8597
47402 316932 280569 -1693 14013 -8603
47425 316956 280592 -1693 14022 -8616
47452 317025 280639 -1688 14030 -8623
47472 317029 280652 -1677 14040 -8618
47480 316995 280609 -1667 13980 -8643
47495 316989 280594 -1664 13995 -8633
47499 316905 280544 -1679 14039 -8611
47487 316779 280474 -1698 14053 -8613
47470 316729 280455 -1693 14045 -8619
47447 316669 280440 -1681 14040 -8600
47426 316664 280437 -1695 14036 -8568
47404 316666 280443 -1709 14025 -8570
47380 316670 280452 -1632 14028 -8593
47364 316675 280463 -1578 14016 -8620
47347 316670 280450 -1644 13976 -8675
47335 316668 280449 -1682 13965 -8676
47329 316698 280473 -1666 13983 -8645
47321 316681 280461 -1663 13985 -8623
47326 316729 280487 -1684 13975 -8605
47318 316696 280465 -1703 13973 -8614
47321 316686 280462 -1711 13996 -8615
47324 316702 280483 -1698 14025 -8610
47329 316714 280499 -1673 14035 -8625
47330 316718 280506 -1672 14032 -8612
47329 316716 280512 -1705 13985 -8621
47326 316723 280504 -1705 13970 -8626
47325 316712 280515 -1655 14010 -8595
47327 316729 280525 -1666 14021 -8596
47326 316725 280542 -1715 14005 -8617
47334 316748 280545 -1712 14003 -8624
47340 316730 280539 -1683 14008 -8622
47345 316733 280537 -1664 13993 -8633
47356 316751 280559 -1672 13999 -8636
47372 316769 280575 -1685 14019 -8650
47393 316806 280597 -1648 13948 -8690
47410 316829 280602 -1669 13974 -8657
47424 316843 280603 -1679 13987 -8637
47441 316852 280621 -1685 13997 -8642
47465 316894 280641 -1684 14006 -8644
47485 316915 280655 -1677 14005 -8655
47500 316920 280661 -1676 14005 -8664
47519 316915 280656 -1670 14006 -8661
47537 316922 280657 -1666 14014 -8650
47559 316942 280670 -1658 13916 -8688
47590 317012 280707 -1656 13952 -8702
47620 317080 280771 -1664 13987 -8707
47642 317097 280774 -1685 13994 -8693
47662 317088 280763 -1688 13979 -8657
47676 317064 280734 -1689 13982 -8629
47683 316985 280672 -1698 14013 -8659
47677 316881 280593 -1685 14010 -8681
47668 316821 280582 -1669 13986 -8660
47651 316758 280553 -1670 13965 -8655
47628 316733 280527 -1681 13920 -8683
47616 316749 280550 -1617 13924 -8711
47609 316795 280580 -1581 13972 -8742
47611 316858 280626 -1649 14001 -8761
47599 316865 280629 -1677 13999 -8734
47635 316894 280617 -1622 13965 -8726
47639 316906 280622 -1638 13970 -8737
47652 316948 280663 -1708 13951 -8739
47656 316985 280663 -1700 13928 -8733
47663 316957 280643 -1650 13920 -8743
47668 316952 280641 -1623 13871 -8777
47692 317022 280690 -1634 13856 -8786
47713 317088 280738 -1658 13902 -8778
47724 317109 280742 -1674 13939 -8783
47737 317114 280739 -1671 13946 -8762
47753 317120 280730 -1668 13935 -8735
47768 317126 280739 -1674 13944 -8734
47787 317131 280735 -1681 13951 -8750
47808 317151 280746 -1686 13943 -8750
47833 317197 280777 -1686 13935 -8737
47855 317203 280764 -1639 13884 -8760
47869 317184 280749 -1609 13864 -8782
47887 317163 280736 -1644 13894 -8781
47903 317158 280724 -1680 13889 -8776
47926 317189 280741 -1690 13898 -8759
47950 317234 280770 -1685 13931 -8760
47980 317239 280768 -1677 13950 -8772
48002 317263 280778 -1669 13975 -8797
48018 317213 280746 -1688 13988 -8811
48017 317097 280666 -1692 13988 -8804
48013 317030 280637 -1630 13873 -8768
48006 316975 280614 -1681 13910 -8740
47993 316950 280594 -1712 13921 -8767
47985 316925 280595 -1657 13920 -8783
47976 316932 280586 -1617 13935 -8784
47973 316922 280579 -1667 13952 -8780
47968 316907 280567 -1664 13940 -8764
47962 316869 280543 -1634 13913 -8745
47960 316853 280526 -1654 13887 -8727
47952 316781 280459 -1701 13835 -8716
47952 316759 280442 -1711 13866 -8704
47947 316658 280356 -1709 13915 -8709
47945 316581 280292 -1678 13970 -8696
47954 316547 280281 -1691 14004 -8697
47956 316520 280253 -1716 14022 -8692
47959 316477 280226 -1647 14008 -8677
47973 316490 280232 -1632 13997 -8686
47984 316492 280244 -1706 13992 -8685
47996 316500 280241 -1676 13925 -8702
48011 316513 280262 -1637 13943 -8693
48019 316519 280255 -1619 13969 -8669
48036 316539 280266 -1617 13968 -8662
48057 316583 280287 -1641 13982 -8651
48088 316670 280363 -1651 14004 -8628
48133 316835 280506 -1635 14030 -8595
48170 316948 280600 -1633 14034 -8570
48192 316968 280604 -1650 14008 -8570
48209 316980 280599 -1679 13981 -8616
48229 316981 280599 -1602 13965 -8708
48248 316952 280575 -1612 13988 -8699
48264 316913 280546 -1646 14011 -8702
48285 316882 280521 -1651 14025 -8699
48307 316895 280533 -1640 14031 -8685
48330 316895 280520 -1646 14026 -8670
48343 316859 280500 -1656 13994 -8677
48366 316831 280488 -1669 13982 -8688
48391 316828 280490 -1658 14003 -8686
48414 316806 280455 -1639 13940 -8692
48431 316778 280442 -1674 13920 -8676
48439 316679 280380 -1676 13925 -8681
48437 316577 280323 -1642 13940 -8699
48434 316527 280316 -1590 13958 -8703
48429 316481 280292 -1615 13964 -8722
48420 316453 280281 -1661 13979 -8727
48420 316465 280302 -1647 13988 -8713
48418 316486 280313 -1641 13989 -8695
48419 316496 280328 -1650 13892 -8696
48420 316493 280323 -1666 13904 -8692
48423 316515 280325 -1684 13958 -8684
48431 316541 280347 -1662 14002 -8690
48433 316507 280322 -1647 14019 -8682
48440 316558 280339 -1686 14014 -8679
48441 316505 280297 -1712 14008 -8666
48450 316483 280289 -1623 14000 -8630
48463 316501 280304 -1596 13993 -8628
48467 316494 280309 -1678 13982 -8650
48476 316495 280289 -1683 13934 -8679
48485 316494 280308 -1645 13911 -8677
48494 316519 280320 -1633 13933 -8652
48506 316564 280353 -1654 13952 -8653
48516 316569 280355 -1678 13964 -8669
48529 316582 280375 -1683 13984 -8669
48539 316609 280392 -1682 14021 -8666
48553 316627 280409 -1682 14037 -8663
48572 316674 280430 -1682 14032 -8676
48585 316696 280453 -1679 14004 -8688
48604 316735 280482 -1664 13942 -8699
48623 316757 280499 -1655 13924 -8707
48640 316805 280523 -1658 13947 -8703
48660 316828 280540 -1663 13968 -8695
48682 316854 280560 -1673 13975 -8693
48700 316861 280542 -1685 13965 -8700
48717 316860 280552 -1695 13979 -8701
48737 316886 280564 -1683 13995 -8693
48757 316908 280573 -1669 13990 -8682
48774 316922 280578 -1664 13988 -8673
48795 316928 280580 -1631 13933 -8711
48813 316943 280603 -1675 13982 -8704
48841 316991 280628 -1681 13978 -8695
48857 316976 280612 -1674 13988 -8658
48865 316949 280585 -1691 13973 -8642
48880 316920 280546 -1715 13970 -8645
48879 316792 280462 -1630 13978 -8646
48872 316696 280415 -1576 13990 -8663
48869 316679 280408 -1637 14007 -8698
48863 316637 280393 -1649 13949 -8718
48853 316625 280394 -1621 13901 -8727
48847 316635 280393 -1621 13921 -8733
48839 316626 280391 -1659 13934 -8716
48834 316622 280383 -1679 13928 -8699
48827 316627 280391 -1677 13939 -8699
48832 316646 280402 -1675 13955 -8713
48835 316673 280435 -1658 13962 -8737
48837 316668 280420 -1646 13960 -8716
48838 316691 280439 -1680 13962 -8698
48841 316663 280414 -1595 13915 -8719
48842 316649 280401 -1596 13924 -8734
48846 316664 280400 -1679 13935 -8730
48849 316643 280391 -1686 13935 -8719
48851 316636 280390 -1657 13950 -8728
48856 316664 280412 -1648 13967 -8719
48864 316673 280422 -1662 13960 -8708
48872 316697 280435 -1670 13953 -8720
48876 316707 280446 -1676 13953 -8742
48884 316726 280453 -1672 13938 -8756
48890 316740 280457 -1653 13923 -8750
48898 316750 280465 -1651 13934 -8733
48908 316774 280487 -1680 13961 -8722
48923 316803 280516 -1699 13951 -8725
48935 316844 280523 -1687 13918 -8739
48949 316853 280540 -1684 13913 -8743
48961 316867 280548 -1701 13913 -8740
48973 316878 280546 -1702 13916 -8735
48983 316859 280531 -1691 13916 -8728
48998 316888 280537 -1700 13900 -8731
49017 316937 280572 -1690 13888 -8749
49031 316936 280569 -1674 13903 -8757
49044 316941 280561 -1683 13938 -8753
49053 316927 280540 -1686 13949 -8754
49067 316920 280536 -1693 13946 -8757
49078 316923 280524 -1709 13951 -8752
49101 316965 280552 -1718 13961 -8746
49128 317026 280593 -1697 13952 -8756
49139 317025 280592 -1689 13922 -8731
49143 316986 280550 -1718 13906 -8698
49152 316962 280517 -1724 13876 -8733
49145 316839 280435 -1663 13868 -8772
49133 316730 280368 -1640 13915 -8790
49121 316675 280338 -1683 13940 -8801
49106 316629 280303 -1684 13943 -8781
49098 316629 280313 -1661 13933 -8775
49088 316651 280321 -1662 13918 -8782
49081 316649 280325 -1687 13883 -8778
49071 316652 280319 -1698 13868 -8775
49066 316643 280298 -1699 13886 -8782
49057 316622 280275 -1724 13876 -8733
49059 316653 280300 -1663 13868 -8772
49066 316682 280325 -1640 13915 -8790
49077 316724 280346 -1683 13940 -8801
49068 316676 280297 -1684 13943 -8781
49067 316650 280275 -1661 13933 -8775
49073 316666 280287 -1662 13918 -8782
49069 316651 280280 -1687 13883 -8778
49071 316657 280272 -1698 13868 -8775
49066 316625 280250 -1699 13886 -8782
49066 316595 280236 -1632 13862 -8828
49070 316623 280257 -1660 13918 -8822
49082 316685 280304 -1706 13935 -8806
49087 316693 280311 -1668 13917 -8778
49085 316678 280283 -1621 13916 -8764
49083 316655 280275 -1665 13926 -8781
49091 316652 280268 -1715 13917 -8800
49096 316609 280256 -1711 13890 -8796
49098 316578 280215 -1689 13885 -8801
49095 316521 280178 -1676 13856 -8818
49100 316503 280146 -1683 13844 -8822
49106 316489 280136 -1698 13887 -8835
49116 316494 280145 -1699 13913 -8851
49123 316507 280148 -1691 13916 -8832
49135 316506 280150 -1688 13904 -8812
49145 316498 280148 -1693 13893 -8819
49153 316498 280141 -1688 13870 -8828
49161 316487 280122 -1676 13852 -8831
49168 316461 280112 -1679 13856 -8829
49183 316483 280125 -1680 13818 -8833
49195 316491 280122 -1659 13780 -8848
49200 316469 280111 -1664 13787 -8845
49203 316456 280084 -1680 13827 -8850
49213 316413 280067 -1683 13864 -8857
49203 316297 279999 -1690 13868 -8851
49191 316237 279979 -1694 13870 -8862
49174 316184 279942 -1701 13888 -8865
49154 316125 279919 -1708 13903 -8853
49143 316110 279910 -1704 13893 -8855
49132 316123 279917 -1679 13832 -8860
49123 316127 279928 -1670 13780 -8844
49119 316144 279946 -1673 13818 -8812
49111 316143 279932 -1687 13861 -8833
49114 316152 279957 -1662 13869 -8872
49106 316134 279938 -1616 13856 -8887
49108 316172 279961 -1644 13861 -8902
49102 316115 279929 -1680 13886 -8887
49094 316071 279906 -1680 13843 -8874
49094 316071 279915 -1672 13804 -8876
49092 316070 279926 -1665 13795 -8874
49089 316037 279906 -1666 13753 -8885
49086 316013 279895 -1691 13751 -8885
49079 315988 279888 -1687 13830 -8868
49076 315966 279885 -1633 13895 -8839
49076 315987 279904 -1638 13920 -8835
49076 315990 279906 -1691 13933 -8830
49080 315981 279906 -1651 13912 -8809
49083 315990 279916 -1620 13888 -8819
49090 316010 279947 -1667 13906 -8822
49094 316029 279953 -1704 13912 -8827
49103 316037 279958 -1677 13852 -8839
49110 316058 279973 -1638 13829 -8841
49120 316084 280002 -1647 13861 -8827
49134 316108 280009 -1668 13872 -8813
49140 316115 280026 -1681 13879 -8810
49147 316134 280039 -1683 13899 -8799
49158 316162 280044 -1681 13910 -8784
49167 316178 280054 -1676 13910 -8788
49180 316193 280057 -1686 13911 -8790
49188 316198 280064 -1693 13896 -8798
49202 316225 280087 -1636 13831 -8831
49217 316255 280111 -1667 13837 -8830
49224 316254 280100 -1707 13856 -8819
49229 316219 280072 -1718 13877 -8805
49232 316185 280049 -1708 13895 -8802
49218 316071 279977 -1701 13917 -8790
49208 316022 279953 -1701 13926 -8798
49188 315971 279933 -1703 13916 -8815
49159 315883 279874 -1705 13928 -8815
49136 315858 279860 -1654 13904 -8815
49116 315859 279864 -1670 13877 -8789
49101 315863 279870 -1703 13901 -8769
49087 315878 279880 -1728 13910 -8782
49072 315875 279874 -1697 13893 -8803
49059 315890 279874 -1655 13889 -8810
49055 315898 279888 -1688 13897 -8836
49045 315905 279888 -1717 13893 -8839
49042 315934 279921 -1700 13877 -8822
49031 315888 279880 -1678 13838 -8818
49027 315917 279877 -1666 13807 -8824
49020 315907 279891 -1677 13801 -8820
49012 315900 279887 -1702 13822 -8810
49002 315888 279879 -1702 13874 -8803
48993 315892 279878 -1684 13917 -8811
48984 315882 279896 -1668 13940 -8795
48980 315905 279901 -1693 13939 -8798
48971 315910 279912 -1728 13944 -8778
48965 315926 279922 -1667 13950 -8740
48962 315949 279938 -1644 13924 -8753
48961 315974 279949 -1705 13886 -8783
48961 315998 279975 -1728 13870 -8792
48961 316010 279984 -1701 13887 -8782
48960 316025 279992 -1675 13903 -8788
48967 316053 280010 -1684 13905 -8798
48971 316059 280010 -1690 13918 -8797
48973 316086 280017 -1694 13932 -8785
48978 316102 280035 -1701 13931 -8782
48983 316110 280042 -1690 13923 -8772
48987 316118 280055 -1679 13910 -8777
48990 316107 280033 -1663 13853 -8820
48986 316061 280003 -1665 13865 -8819
48991 316045 279969 -1676 13886 -8807
48993 316016 279961 -1687 13897 -8797
49003 316015 279963 -1675 13891 -8810
49010 316025 279968 -1663 13897 -8814
49023 316056 279998 -1680 13888 -8810
49034 316053 279996 -1710 13874 -8824
49040 316035 279978 -1718 13879 -8849
49038 316013 279945 -1687 13826 -8858
49031 315918 279884 -1693 13844 -8854
49018 315832 279834 -1695 13872 -8856
49001 315798 279820 -1720 13886 -8865
48972 315756 279788 -1723 13867 -8861
48946 315756 279782 -1718 13864 -8851
48925 315779 279801 -1731 13873 -8829
48903 315789 279815 -1750 13844 -8834
48884 315814 279817 -1705 13845 -8850
48863 315833 279821 -1662 13830 -8900
48851 315882 279857 -1719 13839 -8909
48845 315933 279867 -1704 13839 -8904
48832 315958 279882 -1669 13837 -8890
48822 315988 279904 -1676 13813 -8877
48811 315987 279888 -1711 13804 -8869
48804 316008 279888 -1718 13817 -8864
48800 316039 279918 -1708 13844 -8862
48788 316048 279916 -1694 13869 -8890
48775 316038 279893 -1661 13846 -8910
48766 316055 279901 -1651 13811 -8907
48753 316061 279909 -1687 13826 -8887
48744 316077 279917 -1671 13817 -8872
48744 316132 279957 -1632 13838 -8871
48742 316173 279977 -1659 13873 -8872
48736 316181 279992 -1697 13856 -8867
48730 316185 279982 -1683 13861 -8852
48726 316186 279979 -1649 13872 -8851
48718 316176 279964 -1647 13871 -8842
48717 316183 279960 -1647 13857 -8845
48721 316223 279989 -1633 13843 -8854
48729 316264 280011 -1641 13848 -8845
48730 316266 279999 -1651 13876 -8842
48732 316260 279992 -1654 13889 -8856
48732 316245 279975 -1660 13880 -8864
48731 316233 279958 -1662 13860 -8857
48741 316264 279970 -1661 13860 -8857
48756 316307 280010 -1659 13868 -8869
48762 316321 280006 -1657 13869 -8881
48763 316305 279986 -1656 13846 -8884
48768 316320 280008 -1653 13800 -8893
48783 316353 280031 -1663 13782 -8901
48793 316374 280048 -1682 13813 -8886
48793 316335 280013 -1694 13840 -8883
48797 316339 279999 -1696 13849 -8888
48789 316249 279940 -1691 13862 -8886
48769 316153 279878 -1701 13862 -8893
48750 316095 279857 -1706 13864 -8894
48715 316028 279803 -1686 13837 -8884
48687 315990 279779 -1686 13802 -8863
48664 316006 279793 -1718 13776 -8886
48650 316042 279825 -1690 13802 -8915
48634 316056 279839 -1649 13837 -8929
48620 316054 279837 -1682 13849 -8946
48604 316042 279829 -1694 13840 -8933
48592 316037 279828 -1658 13814 -8914
48572 315997 279785 -1654 13775 -8914
48560 316013 279780 -1677 13763 -8908
48549 315969 279762 -1694 13769 -8904
48552 316024 279796 -1660 13789 -8917
48552 316067 279829 -1641 13813 -8919
48546 316065 279836 -1650 13825 -8907
48537 316066 279832 -1698 13825 -8898
48526 316076 279840 -1702 13821 -8879
48516 316070 279846 -1640 13818 -8867
48508 316072 279833 -1642 13822 -8896
48497 316074 279834 -1702 13833 -8900
48492 316064 279839 -1699 13820 -8890
48483 316057 279835 -1622 13782 -8933
48483 316061 279831 -1647 13774 -8948
48479 316083 279838 -1673 13809 -8944
48477 316093 279847 -1691 13812 -8926
48478 316108 279860 -1701 13806 -8921
48481 316145 279888 -1707 13810 -8919
48487 316164 279895 -1703 13817 -8920
48485 316151 279892 -1694 13813 -8920
48493 316159 279888 -1689 13777 -8922
48499 316166 279898 -1676 13768 -8921
48508 316194 279923 -1650 13770 -8910
48514 316192 279927 -1651 13781 -8902
48517 316192 279916 -1671 13808 -8908
48527 316222 279941 -1680 13823 -8905
48540 316253 279967 -1685 13810 -8905
48550 316257 279971 -1691 13806 -8930
48548 316245 279954 -1703 13838 -8932
48557 316247 279944 -1713 13882 -8922
48550 316145 279887 -1696 13875 -8922
48531 316044 279828 -1688 13811 -8934
48508 315979 279807 -1717 13766 -8923
48477 315907 279769 -1718 13782 -8917
48448 315871 279758 -1704 13810 -8931
48420 315842 279742 -1622 13817 -8943
48396 315832 279748 -1585 13818 -8963
48378 315845 279754 -1659 13810 -8952
48364 315833 279750 -1670 13815 -8922
48352 315837 279771 -1648 13815 -8894
48339 315834 279775 -1653 13807 -8872
48327 315817 279768 -1677 13794 -8877
48322 315847 279786 -1640 13748 -8920
48315 315810 279752 -1648 13823 -8922
48304 315793 279736 -1630 13871 -8898
48302 315800 279759 -1645 13877 -8894
48292 315787 279742 -1696 13893 -8894
48289 315794 279737 -1647 13895 -8876
48282 315801 279752 -1588 13873 -8890
48274 315803 279757 -1627 13866 -8902
48266 315813 279752 -1677 13854 -8908
48262 315826 279766 -1638 13814 -8916
48263 315853 279787 -1569 13799 -8901
48259 315876 279805 -1576 13823 -8887
48259 315876 279798 -1611 13833 -8895
48263 315906 279825 -1629 13852 -8902
48265 315926 279841 -1640 13874 -8899
48269 315935 279849 -1647 13867 -8888
48273 315962 279853 -1647 13851 -8889
48279 315995 279872 -1654 13857 -8893
48287 316001 279879 -1656 13858 -8898
48297 316026 279892 -1591 13763 -8911
48307 316047 279914 -1592 13776 -8907
48318 316079 279935 -1601 13793 -8908
48328 316109 279954 -1613 13810 -8919
48339 316122 279951 -1642 13832 -8915
48343 316117 279957 -1650 13840 -8898
48280 315852 279800 -1562 13840 -8917
48254 315870 279811 -1583 13845 -8943
48229 315878 279822 -1647 13840 -8950
48206 315894 279828 -1620 13812 -8944
48188 315895 279844 -1563 13789 -8934
48170 315918 279856 -1578 13776 -8920
48162 315935 279870 -1616 13768 -8901
48145 315928 279857 -1629 13785 -8887
48131 315946 279870 -1622 13828 -8898
48113 315894 279820 -1601 13853 -8928
48104 315907 279829 -1589 13870 -8925
48098 315931 279854 -1612 13882 -8909
48089 315935 279849 -1651 13873 -8877
48078 315949 279870 -1636 13860 -8863
48070 315951 279872 -1592 13821 -8898
48056 315931 279876 -1616 13803 -8929
48050 315949 279877 -1664 13812 -8931
48041 315962 279882 -1652 13821 -8929
48035 315970 279887 -1623 13835 -8925
48028 315970 279888 -1607 13833 -8908
48023 315960 279892 -1605 13842 -8906
48023 315988 279903 -1624 13843 -8913
48023 315999 279913 -1644 13838 -8919
48027 316016 279914 -1650 13841 -8931
48029 316026 279920 -1584 13786 -8959
48031 316043 279922 -1611 13787 -8963
48037 316065 279934 -1616 13763 -8959
48043 316078 279936 -1625 13764 -8953
48052 316096 279946 -1643 13763 -8956
48062 316121 279957 -1659 13761 -8949
48073 316131 279958 -1649 13774 -8954
48073 316112 279936 -1649 13775 -8957
48086 316145 279951 -1669 13772 -8957
48096 316153 279965 -1631 13754 -8984
48112 316195 279992 -1638 13778 -8974
48122 316207 279980 -1650 13771 -8977
48135 316238 280001 -1645 13771 -8985
48151 316271 280024 -1660 13771 -8982
48164 316282 280028 -1682 13797 -8983
48169 316269 280001 -1670 13790 -8971
48172 316235 279978 -1652 13738 -8945
48163 316131 279905 -1672 13741 -8916
48146 316035 279849 -1651 13716 -8995
48124 315972 279812 -1595 13729 -9014
48094 315917 279766 -1628 13766 -9030
48066 315898 279756 -1674 13781 -9032
48054 315944 279795 -1653 13753 -9005
48036 315978 279827 -1637 13747 -8993
48017 315964 279820 -1658 13747 -8987
47998 315974 279809 -1682 13734 -8974
47986 315974 279814 -1693 13732 -8969
47973 315989 279820 -1679 13728 -8990
47957 315957 279790 -1623 13729 -9019
47950 315971 279802 -1587 13741 -9019
47943 315955 279779 -1626 13762 -9023
47941 315972 279792 -1690 13762 -8997
47940 315972 279791 -1671 13726 -8978
47927 315966 279772 -1635 13712 -9005
47922 315951 279764 -1675 13732 -9023
47912 315943 279765 -1713 13721 -9015
47905 315929 279750 -1683 13707 -9014
47900 315938 279748 -1647 13706 -9025
47906 315994 279795 -1637 13693 -9020
47906 316006 279812 -1648 13699 -9017
47904 316012 279798 -1677 13735 -9036
47903 316008 279798 -1700 13759 -9039
47906 316016 279807 -1718 13753 -9028
47910 316022 279803 -1713 13734 -9020
47912 316024 279804 -1707 13723 -9019
47914 316007 279796 -1706 13705 -9030
47915 315997 279768 -1691 13676 -9030
47918 315975 279753 -1689 13654 -9037
47931 316007 279775 -1671 13643 -9052
47946 316058 279795 -1650 13639 -9052
47963 316073 279803 -1669 13669 -9044
47969 316069 279800 -1699 13705 -9047
47977 316062 279795 -1715 13717 -9059
47987 316063 279791 -1714 13693 -9077
47996 316073 279786 -1700 13678 -9073
48011 316095 279811 -1699 13711 -9058
48028 316107 279831 -1707 13733 -9054
48036 316101 279806 -1684 13707 -9039
48047 316103 279806 -1663 13687 -8988
48052 316058 279773 -1710 13713 -8995
48043 315964 279708 -1718 13744 -9043
48033 315931 279715 -1649 13730 -9059
48017 315887 279703 -1626 13698 -9078
48000 315886 279699 -1689 13697 -9074
47981 315901 279705 -1682 13681 -9064
47963 315906 279719 -1661 13651 -9060
47950 315908 279728 -1671 13641 -9059
47939 315937 279741 -1700 13617 -9044
47934 315968 279755 -1706 13637 -9057
47929 315983 279792 -1700 13683 -9085
47925 315992 279784 -1674 13714 -9088
47926 316038 279820 -1696 13713 -9073
47920 316024 279799 -1738 13731 -9045
47916 316005 279792 -1674 13729 -9009
47923 316035 279821 -1636 13709 -9010
47925 316043 279837 -1697 13722 -9037
47920 316037 279829 -1724 13710 -9045
47918 316015 279823 -1681 13679 -9030
47912 316000 279824 -1649 13684 -9022
47910 315997 279828 -1663 13700 -9020
47912 316007 279845 -1688 13704 -9027
47915 316024 279865 -1708 13711 -9020
47920 316024 279874 -1716 13733 -9009
47921 316047 279870 -1715 13751 -9012
47925 316054 279880 -1703 13737 -9020
47935 316072 279901 -1701 13727 -9025
47946 316098 279914 -1702 13718 -9036
47956 316124 279933 -1690 13676 -9045
47969 316120 279930 -1691 13671 -9051
47981 316145 279946 -1706 13667 -9055
47998 316172 279955 -1707 13669 -9061
48008 316189 279959 -1709 13709 -9063
48022 316190 279971 -1717 13729 -9049
48031 316187 279973 -1722 13732 -9041
48043 316189 279970 -1721 13730 -9043
48054 316182 279956 -1719 13716 -9039
48060 315963 279814 -1717 13738 -9027
48040 315962 279824 -1654 13694 -8998
48025 315973 279840 -1611 13680 -8972
48009 315980 279830 -1657 13677 -8967
47995 315971 279829 -1707 13688 -8982
47982 315969 279835 -1720 13709 -8980
47980 316011 279869 -1705 13739 -8977
47966 315982 279845 -1681 13773 -9011
47965 316011 279862 -1666 13784 -9015
47949 315940 279805 -1699 13776 -9012
47946 315929 279799 -1722 13755 -8997
47941 315915 279795 -1569 13696 -8988
47936 315902 279781 -1658 13724 -8986
47931 315909 279790 -1701 13734 -8993
47929 315930 279805 -1685 13758 -8987
47925 315946 279816 -1662 13757 -8984
47925 315966 279826 -1672 13733 -8996
47923 315978 279849 -1674 13750 -9010
47928 316032 279874 -1662 13778 -9022
47932 316063 279913 -1652 13795 -9036
47943 316116 279951 -1627 13736 -9061
47948 316135 279962 -1642 13727 -9060
47952 316145 279966 -1649 13725 -9047
47959 316168 279987 -1643 13719 -9044
47972 316211 280011 -1646 13705 -9030
47984 316233 280027 -1652 13714 -9021
48001 316266 280047 -1645 13725 -9022
48012 316302 280068 -1637 13734 -9030
48027 316327 280072 -1647 13745 -9032
48038 316350 280083 -1652 13750 -9024
48051 316354 280084 -1635 13741 -9023
48062 316379 280089 -1631 13752 -9019
48078 316401 280111 -1653 13772 -9008
48092 316423 280121 -1663 13761 -9016
48105 316432 280124 -1637 13749 -9026
48119 316449 280127 -1632 13757 -9012
48135 316458 280130 -1663 13791 -8994
48155 316498 280165 -1668 13778 -9010
48175 316516 280174 -1645 13740 -9030
48186 316505 280151 -1646 13731 -8981
48192 316478 280113 -1676 13692 -8967
48199 316438 280077 -1666 13694 -9010
48192 316324 280001 -1581 13699 -9022
48180 316246 279969 -1585 13700 -9050
48154 316192 279931 -1670 13718 -9080
48127 316134 279889 -1660 13702 -9071
48107 316127 279901 -1623 13705 -9069
48084 316130 279912 -1631 13699 -9067
48071 316144 279919 -1666 13675 -9049
48054 316157 279905 -1687 13664 -9046
48040 316167 279927 -1676 13692 -8967
48032 316183 279929 -1666 13694 -9010
48031 316213 279949 -1581 13699 -9022
48022 316216 279949 -1585 13700 -9050
48017 316263 279970 -1670 13718 -9080
48007 316237 279951 -1660 13702 -9071
48009 316277 279977 -1623 13705 -9069
48009 316304 279994 -1631 13699 -9067
48006 316295 279988 -1666 13675 -9049
47995 316276 279969 -1687 13664 -9046
48010 316398 280011 -1643 13651 -9090
48025 316420 280032 -1667 13666 -9067
48045 316486 280072 -1683 13695 -9068
48058 316503 280069 -1691 13712 -9086
48068 316491 280056 -1689 13717 -9080
48073 316445 280016 -1689 13721 -9063
48083 316436 280002 -1685 13717 -9056
48101 316474 280028 -1677 13699 -9067
48117 316491 280042 -1673 13683 -9066
48133 316497 280029 -1634 13650 -9066
48146 316498 280022 -1647 13645 -9071
48156 316510 280024 -1674 13665 -9086
48173 316517 280039 -1682 13672 -9098
48186 316514 280031 -1686 13675 -9100
48196 316485 280009 -1693 13681 -9077
48207 316490 279991 -1693 13711 -9061
48210 316411 279928 -1695 13730 -9075
48202 316311 279868 -1698 13712 -9083
48196 316288 279856 -1683 13691 -9084
48180 316245 279835 -1673 13707 -9084
48159 316214 279821 -1682 13722 -9080
48146 316215 279831 -1683 13699 -9066
48136 316252 279854 -1692 13681 -9062
48128 316291 279882 -1710 13689 -9036
48119 316296 279889 -1729 13692 -9046
48112 316295 279892 -1704 13672 -9087
48105 316334 279916 -1633 13663 -9107
48098 316334 279911 -1644 13695 -9136
48092 316321 279908 -1672 13691 -9127
48088 316303 279883 -1617 13655 -9102
48087 316282 279864 -1608 13645 -9088
48085 316290 279886 -1666 13629 -9092
48090 316320 279914 -1698 13605 -9095
48087 316301 279896 -1702 13616 -9090
48085 316306 279902 -1695 13658 -9096
48078 316294 279897 -1675 13692 -9110
48073 316287 279890 -1665 13705 -9102
48070 316290 279895 -1696 13702 -9105
48072 316297 279908 -1717 13700 -9073
48074 316283 279911 -1623 13668 -9041
48079 316295 279918 -1601 13660 -9063
48089 316317 279949 -1694 13674 -9079
48099 316347 279973 -1716 13652 -9090
48106 316358 279988 -1694 13645 -9082
48117 316363 279992 -1673 13661 -9068
48132 316374 280017 -1676 13671 -9051
48146 316395 280035 -1695 13701 -9054
48160 316405 280047 -1706 13727 -9055
48169 316399 280032 -1700 13724 -9048
48181 316398 280031 -1659 13688 -9069
48190 316350 279989 -1680 13688 -9062
48197 316322 279973 -1699 13693 -9057
48212 316304 279975 -1692 13692 -9045
48225 316304 279959 -1683 13683 -9031
48243 316321 279973 -1691 13693 -9046
48251 316292 279955 -1702 13684 -9059
48259 316259 279923 -1709 13677 -9058
48266 316218 279894 -1714 13703 -9063
48282 316221 279898 -1712 13707 -9063
48274 316097 279807 -1687 13692 -9048
48258 316001 279766 -1682 13706 -9041
48245 315977 279737 -1710 13733 -9044
48226 315933 279722 -1723 13774 -9041
48202 315902 279701 -1705 13758 -9024
48184 315899 279692 -1693 13713 -9001
48161 315882 279680 -1709 13735 -8935
48149 315897 279680 -1730 13749 -8930
48135 315882 279668 -1723 13756 -8981
48124 315861 279645 -1633 13750 -8999
48114 315862 279637 -1622 13729 -9021
48107 315852 279629 -1694 13738 -9024
48108 315919 279669 -1683 13754 -9016
48105 315890 279637 -1661 13740 -9014
48098 315878 279626 -1676 13729 -9002
48094 315865 279611 -1707 13698 -8979
48089 315865 279631 -1720 13680 -8987
48091 315901 279655 -1714 13694 -8996
48087 315899 279661 -1696 13713 -8989
48080 315894 279638 -1663 13740 -8984
48076 315910 279645 -1685 13714 -9010
48074 315931 279674 -1729 13738 -8999
48079 315962 279691 -1688 13772 -8977
48078 315968 279703 -1666 13758 -8973
48076 315974 279698 -1714 13777 -8952
48077 315963 279692 -1749 13762 -8966
48084 315998 279713 -1739 13734 -8985
48094 316024 279733 -1718 13752 -8988
48107 316040 279751 -1706 13765 -8972
48118 316073 279773 -1692 13757 -8966
48131 316086 279784 -1682 13739 -8987
48141 316099 279786 -1693 13745 -8993
48155 316109 279806 -1707 13781 -8984
48166 316139 279822 -1701 13794 -8971
48185 316177 279847 -1699 13777 -8963
48201 316205 279871 -1701 13750 -8980
48217 316223 279883 -1705 13741 -8985
48229 316239 279891 -1707 13764 -8977
48249 316282 279929 -1700 13779 -8978
48268 316287 279940 -1700 13766 -8988
48281 316283 279934 -1691 13718 -8984
48293 316289 279929 -1696 13745 -8966
48288 316193 279869 -1708 13762 -8959
48277 316088 279794 -1709 13765 -8969
48263 316041 279786 -1697 13766 -8969
48243 315993 279773 -1711 13793 -8955
48216 315963 279741 -1729 13806 -8947
48195 315944 279745 -1707 13789 -8949
48174 315948 279744 -1695 13795 -8934
48161 315969 279762 -1735 13776 -8962
48144 315975 279774 -1659 13763 -8961
48136 315982 279773 -1630 13761 -8972
48123 315996 279786 -1699 13786 -8983
48115 316002 279795 -1713 13772 -8978
48106 315991 279789 -1682 13764 -8971
48104 316014 279794 -1676 13754 -8955
48095 315998 279771 -1710 13716 -8942
48095 316009 279788 -1726 13718 -8941
48092 316025 279801 -1670 13733 -8984
48087 316018 279801 -1672 13753 -9001
48084 316037 279810 -1674 13761 -8968
48082 316058 279841 -1699 13776 -8948
48083 316075 279842 -1719 13799 -8945
48080 316086 279849 -1670 13790 -8923
48080 316114 279869 -1676 13783 -8929
48083 316141 279870 -1731 13790 -8949
48085 316169 279893 -1728 13788 -8949
48092 316208 279921 -1685 13779 -8949
48102 316252 279940 -1652 13756 -8972
48110 316274 279946 -1668 13751 -8981
48119 316290 279964 -1690 13778 -8986
48132 316346 280001 -1703 13790 -8989
48142 316376 280010 -1718 13781 -8978
48152 316384 280002 -1723 13785 -8966
48159 316395 280009 -1712 13782 -8968
48174 316411 280015 -1696 13766 -8981
48191 316456 280046 -1689 13745 -8988
48208 316485 280055 -1692 13716 -8986
48214 316462 280039 -1706 13697 -9007
48230 316484 280048 -1715 13715 -9012
48243 316496 280046 -1718 13732 -9005
48260 316529 280079 -1722 13724 -9004
48277 316545 280073 -1729 13717 -9013
48290 316557 280060 -1727 13724 -9013
48291 316472 280004 -1733 13734 -9008
48279 316367 279946 -1749 13755 -9009
48268 316344 279942 -1737 13741 -9001
48243 316281 279893 -1733 13711 -8980
48220 316252 279873 -1750 13705 -9008
48199 316250 279867 -1731 13700 -9047
48189 316282 279895 -1695 13719 -9050
48186 316347 279944 -1717 13740 -9067
48172 316334 279925 -1739 13736 -9071
48165 316329 279930 -1706 13720 -9043
48158 316341 279931 -1691 13695 -9024
48151 316323 279896 -1709 13664 -9005
48155 316379 279945 -1730 13657 -9000
48153 316362 279923 -1726 13671 -9006
48156 316373 279936 -1713 13708 -9008
48160 316391 279954 -1715 13764 -9013
48156 316381 279937 -1708 13777 -8985
48152 316381 279941 -1742 13738 -8994
48148 316359 279916 -1773 13744 -8987
48146 316341 279902 -1696 13750 -8967
48145 316352 279910 -1669 13736 -8994
48151 316399 279936 -1738 13734 -9001
48154 316413 279947 -1755 13708 -9002
48158 316414 279943 -1693 13671 -9003
48160 316412 279938 -1660 13681 -8995
48167 316417 279931 -1702 13692 -8996
48171 316391 279923 -1726 13692 -9007
48177 316407 279916 -1731 13729 -9004
48187 316410 279920 -1734 13754 -9007
48198 316411 279922 -1736 13745 -9010
48209 316413 279922 -1731 13736 -9007
48220 316424 279913 -1737 13726 -9022
48233 316422 279913 -1743 13708 -9038
48245 316430 279906 -1711 13665 -9062
48260 316447 279927 -1727 13691 -9046
48280 316464 279938 -1738 13696 -9043
48295 316469 279939 -1737 13691 -9062
48305 316445 279906 -1744 13700 -9064
48321 316455 279904 -1763 13718 -9060
48322 316372 279844 -1758 13726 -9061
48318 316291 279812 -1742 13689 -9060
48311 316256 279801 -1757 13680 -9029
48290 316201 279766 -1761 13679 -9006
48280 316205 279775 -1748 13701 -9037
48271 316223 279796 -1715 13715 -9057
48260 316222 279792 -1747 13740 -9069
48254 316225 279791 -1749 13720 -9036
48252 316239 279811 -1729 13665 -9009
48249 316252 279826 -1740 13661 -8996
48250 316259 279837 -1753 13658 -8989
48247 316256 279837 -1757 13648 -8991
48249 316270 279837 -1726 13673 -9005
48247 316247 279817 -1700 13714 -8996
48252 316224 279802 -1720 13745 -8991
48254 316218 279803 -1765 13753 -8983
48256 316205 279805 -1732 13736 -8976
48260 316216 279821 -1700 13732 -8983
48265 316219 279825 -1733 13755 -8984
48266 316238 279834 -1771 13735 -8992
48272 316234 279846 -1763 13700 -8989
48271 316230 279832 -1722 13687 -8992
48276 316236 279855 -1710 13675 -8995
48286 316252 279857 -1724 13701 -8982
48297 316282 279878 -1737 13735 -8978
48309 316290 279879 -1749 13751 -8982
48314 316289 279892 -1752 13758 -8984
48328 316306 279898 -1746 13770 -8973
48342 316310 279902 -1748 13777 -8963
48351 316311 279908 -1759 13751 -8961
48369 316339 279916 -1759 13751 -8956
48381 316338 279916 -1744 13754 -8968
48398 316355 279917 -1735 13728 -8988
48415 316359 279915 -1741 13714 -8998
48432 316377 279943 -1751 13728 -9003
48455 316410 279963 -1752 13725 -8997
48461 316359 279932 -1756 13715 -8988
48471 316304 279886 -1769 13742 -8987
48487 316310 279876 -1763 13784 -9003
48495 316241 279831 -1742 13779 -9014
48486 316128 279757 -1745 13754 -8973
48479 316097 279746 -1763 13742 -8936
48464 316047 279737 -1774 13733 -8951
48447 316012 279708 -1734 13700 -8991
48432 315998 279708 -1702 13697 -9024
48422 316011 279717 -1737 13732 -9043
48415 316032 279730 -1748 13740 -9043
48410 316044 279748 -1722 13732 -9013
48406 316046 279739 -1717 13693 -8985
48407 316058 279752 -1734 13673 -8979
48403 316065 279760 -1740 13688 -8978
48407 316122 279793 -1742 13721 -8984
48407 316114 279772 -1693 13728 -8982
48406 316104 279766 -1686 13765 -8955
48408 316103 279779 -1722 13765 -8963
48406 316097 279770 -1751 13753 -8976
48407 316113 279774 -1685 13747 -8956
48409 316113 279793 -1672 13758 -8965
48409 316119 279791 -1733 13745 -8974
48407 316142 279806 -1742 13713 -8975
48415 316162 279822 -1719 13702 -8982
48418 316180 279836 -1681 13693 -8997
48425 316200 279853 -1698 13712 -9008
48434 316249 279892 -1714 13745 -9001
48441 316289 279910 -1711 13762 -8978
48453 316313 279925 -1714 13758 -8970
48461 316325 279932 -1724 13752 -8980
48475 316351 279939 -1732 13736 -9004
48633 316445 280003 -1716 13737 -9003
48644 316404 279975 -1718 13739 -8973
48639 316298 279910 -1748 13712 -8974
48637 316221 279859 -1753 13724 -8987
48626 316150 279832 -1673 13737 -8990
48611 316103 279812 -1653 13768 -9007
48599 316090 279807 -1717 13777 -9009
48588 316068 279806 -1727 13742 -8997
48576 316069 279809 -1704 13746 -8987
48571 316072 279808 -1706 13724 -8993
48564 316075 279815 -1723 13699 -8994
48561 316089 279810 -1722 13695 -8991
48558 316095 279821 -1694 13694 -9006
48557 316092 279819 -1671 13721 -9026
48554 316119 279826 -1673 13767 -9012
48550 316092 279792 -1691 13770 -8978
48549 316094 279800 -1732 13752 -8972
48553 316101 279795 -1735 13744 -8957
48555 316111 279790 -1680 13743 -8940
48555 316124 279806 -1688 13733 -8957
48555 316123 279801 -1744 13705 -8976
48556 316131 279797 -1737 13703 -8999
48563 316160 279820 -1668 13658 -9012
48567 316190 279835 -1705 13686 -9011
48572 316215 279855 -1720 13720 -9013
48579 316231 279851 -1730 13740 -9028
48581 316223 279852 -1747 13746 -9037
48591 316247 279843 -1749 13727 -9037
48605 316288 279880 -1739 13712 -9033
48625 316357 279935 -1740 13700 -9035
48639 316395 279952 -1741 13688 -9046
48652 316407 279961 -1728 13661 -9054
48658 316400 279935 -1728 13626 -9052
48666 316391 279925 -1740 13620 -9057
48680 316403 279919 -1747 13647 -9046
48700 316439 279949 -1744 13640 -9040
48718 316470 279967 -1747 13623 -9061
48734 316487 279981 -1755 13652 -9067
48741 316485 279979 -1756 13679 -9065
48753 316505 279979 -1766 13694 -9062
48772 316512 279979 -1769 13719 -9054
48786 316504 279974 -1725 13673 -9031
48797 316501 279969 -1752 13667 -8976
48815 316521 279973 -1781 13681 -8980
48819 316442 279924 -1770 13710 -9051
48809 316347 279852 -1730 13708 -9076
48802 316317 279841 -1738 13714 -9104
48784 316255 279802 -1770 13718 -9107
48773 316225 279784 -1749 13669 -9070
48761 316220 279767 -1732 13640 -9046
48756 316217 279764 -1762 13625 -9053
48749 316246 279787 -1784 13591 -9061
48753 316292 279827 -1777 13593 -9053
48750 316326 279839 -1770 13636 -9061
48749 316333 279846 -1756 13675 -9074
48741 316299 279811 -1742 13698 -9032
48739 316321 279811 -1766 13713 -9030
48730 316277 279779 -1787 13710 -9030
48737 316318 279809 -1727 13680 -9021
48744 316341 279838 -1716 13667 -9068
48746 316338 279839 -1777 13659 -9084
48744 316330 279834 -1789 13626 -9062
48742 316338 279838 -1758 13624 -9044
48742 316326 279834 -1742 13636 -9038
48742 316324 279834 -1754 13649 -9039
48743 316342 279846 -1768 13667 -9036
48744 316343 279848 -1766 13683 -9020
48748 316362 279854 -1761 13704 -9015
48759 316381 279873 -1760 13700 -9011
48765 316391 279892 -1758 13695 -8996
48772 316408 279900 -1762 13679 -9004
48782 316414 279913 -1761 13639 -9016
48792 316437 279914 -1754 13636 -9012
48803 316453 279927 -1749 13663 -9011
48814 316476 279938 -1742 13686 -9008
48827 316471 279943 -1748 13685 -9010
48842 316505 279954 -1761 13678 -9015
48855 316522 279958 -1759 13684 -9026
48867 316529 279977 -1765 13702 -9026
48887 316572 280013 -1779 13748 -9016
48900 316602 280026 -1759 13752 -9011
48914 316598 280026 -1761 13695 -8981
48917 316556 279987 -1784 13714 -8957
48926 316531 279973 -1789 13709 -8994
48921 316438 279922 -1730 13714 -9023
48914 316384 279874 -1696 13728 -9040
48894 316303 279830 -1754 13724 -9038
48876 316249 279789 -1763 13692 -9012
48868 316244 279806 -1740 13680 -8996
48858 316278 279829 -1734 13669 -8996
48849 316281 279843 -1759 13752 -9011
48839 316270 279833 -1761 13695 -8981
48829 316266 279837 -1784 13714 -8957
48824 316270 279839 -1789 13709 -8994
48823 316276 279848 -1730 13714 -9023
48819 316289 279865 -1696 13728 -9040
48814 316284 279851 -1754 13724 -9038
48808 316238 279816 -1763 13692 -9012
48802 316215 279809 -1740 13680 -8996
48803 316211 279811 -1734 13669 -8996
48799 316198 279823 -1778 13634 -9032
48791 316178 279808 -1776 13653 -9015
48782 316170 279811 -1764 13698 -9020
48783 316169 279811 -1736 13740 -9007
48785 316192 279827 -1744 13750 -9003
48779 316191 279828 -1783 13771 -8992
48778 316198 279842 -1746 13752 -8974
48774 316188 279826 -1704 13706 -8978
48772 316207 279832 -1746 13687 -8978
48776 316225 279848 -1789 13661 -8989
48779 316237 279860 -1778 13665 -8987
48785 316245 279864 -1747 13690 -8985
48789 316264 279867 -1744 13698 -8993
48794 316268 279878 -1761 13694 -9003
48801 316278 279870 -1773 13717 -9003
48805 316292 279887 -1768 13742 -8988
48813 316293 279877 -1765 13758 -8981
48812 316267 279852 -1766 13743 -8978
48825 316271 279857 -1763 13722 -8983
48831 316272 279876 -1764 13716 -8994
48846 316326 279909 -1759 13698 -8996
48859 316374 279943 -1753 13702 -8984
48868 316366 279933 -1758 13703 -8981
48872 316359 279931 -1759 13708 -8995
48882 316364 279944 -1755 13722 -8999
48876 316282 279886 -1756 13735 -9002
48860 316208 279854 -1754 13740 -8999
48839 316171 279838 -1744 13735 -9001
48814 316134 279829 -1750 13727 -9004
48791 316130 279820 -1772 13726 -9018
48762 316102 279806 -1753 13724 -9043
48740 316104 279810 -1721 13750 -9033
48717 316096 279817 -1734 13779 -8974
48697 316109 279811 -1757 13772 -8948
48677 316109 279810 -1748 13762 -8965
48661 316111 279816 -1698 13733 -8970
48646 316098 279812 -1696 13738 -8983
48631 316133 279827 -1753 13750 -8980
48611 316073 279779 -1758 13758 -8967
48597 316066 279778 -1717 13778 -8952
48583 316083 279776 -1696 13748 -8952
48566 316063 279764 -1716 13712 -8952
48549 316051 279760 -1745 13720 -8934
48527 316034 279737 -1746 13752 -8925
48508 315998 279712 -1731 13792 -8934
48490 315984 279704 -1728 13827 -8953
48477 315992 279702 -1730 13829 -8940
48460 315990 279695 -1759 13812 -8937
48449 315989 279704 -1770 13800 -8934
48438 315985 279691 -1710 13799 -8917
48430 315995 279689 -1776 13749 -8955
48430 316020 279709 -1764 13730 -8967
48423 316039 279721 -1737 13760 -8968
48421 316050 279718 -1721 13775 -8951
48417 316048 279697 -1726 13781 -8942
48416 316038 279709 -1732 13786 -8957
48420 316080 279726 -1739 13782 -8968
48425 316122 279749 -1742 13797 -8971
48424 316143 279755 -1740 13808 -8964
48421 316127 279740 -1731 13746 -8983
48362 315948 279583 -1738 13715 -9015
48325 315899 279546 -1758 13761 -9011
48293 315893 279541 -1760 13735 -8997
48263 315894 279541 -1754 13717 -8970
48237 315901 279549 -1763 13733 -8943
48215 315916 279560 -1776 13745 -8956
48193 315927 279564 -1745 13762 -8992
48172 315931 279577 -1712 13757 -9020
48154 315945 279581 -1745 13739 -9046
48131 315920 279557 -1765 13702 -9052
48115 315911 279547 -1743 13675 -9033
48098 315911 279539 -1741 13661 -9008
48092 315933 279575 -1757 13635 -9007
48081 315953 279590 -1770 13618 -9004
48061 315919 279574 -1773 13650 -8997
48041 315900 279557 -1766 13709 -9000
48022 315879 279536 -1751 13736 -9022
48002 315874 279531 -1747 13742 -9017
47994 315905 279574 -1788 13748 -9015
47990 315957 279605 -1747 13685 -8975
47973 315931 279575 -1740 13686 -9015
47965 315943 279586 -1791 13670 -9051
47956 315939 279581 -1798 13676 -9049
47952 315941 279590 -1771 13687 -9025
47953 315960 279570 -1760 13678 -9013
47946 315948 279568 -1770 13674 -8998
47940 315944 279553 -1776 13673 -8993
47948 315991 279583 -1778 13701 -9012
47953 316017 279609 -1781 13693 -9006
47954 316011 279605 -1765 13684 -9021
47959 316002 279593 -1765 13685 -9037
47955 315988 279577 -1768 13683 -9040
47956 315981 279559 -1763 13674 -9027
47960 315988 279569 -1756 13689 -9010
47970 316004 279597 -1762 13701 -9014
47972 316015 279594 -1771 13701 -9038
47976 316004 279570 -1770 13702 -9044
47980 316002 279565 -1764 13639 -9026
47984 315976 279562 -1769 13665 -9018
47970 315894 279498 -1777 13711 -9016
47952 315840 279484 -1758 13710 -9020
47920 315796 279461 -1742 13676 -9022
47888 315767 279436 -1759 13669 -8989
47865 315782 279468 -1771 13696 -8948
47844 315814 279505 -1781 13723 -8977
47821 315826 279515 -1752 13721 -9019
47803 315845 279521 -1727 13696 -9053
47789 315861 279541 -1769 13698 -9069
47778 315879 279553 -1779 13704 -9044
47763 315868 279550 -1756 13676 -9019
47752 315901 279572 -1751 13656 -9022
47741 315873 279543 -1766 13642 -9040
47733 315874 279548 -1777 13652 -9044
47719 315846 279533 -1774 13674 -9047
47710 315851 279539 -1766 13686 -9046
47696 315841 279540 -1757 13704 -9026
47689 315850 279536 -1786 13718 -9005
47676 315824 279527 -1859 13719 -8999
47669 315816 279529 -1843 13705 -8997
47661 315815 279529 -1769 13718 -8991
47654 315817 279545 -1782 13712 -8983
47647 315811 279534 -1818 13672 -8987
47644 315790 279524 -1799 13667 -8996
47640 315789 279529 -1766 13687 -8999
47646 315785 279534 -1761 13706 -9006
47648 315804 279550 -1771 13715 -9002
47654 315816 279564 -1775 13716 -8987
47654 315800 279547 -1767 13709 -8991
47661 315803 279543 -1761 13711 -8994
47671 315820 279558 -1768 13713 -8982
47683 315841 279563 -1783 13703 -8986
47689 315840 279576 -1777 13685 -9004
47699 315855 279563 -1762 13674 -9005
47707 315848 279567 -1763 13682 -8988
47718 315873 279585 -1764 13695 -8977
47730 315882 279595 -1763 13720 -8972
47738 315849 279566 -1770 13738 -8979
47739 315807 279518 -1766 13688 -9015
47750 315792 279511 -1768 13703 -9007
47740 315672 279431 -1784 13725 -9007
47721 315581 279384 -1793 13749 -9019
47694 315531 279355 -1775 13748 -9018
47667 315502 279341 -1761 13749 -8986
47636 315496 279339 -1770 13754 -8957
47611 315511 279363 -1790 13746 -8978
47587 315521 279367 -1756 13738 -9017
47566 315547 279380 -1696 13725 -9041
47549 315562 279390 -1738 13701 -9046
47533 315580 279403 -1784 13684 -9022
47519 315588 279417 -1755 13681 -9005
47502 315573 279401 -1742 13686 -8993
47498 315622 279439 -1761 13665 -8996
47481 315574 279396 -1769 13648 -8994
47474 315577 279388 -1764 13662 -8984
47465 315593 279401 -1760 13694 -8985
47457 315568 279395 -1746 13742 -8995
47451 315575 279406 -1758 13735 -9003
47442 315587 279412 -1810 13754 -8995
47434 315595 279425 -1738 13766 -8950
47425 315595 279423 -1722 13766 -8959
47420 315584 279422 -1781 13731 -8986
47417 315617 279444 -1790 13696 -9010
47427 315698 279520 -1764 13707 -9007
47436 315773 279564 -1749 13716 -8993
47458 315899 279652 -1751 13708 -8993
47471 315968 279712 -1758 13704 -8997
47487 316066 279765 -1756 13702 -9013
47505 316149 279838 -1753 13718 -9032
47513 316160 279835 -1760 13759 -9024
47527 316183 279847 -1760 13768 -9026
47522 316105 279796 -1759 13758 -9009
47518 315991 279694 -1757 13736 -8951
47519 315920 279651 -1752 13726 -8953
47515 315841 279593 -1748 13741 -8952
47522 315786 279561 -1751 13747 -8949
47530 315766 279537 -1745 13738 -8943
47541 315768 279533 -1742 13724 -8916
47561 315817 279586 -1742 13736 -8972
47585 315866 279611 -1740 13754 -9017
47596 315863 279601 -1741 13763 -8997
47602 315849 279581 -1736 13754 -9004
47608 315797 279543 -1741 13748 -9022
47603 315702 279476 -1756 13761 -9010
47583 315606 279415 -1761 13726 -8998
47554 315548 279372 -1760 13684 -9010
47530 315522 279370 -1773 13686 -8981
47507 315519 279373 -1796 13659 -8987
47487 315534 279378 -1696 13672 -9017
47468 315550 279389 -1688 13701 -9043
47447 315566 279382 -1766 13743 -9029
47432 315589 279399 -1768 13725 -9020
47425 315622 279421 -1715 13706 -9017
47417 315642 279434 -1710 13687 -9010
47407 315634 279428 -1745 13665 -9006
47405 315674 279451 -1754 13665 -9004
47396 315647 279424 -1721 13668 -9012
47398 315676 279435 -1689 13672 -9048
47395 315673 279439 -1691 13704 -9057
47392 315667 279440 -1708 13721 -9018
47387 315659 279427 -1749 13715 -9018
47438 315834 279558 -1748 13704 -9035
47451 315864 279577 -1754 13699 -9037
47477 315913 279629 -1760 13693 -9033
47491 315936 279626 -1759 13672 -9042
47503 315927 279610 -1751 13642 -9053
47514 315910 279592 -1756 13619 -9053
47529 315930 279597 -1763 13622 -9063
47549 315945 279609 -1768 13632 -9080
47567 315961 279633 -1773 13645 -9074
47582 315973 279619 -1772 13669 -9062
47602 315983 279631 -1771 13669 -9064
47621 316001 279639 -1778 13653 -9074
47643 316018 279646 -1773 13644 -9078
47656 315984 279614 -1771 13654 -9067
47673 315976 279586 -1784 13683 -9053
47673 315888 279539 -1760 13678 -9047
47668 315820 279498 -1739 13619 -9065
47650 315766 279460 -1764 13613 -9042
47624 315682 279402 -1784 13647 -9020
47601 315649 279381 -1793 13667 -9051
47572 315880 279556 -1763 13696 -9151
47572 315860 279549 -1767 13693 -9120
47567 315860 279539 -1788 13685 -9089
47568 315853 279545 -1751 13671 -9075
47567 315847 279552 -1717 13635 -9075
47568 315851 279555 -1837 13577 -9133
47572 315866 279559 -1802 13575 -9110
47572 315856 279563 -1768 13608 -9089
47577 315867 279588 -1765 13626 -9090
47585 315884 279598 -1771 13605 -9099
47598 315909 279605 -1782 13609 -9110
47610 315936 279628 -1780 13617 -9104
47616 315923 279622 -1762 13640 -9087
47624 315925 279618 -1757 13660 -9084
47640 315957 279629 -1776 13615 -9078
47655 315966 279649 -1764 13638 -9068
47672 316000 279662 -1762 13664 -9061
47686 315997 279663 -1763 13689 -9057
47702 316018 279673 -1767 13692 -9066
47720 316036 279690 -1772 13678 -9084
47745 316085 279736 -1772 13648 -9100
47768 316121 279755 -1771 13635 -9106
47783 316121 279759 -1784 13645 -9100
47800 316116 279744 -1753 13663 -9100
47818 316115 279757 -1744 13636 -9089
47816 316017 279692 -1768 13649 -9060
47810 315960 279664 -1787 13642 -9073
47797 315924 279658 -1769 13645 -9107
47776 315862 279616 -1701 13664 -9108
47753 315825 279594 -1709 13667 -9113
47736 315816 279606 -1760 13664 -9101
47724 315845 279620 -1735 13633 -9079
47717 315874 279649 -1718 13620 -9061
47708 315878 279641 -1755 13616 -9052
47698 315870 279652 -1788 13625 -9045
47698 315884 279655 -1784 13641 -9048
47702 315914 279664 -1768 13668 -9050
47705 315922 279678 -1752 13702 -9051
47705 315886 279647 -1744 13712 -9040
47703 315864 279633 -1774 13698 -9049
47704 315879 279658 -1801 13706 -9028
47709 315887 279661 -1736 13718 -8990
47707 315871 279653 -1722 13695 -9003
47706 315871 279663 -1796 13665 -9021
47707 315873 279673 -1814 13641 -9027
47707 315881 279677 -1778 13646 -9017
47712 315893 279687 -1754 13650 -9018
47714 315909 279691 -1757 13652 -9024
47724 315949 279725 -1771 13666 -9033
47732 315955 279722 -1786 13682 -9045
47741 315980 279749 -1783 13692 -9046
47754 316009 279769 -1767 13700 -9036
47764 316004 279761 -1762 13703 -9039
47773 316008 279762 -1795 13679 -9055
47788 316012 279767 -1812 13666 -9068
47802 316038 279777 -1785 13661 -9068
47819 316068 279798 -1761 13657 -9070
47836 316093 279827 -1763 13657 -9070
47855 316125 279844 -1779 13648 -9057
47873 316143 279857 -1777 13659 -9062
47887 316153 279852 -1768 13685 -9078
47907 316171 279879 -1760 13690 -9085
47920 316157 279862 -1756 13688 -9081
47934 316154 279859 -1770 13661 -9052
47955 316160 279852 -1760 13661 -9037
47955 316089 279797 -1759 13689 -9002
47942 315960 279714 -1780 13712 -8981
47925 315911 279703 -1782 13724 -8993
47902 315870 279677 -1714 13723 -9011
47876 315834 279663 -1700 13725 -9040
47852 315812 279652 -1757 13714 -9050
47826 315798 279638 -1760 13696 -9061
47807 315809 279641 -1688 13651 -9051
47787 315802 279641 -1728 13624 -9046
47770 315788 279635 -1754 13611 -9040
47755 315777 279615 -1756 13637 -9051
47743 315786 279612 -1745 13695 -9066
47730 315770 279602 -1732 13725 -9079
47727 315789 279598 -1731 13695 -9064
47722 315783 279590 -1763 13684 -9055
