2025-10-16 03:02:16    绿光---红外光---红光---X轴---Y轴---Z轴
48347 320460 281673 -1768 13275 -9530
48369 320482 281701 -1778 13277 -9525
48383 320500 281709 -1768 13276 -9528
48400 320505 281708 -1753 13286 -9519
48416 320519 281721 -1745 13274 -9523
48440 320541 281734 -1754 13258 -9529
48457 320548 281753 -1765 13243 -9528
48477 320550 281740 -1759 13217 -9552
48491 320516 281718 -1775 13221 -9582
48491 320418 281641 -1796 13230 -9598
48481 320332 281596 -1786 13210 -9584
48468 320295 281595 -1770 13203 -9552
48449 320282 281594 -1768 13227 -9530
48435 320298 281630 -1778 13240 -9580
48428 320324 281657 -1754 13250 -9616
48414 320343 281658 -1768 13304 -9575
48398 320326 281643 -1760 13275 -9554
48390 320326 281651 -1715 13241 -9546
48395 320380 281687 -1710 13198 -9559
48392 320398 281709 -1750 13162 -9586
48404 320462 281763 -1786 13159 -9577
48399 320435 281730 -1778 13197 -9573
48402 320420 281731 -1752 13242 -9614
48404 320427 281733 -1736 13260 -9606
48411 320453 281742 -1836 13302 -9604
48414 320446 281758 -1758 13286 -9572
48416 320448 281766 -1721 13257 -9582
48413 320434 281765 -1771 13257 -9565
48418 320419 281765 -1799 13236 -9572
48416 320408 281762 -1782 13217 -9576
48420 320393 281764 -1749 13204 -9568
48430 320383 281771 -1746 13204 -9564
48440 320380 281776 -1751 13237 -9558
48450 320367 281778 -1753 13256 -9548
48463 320361 281784 -1746 13278 -9536
48478 320364 281790 -1741 13289 -9521
48494 320371 281791 -1754 13266 -9511
48510 320360 281780 -1765 13249 -9537
48526 320353 281768 -1767 13225 -9585
48545 320389 281772 -1749 13217 -9581
48566 320395 281775 -1735 13227 -9565
48590 320443 281812 -1740 13220 -9573
48610 320456 281816 -1748 13225 -9577
48626 320465 281801 -1772 13253 -9577
48648 320486 281803 -1779 13304 -9586
48649 320392 281730 -1764 13291 -9602
48640 320331 281696 -1764 13231 -9578
48628 320314 281705 -1777 13203 -9575
48610 320293 281692 -1779 13190 -9593
48594 320289 281690 -1723 13189 -9590
48578 320311 281710 -1701 13210 -9598
48566 320319 281725 -1745 13218 -9616
48553 320334 281731 -1743 13198 -9623
48541 320347 281747 -1703 13192 -9595
48540 320380 281774 -1696 13213 -9545
48540 320411 281808 -1731 13214 -9529
48555 320501 281868 -1767 13188 -9546
48560 320520 281871 -1773 13207 -9554
48564 320538 281892 -1748 13229 -9573
48565 320531 281885 -1723 13235 -9565
48563 320524 281880 -1761 13239 -9592
48558 320515 281881 -1781 13221 -9604
48559 320533 281894 -1710 13217 -9584
48560 320538 281902 -1705 13236 -9579
48560 320543 281909 -1782 13264 -9548
48565 320575 281942 -1801 13279 -9542
48569 320605 281951 -1756 13275 -9565
48578 320638 281983 -1731 13252 -9579
48590 320686 282021 -1745 13222 -9576
48605 320736 282051 -1756 13225 -9579
48618 320776 282075 -1750 13257 -9582
48638 320818 282113 -1741 13266 -9576
48654 320871 282153 -1746 13242 -9587
48671 320884 282155 -1754 13227 -9615
48686 320928 282184 -1740 13240 -9562
48699 320947 282190 -1749 13221 -9575
48718 320951 282196 -1752 13196 -9589
48740 321009 282243 -1747 13180 -9606
48758 321024 282253 -1751 13178 -9607
48768 320996 282221 -1768 13193 -9615
48779 320981 282208 -1772 13207 -9643
48778 320890 282145 -1772 13208 -9630
48765 320803 282081 -1779 13224 -9557
48752 320762 282070 -1797 13270 -9538
48731 320725 282055 -1795 13291 -9559
48709 320714 282040 -1743 13252 -9570
48695 320721 282050 -1732 13230 -9602
48680 320712 282037 -1775 13236 -9602
48670 320715 282041 -1770 13210 -9584
48664 320733 282051 -1745 13189 -9574
48666 320762 282072 -1755 13188 -9559
48670 320792 282079 -1782 13161 -9555
48672 320840 282113 -1801 13166 -9571
48673 320822 282099 -1786 13220 -9577
48671 320794 282065 -1737 13276 -9577
48670 320793 282041 -1737 13280 -9595
48673 320801 282040 -1786 13268 -9581
48669 320787 282016 -1770 13243 -9568
48671 320784 282009 -1717 13223 -9579
48666 320764 282006 -1743 13243 -9585
48665 320750 282004 -1798 13231 -9602
48666 320737 282010 -1794 13218 -9597
48667 320712 282006 -1766 13216 -9572
48677 320730 282049 -1756 13212 -9554
48682 320743 282075 -1753 13239 -9545
48698 320758 282100 -1755 13264 -9539
48711 320791 282146 -1769 13254 -9546
48729 320810 282173 -1760 13246 -9566
48741 320830 282183 -1745 13248 -9591
48754 320838 282211 -1751 13235 -9609
48777 320891 282253 -1756 13212 -9611
48807 320936 282287 -1757 13187 -9593
48819 320922 282287 -1753 13176 -9574
48829 320918 282278 -1748 13219 -9572
48851 320922 282288 -1728 13261 -9563
48870 320966 282332 -1722 13252 -9574
48896 321002 282363 -1736 13224 -9587
48911 320979 282355 -1738 13234 -9586
48916 320939 282315 -1742 13260 -9589
48929 320901 282295 -1745 13274 -9596
48923 320797 282240 -1748 13248 -9579
48908 320714 282196 -1750 13206 -9539
48893 320661 282180 -1761 13196 -9521
48867 320617 282159 -1772 13224 -9523
48846 320591 282146 -1669 13287 -9557
48830 320585 282167 -1738 13267 -9568
48814 320585 282159 -1771 13251 -9556
48799 320556 282122 -1753 13255 -9534
48791 320565 282138 -1744 13226 -9539
48791 320591 282160 -1759 13201 -9528
48790 320602 282157 -1781 13209 -9519
48797 320637 282183 -1788 13224 -9552
48788 320584 282120 -1779 13238 -9595
48783 320559 282104 -1787 13262 -9602
48782 320557 282097 -1819 13247 -9611
48784 320557 282099 -1761 13230 -9589
48785 320550 282096 -1745 13223 -9604
48786 320558 282111 -1786 13212 -9605
48791 320548 282120 -1800 13172 -9605
48794 320564 282145 -1787 13158 -9614
48799 320582 282154 -1765 13154 -9616
48805 320600 282180 -1764 13145 -9622
48816 320632 282205 -1777 13172 -9624
48828 320670 282230 -1797 13209 -9615
48841 320700 282249 -1801 13204 -9629
48852 320710 282259 -1777 13199 -9637
48860 320724 282253 -1769 13199 -9640
48873 320732 282261 -1776 13192 -9624
48885 320723 282252 -1769 13180 -9617
48893 320709 282236 -1760 13182 -9639
48901 320706 282232 -1762 13181 -9645
48922 320738 282255 -1767 13163 -9643
48939 320732 282264 -1764 13189 -9630
48952 320739 282258 -1754 13231 -9633
48966 320721 282243 -1758 13219 -9653
48984 320747 282273 -1762 13180 -9651
49015 320801 282313 -1765 13168 -9624
49034 320826 282328 -1781 13183 -9617
49044 320800 282302 -1780 13199 -9649
49053 320764 282250 -1760 13194 -9649
49045 320643 282172 -1762 13186 -9600
49033 320566 282129 -1773 13181 -9577
49016 320504 282106 -1772 13201 -9596
48993 320452 282082 -1684 13238 -9597
48969 320440 282063 -1648 13247 -9613
48945 320402 282041 -1735 13230 -9637
48930 320395 282034 -1772 13203 -9638
48917 320404 282044 -1754 13178 -9631
48909 320421 282048 -1749 13161 -9616
48909 320443 282056 -1773 13154 -9619
48908 320466 282069 -1791 13140 -9636
48907 320502 282088 -1796 13152 -9643
48907 320475 282063 -1769 13180 -9662
48900 320464 282046 -1759 13247 -9645
48900 320478 282035 -1802 13210 -9651
48902 320486 282048 -1740 13180 -9620
48900 320488 282050 -1728 13170 -9649
48900 320512 282072 -1785 13165 -9644
48900 320537 282075 -1793 13159 -9641
48905 320568 282094 -1768 13163 -9651
48919 320624 282149 -1751 13165 -9649
48929 320692 282188 -1757 13166 -9646
48939 320739 282221 -1762 13203 -9640
48945 320772 282232 -1751 13237 -9632
48951 320795 282245 -1753 13229 -9637
48966 320843 282266 -1764 13206 -9625
48974 320845 282269 -1761 13168 -9597
48993 320916 282313 -1762 13164 -9578
49009 320939 282330 -1763 13177 -9569
49021 320969 282346 -1762 13157 -9593
49028 320968 282336 -1758 13153 -9633
49043 321012 282358 -1746 13165 -9668
49054 321031 282366 -1743 13202 -9665
49069 321049 282384 -1755 13218 -9638
49088 321073 282398 -1768 13199 -9649
49103 321118 282416 -1764 13185 -9668
49119 321123 282417 -1764 13175 -9684
49128 321086 282396 -1777 13185 -9695
49128 321017 282335 -1771 13182 -9688
49134 320946 282286 -1763 13148 -9682
49121 320789 282168 -1772 13141 -9648
49100 320649 282087 -1781 13154 -9649
49079 320539 282028 -1780 13161 -9670
49049 320437 281947 -1714 13172 -9656
49019 320363 281893 -1695 13185 -9690
48993 320302 281852 -1755 13169 -9735
48980 320286 281823 -1755 13128 -9738
48968 320296 281819 -1732 13100 -9713
48967 320332 281844 -1739 13093 -9693
48969 320374 281855 -1768 13100 -9695
48965 320369 281843 -1789 13113 -9691
48960 320382 281831 -1776 13124 -9695
48956 320379 281798 -1749 13148 -9696
48945 320307 281755 -1742 13180 -9648
48942 320313 281746 -1776 13176 -9657
48935 320294 281730 -1784 13158 -9685
48928 320247 281703 -1719 13143 -9688
48923 320249 281696 -1719 13126 -9711
48922 320256 281709 -1777 13106 -9728
48924 320267 281741 -1777 13096 -9736
48927 320311 281750 -1752 13099 -9729
48924 320285 281735 -1737 13098 -9735
48925 320297 281741 -1745 13090 -9753
48932 320302 281747 -1758 13152 -9744
48939 320315 281746 -1755 13115 -9748
48944 320298 281736 -1750 13087 -9771
48948 320294 281729 -1753 13072 -9800
48946 320276 281691 -1761 13057 -9806
48962 320269 281696 -1768 13044 -9804
48976 320301 281712 -1761 13040 -9805
48992 320328 281722 -1747 13040 -9802
49008 320357 281739 -1744 13045 -9809
49024 320369 281754 -1771 13095 -9806
49045 320404 281781 -1781 13093 -9826
49062 320438 281804 -1774 13087 -9836
49075 320428 281806 -1747 13064 -9823
49087 320428 281789 -1747 13052 -9800
49096 320400 281770 -1771 13058 -9753
49098 320323 281709 -1776 13045 -9769
49083 320217 281659 -1782 13051 -9810
49072 320209 281650 -1751 13061 -9830
49050 320147 281625 -1756 13085 -9852
49027 320107 281597 -1806 13108 -9846
49006 320095 281600 -1779 13062 -9848
48988 320082 281592 -1736 13021 -9828
48967 320030 281546 -1741 12995 -9807
48948 319948 281490 -1767 12970 -9814
48922 319868 281408 -1782 12967 -9831
48895 319733 281297 -1772 12974 -9858
48875 319659 281214 -1747 12968 -9860
48865 319618 281166 -1733 12959 -9833
48848 319504 281073 -1784 13024 -9866
48820 319362 280937 -1818 13087 -9902
48795 319262 280834 -1766 13021 -9888
48780 319194 280772 -1756 12943 -9907
48764 319116 280683 -1796 12961 -9916
48745 319039 280604 -1791 13003 -9942
48745 319039 280587 -1747 13011 -9975
48755 319090 280609 -1730 12997 -9965
48763 319126 280630 -1745 12986 -9991
48895 319906 280001 -1718 12943 -9979
48512 318852 278199 -1630 12684 -10004
47859 316738 275712 -1733 12058 -9412
46766 313549 271636 -1895 12668 -9690
45725 308705 267989 -1422 13347 -9707
45567 303490 267482 -764 14071 -9682
45834 297141 266719 -916 13890 -10076
46152 293462 266252 -1686 13191 -10198
46477 293950 266806 -1874 12507 -10492
46666 294187 267219 -1771 11689 -10654
46794 293659 267618 -1862 12045 -10553
47122 295125 268774 -1822 12781 -10636
47259 298994 269387 -1717 13005 -10707
47146 302729 269244 -1708 13198 -10702
47089 307079 269112 -1566 13164 -10916
47372 310591 270023 -1307 12940 -11126
47921 311981 271959 -1305 12889 -11273
48379 312585 273679 -1549 12779 -11337
48675 313628 275086 -1763 12536 -11135
48869 314442 276117 -1831 12267 -10802
48994 314967 276795 -1794 12128 -10563
49065 315297 277215 -1734 12167 -10430
49127 315607 277599 -1696 12294 -10386
49174 315832 277876 -1666 12406 -10386
49212 316037 278120 -1597 12488 -10373
49238 316245 278336 -1570 12543 -10375
49261 316443 278546 -1592 12626 -10339
49275 316578 278700 -1617 12678 -10274
49288 316684 278834 -1630 12665 -10244
49289 316770 278947 -1634 12663 -10224
49281 316807 279009 -1640 12693 -10204
49272 316860 279068 -1650 12856 -10171
49266 316904 279147 -1683 12849 -10161
49259 316927 279178 -1693 12831 -10119
49244 316913 279165 -1663 12887 -10050
49229 316895 279171 -1610 12941 -10027
49227 316920 279214 -1602 12926 -10033
49229 316945 279257 -1623 12904 -10030
49232 316981 279304 -1629 12888 -10029
49236 317024 279357 -1633 12870 -10016
49246 317092 279436 -1621 12902 -9996
49268 317195 279558 -1620 12929 -10022
49304 317327 279718 -1639 12921 -10070
49340 317458 279884 -1664 12939 -10075
49372 317553 280008 -1684 12933 -10055
49389 317590 280101 -1685 12860 -10027
49404 317644 280189 -1706 12804 -10032
49399 317626 280223 -1677 12808 -10055
49372 317570 280232 -1620 12889 -10057
49339 317584 280275 -1646 12970 -10070
49309 317595 280333 -1668 12949 -10080
49262 317593 280356 -1637 12922 -10058
49225 317639 280415 -1627 12928 -10029
49190 317697 280476 -1656 12913 -10016
49155 317731 280533 -1682 12911 -9987
49133 317794 280597 -1700 12926 -9971
49112 317874 280692 -1699 12932 -9989
49089 317920 280752 -1679 12950 -9962
49062 317935 280775 -1693 12947 -9942
49046 318004 280837 -1731 12954 -9949
49022 318009 280857 -1704 12994 -9939
49002 318036 280904 -1659 13030 -9914
48985 318087 280971 -1687 13042 -9876
48971 318177 281074 -1732 13033 -9869
48951 318225 281140 -1742 13022 -9868
48928 318285 281210 -1735 13021 -9869
48903 318312 281236 -1735 13008 -9859
48872 318298 281229 -1739 12999 -9837
48834 318277 281222 -1748 13032 -9821
48802 318284 281217 -1761 13035 -9820
48771 318285 281216 -1758 13024 -9835
48744 318276 281210 -1738 13048 -9804
48714 318268 281193 -1756 13025 -9820
48685 318255 281168 -1761 13027 -9823
48658 318250 281149 -1753 13022 -9840
48637 318239 281126 -1743 13035 -9862
48618 318222 281118 -1740 13033 -9857
48608 318234 281117 -1740 13001 -9878
48597 318247 281112 -1753 12986 -9908
48585 318230 281103 -1774 12988 -9912
48574 318241 281104 -1758 13024 -9835
48564 318234 281097 -1738 13048 -9804
48545 318188 281078 -1756 13025 -9820
48526 318144 281012 -1761 13027 -9823
48504 318094 280956 -1753 13022 -9840
48468 317975 280871 -1743 13035 -9862
48413 317857 280799 -1740 13033 -9857
48346 317770 280741 -1740 13001 -9878
48286 317731 280722 -1753 12986 -9908
48231 317720 280726 -1774 12988 -9912
48165 317702 280726 -1725 13036 -9863
48102 317658 280691 -1739 13038 -9835
48047 317670 280697 -1764 13005 -9863
48009 317700 280724 -1753 12998 -9909
47963 317690 280720 -1711 13013 -9918
47913 317662 280692 -1711 12994 -9935
47871 317652 280676 -1736 12977 -9934
47842 317648 280680 -1733 12989 -9914
47808 317629 280665 -1721 12992 -9916
47766 317605 280648 -1726 12991 -9908
47727 317590 280644 -1737 12976 -9871
47688 317557 280626 -1756 12972 -9871
47647 317543 280614 -1770 13001 -9907
47613 317531 280613 -1754 13018 -9916
47576 317536 280612 -1736 13000 -9887
47544 317534 280614 -1762 12984 -9890
47516 317537 280631 -1781 12990 -9886
47488 317554 280652 -1733 12982 -9882
47461 317526 280642 -1732 12985 -9905
47430 317504 280631 -1824 13015 -9887
47406 317466 280603 -1774 13010 -9880
47383 317452 280592 -1743 13002 -9898
47360 317440 280577 -1751 12983 -9911
47345 317454 280589 -1763 12978 -9908
47335 317483 280603 -1758 12968 -9918
47324 317501 280610 -1725 12961 -9945
47318 317536 280659 -1740 12971 -9961
47309 317554 280669 -1793 12964 -9960
47303 317549 280672 -1782 12939 -9966
47287 317535 280653 -1729 12956 -9954
47273 317526 280652 -1706 12960 -9956
47237 317464 280614 -1706 12940 -9980
47193 317417 280619 -1710 12937 -9988
47140 317417 280644 -1725 12946 -10005
47078 317402 280678 -1731 12956 -10010
47010 317405 280687 -1725 12933 -9987
46946 317389 280699 -1729 12933 -9962
46885 317368 280699 -1736 12948 -9938
46825 317338 280668 -1746 12953 -9938
46768 317297 280637 -1697 12981 -9929
46724 317283 280657 -1647 13004 -9943
46680 317251 280621 -1695 13016 -9977
46644 317243 280618 -1715 13001 -9974
46597 317150 280555 -1678 12956 -9967
46559 317097 280518 -1670 12942 -9950
46519 317068 280514 -1700 12935 -9947
46481 317036 280492 -1732 12907 -9951
46438 317000 280481 -1743 12935 -9939
46402 316972 280474 -1730 12983 -9933
46365 316966 280476 -1721 13014 -9897
46332 316933 280461 -1760 13013 -9901
46301 316915 280465 -1710 13010 -9897
46274 316902 280463 -1694 13012 -9925
46250 316906 280472 -1741 13017 -9915
46233 316906 280489 -1760 13001 -9902
46219 316917 280493 -1751 12996 -9886
46200 316902 280501 -1730 12997 -9893
46191 316912 280494 -1725 13003 -9895
46183 316920 280512 -1749 13052 -9852
46172 316894 280510 -1740 13059 -9851
46167 316902 280509 -1741 13035 -9854
46165 316882 280503 -1748 13008 -9868
46157 316883 280509 -1737 13000 -9878
46162 316894 280530 -1710 12998 -9879
46166 316885 280536 -1700 12996 -9893
46162 316865 280528 -1711 12996 -9898
46156 316835 280495 -1728 13011 -9884
46132 316721 280436 -1713 13017 -9889
46080 316591 280368 -1715 13016 -9895
46017 316506 280335 -1733 13030 -9904
45946 316433 280305 -1728 13008 -9899
45877 316387 280283 -1721 12995 -9872
45812 316359 280294 -1717 13005 -9868
45754 316324 280272 -1736 13017 -9893
45705 316299 280265 -1717 13026 -9901
45663 316282 280272 -1686 13020 -9910
45623 316270 280274 -1722 13031 -9930
45589 316235 280272 -1736 13044 -9907
45571 316248 280297 -1676 13042 -9864
45549 316236 280292 -1648 13027 -9843
45526 316183 280251 -1687 13006 -9840
45503 316151 280245 -1725 12990 -9853
45479 316130 280232 -1746 12989 -9869
45453 316102 280216 -1720 12989 -9885
45434 316089 280238 -1662 13028 -9846
45412 316073 280237 -1684 13072 -9833
45394 316062 280234 -1738 13094 -9847
45377 316047 280242 -1674 13097 -9850
45365 316045 280249 -1646 13077 -9876
45354 316047 280255 -1719 13048 -9865
45348 316052 280265 -1760 13023 -9864
45352 316083 280282 -1752 13029 -9877
45358 316099 280305 -1712 13028 -9881
45363 316110 280320 -1683 13018 -9876
45373 316108 280325 -1683 13028 -9878
45384 316124 280338 -1684 13037 -9869
45396 316133 280358 -1683 13032 -9868
45410 316142 280375 -1693 13031 -9868
45420 316156 280370 -1671 13085 -9835
45431 316147 280368 -1704 13050 -9870
45453 316189 280414 -1711 13008 -9895
45477 316215 280429 -1708 13006 -9895
45496 316229 280442 -1706 13026 -9891
45510 316204 280420 -1702 13018 -9903
45509 316120 280379 -1714 13009 -9903
45484 316008 280311 -1736 13036 -9888
45443 315934 280291 -1739 13051 -9896
45390 315861 280262 -1710 13054 -9855
45331 315814 280244 -1697 13074 -9793
45281 315800 280247 -1720 13072 -9782
45238 315776 280241 -1735 13068 -9811
45207 315766 280234 -1693 13064 -9856
45181 315747 280230 -1666 13060 -9881
45161 315726 280222 -1710 13066 -9886
45141 315691 280203 -1724 13053 -9871
45119 315637 280164 -1689 13042 -9857
45110 315609 280146 -1676 13025 -9836
45103 315552 280114 -1730 13038 -9771
45099 315548 280112 -1734 13054 -9765
45091 315530 280106 -1705 13081 -9804
45085 315506 280094 -1654 13102 -9796
45078 315498 280084 -1656 13077 -9805
45075 315487 280088 -1709 13095 -9793
45071 315493 280086 -1686 13092 -9774
45071 315500 280100 -1671 13081 -9827
45077 315520 280108 -1722 13089 -9849
45086 315550 280136 -1733 13080 -9852
45093 315576 280154 -1673 13108 -9840
45110 315602 280175 -1635 13107 -9840
45127 315627 280190 -1656 13085 -9846
45145 315658 280202 -1673 13068 -9851
45163 315684 280217 -1681 13064 -9840
45187 315714 280235 -1680 13062 -9828
45214 315747 280250 -1684 13038 -9836
45247 315787 280290 -1691 13040 -9851
45273 315816 280310 -1687 13042 -9847
45299 315826 280327 -1680 13023 -9843
45327 315835 280323 -1653 13037 -9860
45356 315883 280338 -1634 13043 -9878
45393 315938 280391 -1641 13022 -9889
45429 315957 280397 -1654 13024 -9896
45454 315960 280388 -1675 13044 -9895
45487 315970 280378 -1684 13056 -9888
45489 315860 280309 -1689 13062 -9884
45465 315753 280241 -1706 13065 -9892
45439 315690 280222 -1709 13058 -9887
45399 315637 280202 -1707 13054 -9868
45361 315606 280182 -1691 13071 -9831
45325 315597 280186 -1686 13074 -9881
45296 315579 280166 -1645 13049 -9885
45276 315580 280163 -1647 13028 -9905
45263 315578 280160 -1704 13031 -9899
45252 315578 280159 -1702 13009 -9877
45248 315573 280161 -1678 12984 -9860
45252 315608 280176 -1683 12976 -9854
45264 315633 280193 -1705 12986 -9869
45278 315664 280206 -1679 13049 -9851
45286 315663 280205 -1654 13087 -9870
45291 315676 280218 -1659 13076 -9870
45293 315676 280227 -1707 13044 -9859
45307 315737 280280 -1714 13010 -9865
45325 315809 280356 -1665 13006 -9871
45355 315917 280459 -1679 13027 -9872
45394 316084 280612 -1729 13019 -9867
45454 316328 280811 -1737 13010 -9864
45480 316522 280902 -1634 13034 -9900
45470 316586 280695 -1656 13024 -9951
45163 314945 278602 -1694 13039 -9990
44439 312406 275447 -1712 13045 -9939
43651 309946 272119 -1708 12992 -9875
42864 306224 268404 -1638 12354 -9711
42459 303618 267942 -1555 11317 -9030
42771 299070 268272 -1679 11807 -9014
43176 293851 267785 -1798 13455 -9636
43498 291360 267495 -1320 14346 -9681
43717 290924 267501 -980 14164 -9846
43945 291364 267885 -1289 13746 -10127
44133 293655 268505 -1503 13137 -10396
44020 299373 268580 -1598 12367 -10782
43986 306092 268462 -1801 12369 -10827
44636 309500 270570 -1902 12680 -10755
45300 310749 273058 -1795 12837 -10908
45690 311999 274811 -1641 13208 -11052
45880 312757 275840 -1603 13502 -11070
45986 313241 276520 -1666 13263 -10938
46021 313466 276917 -1714 12779 -10713
46047 313629 277235 -1717 12437 -10501
46065 313824 277544 -1681 12305 -10352
46083 314007 277812 -1679 12288 -10326
46098 314195 278069 -1718 12350 -10351
46108 314333 278247 -1732 12377 -10354
46098 314362 278328 -1694 12374 -10339
46090 314392 278397 -1666 12383 -10364
46077 314423 278441 -1673 12393 -10423
46074 314465 278486 -1662 12412 -10459
46067 314437 278490 -1625 12508 -10448
46070 314447 278550 -1600 12667 -10408
46067 314436 278590 -1602 12772 -10313
46051 314400 278605 -1643 12834 -10247
46037 314368 278614 -1687 12898 -10195
46026 314379 278640 -1688 12918 -10142
46015 314381 278659 -1700 12839 -10130
46000 314378 278692 -1730 12786 -10104
45987 314374 278726 -1744 12804 -10066
45982 314380 278753 -1726 12866 -10030
45984 314418 278787 -1628 12973 -9930
45983 314419 278808 -1650 12976 -9923
45986 314424 278836 -1666 12990 -9900
45993 314440 278870 -1656 13031 -9887
46006 314474 278903 -1644 13044 -9868
46025 314502 278959 -1657 13024 -9840
46066 314608 279105 -1682 13024 -9830
46110 314692 279228 -1699 13045 -9826
46144 314756 279329 -1713 13084 -9810
46173 314788 279403 -1655 13187 -9773
46194 314806 279430 -1667 13085 -9794
46213 314844 279476 -1689 13023 -9790
46228 314838 279460 -1705 13028 -9763
46243 314852 279445 -1718 13038 -9752
46244 314799 279403 -1709 13077 -9741
46240 314726 279334 -1703 13113 -9702
46214 314609 279265 -1722 13097 -9675
46177 314522 279215 -1750 13098 -9703
46128 314458 279161 -1591 13133 -9746
46081 314432 279156 -1612 13108 -9794
46040 314442 279167 -1689 13095 -9808
46007 314446 279176 -1706 13079 -9813
45979 314471 279190 -1683 13074 -9833
45950 314465 279185 -1684 13068 -9840
45928 314465 279178 -1714 13054 -9841
45910 314476 279188 -1730 13032 -9854
45897 314481 279175 -1723 13040 -9879
45888 314521 279209 -1687 13073 -9873
45874 314486 279179 -1657 13090 -9810
45871 314509 279195 -1703 13088 -9818
45862 314514 279207 -1735 13078 -9842
45852 314521 279203 -1676 13065 -9831
45847 314537 279232 -1665 13063 -9846
45847 314586 279274 -1712 13046 -9844
45840 314609 279304 -1731 13047 -9833
45834 314617 279309 -1723 13073 -9823
45826 314616 279306 -1714 13063 -9850
45827 314641 279329 -1717 13046 -9865
45833 314682 279359 -1723 13065 -9821
45842 314727 279384 -1732 13091 -9801
45847 314733 279397 -1736 13079 -9824
45853 314748 279399 -1737 13071 -9845
45868 314794 279432 -1733 13054 -9857
45886 314838 279463 -1722 13022 -9855
45904 314876 279483 -1728 13017 -9854
45922 314896 279496 -1739 13029 -9844
45936 314901 279498 -1734 13033 -9849
45949 314897 279493 -1735 13018 -9875
45966 314922 279499 -1724 13017 -9869
45995 314987 279553 -1726 12993 -9874
46025 315045 279601 -1745 13023 -9878
46045 315061 279603 -1743 13057 -9896
46060 315052 279585 -1740 13058 -9872
46071 315037 279561 -1757 13041 -9832
46062 314939 279497 -1768 13017 -9841
46037 314824 279422 -1761 13026 -9856
46005 314769 279408 -1713 13028 -9875
45972 314750 279416 -1753 13071 -9895
45934 314732 279419 -1758 13029 -9876
45900 314726 279415 -1711 13028 -9863
45867 314716 279422 -1681 13044 -9857
45848 314732 279429 -1706 13021 -9847
45827 314724 279428 -1741 12999 -9856
45805 314707 279411 -1769 13009 -9902
45780 314671 279375 -1776 13009 -9932
45760 314644 279331 -1725 13008 -9862
45761 314659 279339 -1753 13063 -9810
45757 314635 279325 -1718 13038 -9794
45752 314632 279335 -1702 13036 -9828
45755 314654 279350 -1756 13040 -9854
45750 314654 279366 -1776 13033 -9868
45750 314652 279368 -1763 13039 -9867
45746 314671 279394 -1746 13030 -9866
45744 314695 279417 -1743 13021 -9854
45742 314709 279433 -1744 13048 -9857
45744 314744 279459 -1721 13088 -9814
45754 314772 279488 -1722 13071 -9822
45766 314794 279507 -1728 13053 -9843
45771 314800 279511 -1728 13040 -9852
45780 314821 279518 -1728 13018 -9856
45787 314821 279513 -1732 13012 -9843
45804 314825 279509 -1741 13007 -9838
45823 314859 279538 -1761 13010 -9838
45836 314875 279551 -1767 13024 -9844
45853 314892 279555 -1771 13045 -9847
45874 314895 279569 -1773 13097 -9819
45888 314893 279562 -1754 13125 -9813
45914 314938 279608 -1755 13079 -9801
45938 314956 279613 -1771 13037 -9764
45956 314948 279600 -1765 13056 -9761
45969 314932 279582 -1759 13085 -9802
45984 314888 279555 -1735 13072 -9831
45974 314779 279498 -1723 13056 -9861
45947 314708 279471 -1754 13072 -9895
45915 314655 279446 -1746 13067 -9887
45876 314627 279433 -1703 13050 -9854
45844 314613 279425 -1696 13019 -9842
45817 314608 279438 -1735 12978 -9858
45793 314603 279434 -1779 12957 -9861
45777 314604 279445 -1796 12964 -9865
45760 314582 279427 -1780 12994 -9886
45756 314590 279441 -1754 13009 -9846
45750 314577 279436 -1784 13013 -9854
45774 314675 279521 -1820 13047 -9872
45778 314647 279512 -1775 13031 -9858
45783 314640 279508 -1784 13037 -9864
45783 314623 279507 -1837 13037 -9838
45774 314594 279479 -1828 13007 -9816
45773 314600 279485 -1797 13031 -9802
45786 314662 279548 -1783 13014 -9826
45797 314702 279594 -1783 12998 -9834
45807 314711 279609 -1787 13019 -9831
45811 314733 279619 -1793 13046 -9843
45821 314742 279640 -1792 13051 -9856
45835 314761 279659 -1784 13036 -9873
45848 314761 279665 -1784 13037 -9864
45864 314772 279687 -1837 13037 -9838
45889 314805 279724 -1828 13007 -9816
45912 314850 279769 -1797 13031 -9802
45936 314859 279782 -1783 13014 -9826
45961 314871 279807 -1783 12998 -9834
45990 314919 279830 -1787 13019 -9831
46018 314947 279866 -1793 13046 -9843
46048 314981 279887 -1792 13051 -9856
46074 314994 279907 -1784 13036 -9873
46101 315003 279918 -1790 13075 -9846
46136 315059 279970 -1780 13030 -9862
46171 315094 279985 -1780 13015 -9887
46193 315071 279969 -1776 13015 -9887
46213 315050 279949 -1765 13006 -9904
46222 314967 279897 -1764 13027 -9919
46220 314887 279844 -1763 13020 -9912
46197 314829 279831 -1756 13002 -9911
46172 314781 279817 -1765 13004 -9910
46139 314751 279795 -1773 13030 -9902
46118 314758 279820 -1762 13047 -9894
46100 314773 279820 -1754 13040 -9871
46091 314799 279847 -1763 13033 -9811
46088 314817 279873 -1764 13027 -9811
46086 314857 279885 -1739 13030 -9850
46083 314849 279885 -1711 13036 -9867
46081 314849 279880 -1740 13059 -9881
46093 314883 279895 -1778 13057 -9876
46094 314859 279879 -1764 13030 -9849
46098 314863 279878 -1740 13029 -9804
46102 314880 279905 -1752 13030 -9782
46109 314877 279907 -1791 13014 -9774
46108 314887 279912 -1803 13027 -9784
46110 314881 279919 -1781 13047 -9809
46115 314893 279933 -1745 13064 -9791
46115 314882 279931 -1749 13061 -9766
46121 314884 279939 -1783 13060 -9778
46135 314912 279951 -1764 13054 -9784
46147 314922 279967 -1730 13046 -9783
46160 314949 279980 -1778 13067 -9784
46181 314977 280007 -1847 13087 -9790
46202 315015 280019 -1838 13092 -9791
46223 315040 280024 -1793 13083 -9797
46243 315045 280031 -1776 13072 -9808
46268 315080 280051 -1778 13068 -9819
46299 315140 280101 -1784 13069 -9831
46328 315190 280118 -1786 13063 -9842
46353 315216 280125 -1778 13049 -9850
46374 315207 280116 -1773 13051 -9850
46402 315250 280146 -1769 13050 -9849
46440 315317 280201 -1777 13045 -9844
46467 315342 280210 -1764 13035 -9840
46490 315337 280201 -1762 13028 -9826
46514 315341 280199 -1759 13027 -9848
46524 315263 280143 -1758 13040 -9864
46516 315180 280113 -1757 13048 -9868
46498 315118 280098 -1749 13050 -9865
46468 315041 280065 -1761 13070 -9837
46440 315025 280045 -1777 13083 -9831
46415 315010 280045 -1759 13104 -9761
46395 314981 280024 -1764 13081 -9773
46370 314932 279999 -1772 13088 -9819
46357 314881 279963 -1738 13091 -9826
46351 314874 279948 -1720 13077 -9835
46351 314874 279949 -1766 13072 -9828
46346 314851 279915 -1777 13051 -9817
46347 314835 279875 -1738 13043 -9809
46341 314779 279802 -1729 13023 -9787
46348 314774 279787 -1778 13040 -9743
46350 314790 279793 -1789 13052 -9763
46349 314758 279777 -1776 13062 -9803
46348 314760 279765 -1751 13068 -9807
46353 314756 279771 -1766 13044 -9833
46360 314783 279782 -1793 13057 -9822
46364 314793 279787 -1754 13059 -9788
46368 314770 279777 -1742 13037 -9818
46373 314777 279762 -1783 13041 -9836
46386 314804 279772 -1795 13043 -9839
46395 314813 279760 -1781 13023 -9835
46423 314866 279809 -1769 13023 -9834
46457 314936 279867 -1765 13039 -9837
46497 315057 279943 -1762 13037 -9847
46529 315122 279982 -1767 13031 -9847
46551 315143 279986 -1770 13018 -9859
46570 315149 279978 -1773 13004 -9887
46594 315169 279978 -1774 12995 -9879
46620 315206 279979 -1764 12999 -9874
46640 315211 279972 -1760 13015 -9916
46659 315200 279945 -1742 13042 -9913
46686 315218 279943 -1729 13030 -9863
46711 315244 279956 -1744 13009 -9847
46744 315248 279954 -1746 13027 -9852
46764 315255 279948 -1748 13034 -9881
46782 315235 279933 -1747 13011 -9929
46802 315220 279934 -1750 12980 -9943
46808 315264 279958 -1775 12980 -9943
46793 315321 279906 -1779 12994 -9946
46739 315245 279622 -1750 12985 -9937
46623 314899 279001 -1739 12986 -9936
46348 313881 277588 -1753 12988 -9929
45728 312050 275047 -1754 12961 -9938
44607 308289 270464 -1738 12941 -9993
43716 302445 268535 -1709 12931 -10031
44044 292319 267792 -1701 12875 -9975
44329 290901 266684 -1711 12740 -9871
45827 303351 272385 -1704 12626 -9770
46587 311600 276704 -1694 12461 -9517
46715 314048 278127 -1710 12303 -9082
46837 314170 278535 -1659 12955 -9062
46640 310360 276275 -995 14077 -9827
45201 298599 269784 -967 15014 -10771
45128 298669 270799 -1639 14138 -10808
45257 306047 271264 -1892 12918 -10320
45608 310020 271481 -1775 12340 -9934
46338 311493 273394 -1914 12544 -9753
46799 311480 274666 -2064 13032 -9817
47083 311808 275528 -1947 13047 -10012
47258 312335 276208 -1688 13132 -10297
47398 312931 276834 -1436 13661 -10685
47500 313285 277288 -1258 13791 -10988
47568 313487 277572 -1383 13207 -10900
47636 313700 277839 -1611 12624 -10651
47681 313882 278042 -1656 12422 -10485
47715 314006 278164 -1680 12396 -10368
47751 314142 278294 -1768 12479 -10381
47782 314274 278423 -1843 12529 -10375
47814 314397 278553 -1800 12445 -10263
47838 314481 278621 -1514 12384 -10401
47850 314529 278663 -1498 12476 -10408
47872 314605 278742 -1524 12585 -10326
47890 314649 278788 -1559 12647 -10274
47890 314634 278777 -1590 12706 -10207
47888 314607 278760 -1616 12783 -10178
47874 314515 278699 -1649 12822 -10153
47837 314384 278629 -1694 12851 -10123
47797 314327 278621 -1709 12878 -10109
47760 314321 278669 -1679 12916 -9959
47723 314343 278722 -1719 12932 -9939
47687 314363 278779 -1726 12969 -9950
47648 314402 278835 -1660 13031 -9901
47615 314417 278870 -1604 13058 -9893
47587 314430 278905 -1626 13052 -9910
47559 314472 278964 -1650 13022 -9908
47541 314519 279024 -1643 12956 -9910
47516 314508 279037 -1649 12917 -9891
47494 314545 279072 -1681 12922 -9859
47466 314523 279076 -1699 12950 -9818
47446 314512 279096 -1709 12979 -9811
47430 314533 279143 -1711 12978 -9865
47407 314549 279176 -1699 12979 -9879
47379 314548 279196 -1722 12984 -9906
47349 314542 279210 -1753 13005 -9908
47320 314544 279233 -1715 13047 -9881
47297 314548 279252 -1683 13039 -9906
47278 314572 279289 -1697 13013 -9925
47262 314583 279321 -1705 13012 -9928
47239 314585 279322 -1680 13030 -9926
47223 314620 279353 -1664 13006 -9930
47211 314640 279402 -1653 13009 -9928
47204 314677 279417 -1658 13017 -9928
47199 314698 279456 -1677 13010 -9932
47193 314715 279480 -1685 13007 -9923
47190 314732 279487 -1680 12992 -9928
47190 314764 279520 -1684 12982 -9929
47192 314796 279550 -1690 12978 -9925
47201 314849 279595 -1664 13000 -9913
47213 314877 279641 -1645 13022 -9892
47216 314900 279658 -1651 13023 -9899
47214 314890 279642 -1661 13025 -9927
47203 314852 279611 -1693 13024 -9943
47180 314757 279558 -1711 13019 -9940
47135 314665 279510 -1715 13015 -9913
47080 314596 279493 -1723 13010 -9882
47027 314566 279492 -1737 12991 -9882
46972 314539 279491 -1755 13004 -9887
46912 314516 279488 -1660 13032 -9886
46856 314491 279466 -1712 13029 -9912
46799 314445 279444 -1731 13015 -9914
46758 314432 279434 -1709 13007 -9918
46724 314462 279466 -1710 12997 -9920
46700 314477 279489 -1738 12970 -9898
46661 314484 279492 -1767 12949 -9882
46630 314457 279464 -1775 12946 -9896
46597 314413 279444 -1767 12958 -9920
46572 314415 279442 -1739 12994 -9898
46546 314420 279457 -1760 12999 -9882
46518 314415 279454 -1801 12995 -9883
46481 314396 279448 -1748 12990 -9885
46450 314393 279448 -1715 13001 -9900
46419 314370 279447 -1749 13020 -9902
46389 314375 279451 -1767 13002 -9907
46366 314371 279461 -1759 13006 -9899
46354 314395 279492 -1737 13008 -9892
46343 314403 279507 -1730 13001 -9891
46326 314411 279503 -1736 13008 -9881
46306 314396 279490 -1728 13043 -9856
46290 314404 279497 -1715 13058 -9857
46281 314404 279493 -1710 13040 -9876
46274 314404 279496 -1714 13023 -9879
46265 314401 279506 -1710 13008 -9885
46262 314409 279507 -1710 13001 -9885
46255 314404 279493 -1718 12983 -9874
46259 314421 279518 -1718 12991 -9862
46270 314475 279581 -1713 13010 -9868
46277 314481 279581 -1706 13012 -9879
46276 314475 279572 -1692 13042 -9878
46267 314433 279521 -1696 13052 -9871
46249 314337 279457 -1713 13046 -9895
46212 314217 279398 -1706 13057 -9904
46163 314137 279360 -1715 13028 -9877
46106 314078 279346 -1745 13010 -9854
46041 314003 279312 -1762 13032 -9858
45984 313987 279313 -1727 13038 -9872
45931 313963 279306 -1676 13042 -9898
45883 313950 279306 -1704 13049 -9934
45843 313932 279312 -1705 13051 -9894
45811 313930 279317 -1687 13005 -9881
45786 313941 279339 -1707 12969 -9873
45761 313928 279340 -1747 12966 -9886
45746 313970 279367 -1764 12988 -9892
45716 313900 279316 -1752 13012 -9903
45694 313897 279324 -1719 13039 -9880
45678 313904 279350 -1733 13045 -9866
45654 313898 279359 -1771 13037 -9864
45626 313880 279350 -1664 13069 -9823
45606 313857 279351 -1717 13065 -9819
45586 313847 279350 -1760 13028 -9835
45565 313844 279358 -1749 13025 -9836
45548 313838 279357 -1722 13057 -9833
45536 313843 279373 -1718 13049 -9839
45526 313835 279386 -1725 13035 -9837
45518 313828 279390 -1735 13039 -9824
45520 313840 279412 -1747 13054 -9821
45521 313855 279420 -1725 13092 -9789
45525 313870 279434 -1736 13063 -9784
45530 313882 279442 -1755 13043 -9812
45536 313876 279439 -1755 13030 -9847
45547 313887 279455 -1749 13010 -9851
45557 313896 279467 -1744 13013 -9851
45575 313925 279495 -1750 13037 -9860
45586 313927 279504 -1768 13054 -9871
45600 313925 279509 -1764 13062 -9875
45608 313908 279488 -1744 13057 -9857
45618 313888 279483 -1742 13085 -9813
45603 313793 279427 -1752 13102 -9772
45571 313711 279394 -1761 13069 -9793
45531 313640 279375 -1746 13056 -9835
45479 313576 279348 -1723 13062 -9864
45428 313538 279335 -1745 13058 -9881
45382 313510 279336 -1768 13046 -9881
45344 313486 279322 -1740 13044 -9862
45313 313464 279333 -1724 13028 -9826
45294 313489 279341 -1741 13017 -9812
45273 313484 279355 -1774 13048 -9797
45254 313472 279367 -1785 13063 -9803
45246 313503 279386 -1759 13058 -9844
45233 313461 279349 -1730 13074 -9846
45227 313466 279349 -1744 13067 -9829
45222 313470 279365 -1786 13061 -9809
45214 313485 279385 -1762 13072 -9791
45211 313474 279395 -1708 13054 -9800
45202 313475 279411 -1732 13062 -9809
45191 313469 279408 -1777 13060 -9824
45188 313466 279426 -1732 13097 -9804
45184 313473 279417 -1721 13088 -9815
45181 313471 279426 -1736 13065 -9829
45187 313484 279449 -1756 13052 -9847
45199 313504 279462 -1758 13046 -9856
45211 313518 279487 -1744 13048 -9844
45222 313548 279494 -1746 13037 -9834
45236 313555 279500 -1757 13019 -9844
45249 313579 279506 -1766 13020 -9847
45268 313583 279505 -1754 13065 -9804
45283 313569 279493 -1748 13051 -9822
45302 313569 279490 -1761 13040 -9841
45325 313585 279510 -1767 13024 -9848
45350 313596 279510 -1759 13014 -9848
45377 313614 279531 -1762 13044 -9848
45403 313646 279550 -1766 13095 -9833
45434 313654 279567 -1754 13104 -9801
45454 313658 279537 -1755 13074 -9784
45476 313634 279525 -1773 13100 -9750
45473 313535 279453 -1739 13099 -9803
45452 313453 279414 -1711 13084 -9841
45424 313396 279407 -1752 13076 -9875
45381 313348 279385 -1779 13056 -9877
45337 313298 279360 -1751 13026 -9845
45299 313265 279343 -1726 13014 -9805
45273 313279 279351 -1744 13007 -9793
45256 313278 279355 -1773 13012 -9808
45237 313248 279343 -1765 13036 -9818
45229 313246 279339 -1735 13078 -9830
45222 313229 279349 -1707 13110 -9823
45215 313232 279343 -1727 13084 -9822
45217 313221 279325 -1773 13073 -9807
45218 313189 279301 -1735 13061 -9793
45222 313195 279310 -1696 13059 -9814
45221 313174 279294 -1743 13076 -9811
45220 313171 279279 -1780 13047 -9822
45223 313155 279281 -1756 13057 -9824
45225 313172 279290 -1721 13088 -9792
45229 313195 279287 -1727 13103 -9772
45227 313181 279289 -1743 13107 -9774
45244 313252 279334 -1741 13097 -9798
45259 313287 279362 -1737 13081 -9801
45274 313320 279380 -1742 13065 -9772
45296 313355 279410 -1749 13066 -9782
45315 313384 279424 -1745 13076 -9817
45338 313402 279426 -1743 13058 -9834
45358 313415 279425 -1741 13038 -9838
45380 313427 279430 -1732 13047 -9842
45405 313436 279424 -1701 13056 -9838
45435 313452 279428 -1706 13038 -9844
45459 313473 279430 -1747 13025 -9862
45481 313475 279414 -1764 13018 -9864
45511 313485 279427 -1771 13029 -9865
45542 313536 279440 -1756 13055 -9878
45569 313521 279432 -1748 13026 -9890
45586 313490 279379 -1760 12985 -9886
45602 313441 279327 -1771 12967 -9880
45602 313333 279232 -1774 12979 -9896
45582 313200 279133 -1693 13013 -9934
45551 313139 279100 -1752 13003 -9964
45519 313083 279066 -1767 12985 -9966
45488 313051 279053 -1747 12948 -9953
45459 313022 279032 -1757 12931 -9947
45429 312984 278977 -1778 12925 -9934
45404 312962 278933 -1781 12922 -9921
45398 312952 278921 -1773 12942 -9919
45401 312978 278945 -1750 12968 -9940
45398 312963 278926 -1713 12999 -9919
45386 312913 278858 -1741 12989 -9894
45395 312911 278822 -1786 12959 -9882
45398 312886 278779 -1729 12930 -9886
45399 312869 278722 -1698 12880 -9928
45393 312823 278670 -1754 12867 -9916
45394 312820 278660 -1788 12929 -9921
45421 312928 278754 -1785 13075 -9962
45457 313061 278853 -1761 13137 -10007
45517 313347 279098 -1746 13131 -10028
45601 313716 279392 -1794 13132 -9923
45685 314127 279644 -1737 12934 -9940
45751 314321 279617 -1670 12623 -9753
45730 314002 278975 -1729 12518 -9402
45508 313238 277786 -1903 12462 -8651
44905 311418 275278 -1623 12416 -8247
43865 307641 270858 -628 13214 -9368
43087 303309 269126 -360 14394 -10587
43493 297346 269777 -1435 14615 -10672
43910 291113 268603 -2022 13751 -10433
43953 289017 267030 -1851 12575 -10340
44323 293061 267709 -1959 12240 -10192
45170 299189 270401 -2136 12772 -10094
45502 300588 271067 -2084 13024 -10236
45105 296788 269038 -1928 12826 -10532
44734 294180 269061 -1823 12829 -10544
45038 297774 271038 -1777 12891 -10365
45093 300018 271260 -1723 12716 -10488
45001 302162 271019 -1597 12761 -10666
44840 304816 270477 -1500 13100 -10657
44898 307245 270222 -1573 13205 -10652
45371 308176 271274 -1734 12903 -10565
45829 308798 272755 -1825 12551 -10381
46096 310078 274197 -1816 12391 -10267
46256 310977 275237 -1739 12340 -10226
46366 311596 275971 -1683 12334 -10241
46441 311996 276451 -1700 12455 -10256
46493 312237 276784 -1728 12646 -10267
46530 312378 277030 -1712 12724 -10229
46551 312430 277164 -1715 12685 -10156
46561 312440 277247 -1772 12792 -10093
46569 312435 277286 -1781 12948 -10060
46578 312436 277349 -1721 12965 -10052
46591 312458 277436 -1707 12990 -10022
46614 312530 277557 -1739 12996 -9993
46640 312619 277708 -1747 13007 -9974
46661 312700 277822 -1732 13028 -9951
46677 312757 277928 -1717 13003 -9922
46694 312816 278036 -1702 13000 -9900
46717 312893 278161 -1702 13036 -9870
46741 312952 278283 -1772 12792 -10093
46763 313003 278390 -1781 12948 -10060
46791 313066 278500 -1721 12965 -10052
46812 313114 278597 -1707 12990 -10022
46830 313143 278668 -1739 12996 -9993
46843 313177 278728 -1747 13007 -9974
46867 313237 278821 -1732 13028 -9951
46891 313301 278902 -1717 13003 -9922
46910 313361 278980 -1702 13000 -9900
46926 313399 279031 -1702 13036 -9870
46927 313400 279022 -1688 13064 -9788
46933 313406 279038 -1696 13028 -9766
46947 313445 279064 -1704 13006 -9768
46954 313461 279082 -1706 12982 -9758
46965 313478 279087 -1704 12974 -9757
46972 313492 279096 -1700 12982 -9778
46955 313402 279054 -1710 12973 -9785
46917 313323 279012 -1718 12992 -9802
46886 313301 279015 -1723 13027 -9824
46841 313282 279036 -1723 13059 -9806
46796 313264 279044 -1720 13081 -9824
46748 313244 279029 -1726 13065 -9850
46702 313217 278997 -1748 13044 -9840
46669 313205 279000 -1765 13025 -9834
46639 313214 279006 -1783 13013 -9860
46617 313214 279029 -1769 13029 -9886
46600 313231 279048 -1715 13049 -9902
46575 313232 279023 -1722 13063 -9927
46567 313234 279023 -1767 13024 -9928
46547 313182 278984 -1767 12986 -9921
46531 313177 278981 -1723 13021 -9890
46509 313146 278959 -1704 13037 -9848
46491 313128 278945 -1748 13016 -9824
46474 313122 278964 -1792 13004 -9833
46460 313142 278979 -1793 13011 -9847
46450 313145 278999 -1763 13032 -9844
46444 313163 279025 -1739 13036 -9816
46439 313186 279042 -1769 13034 -9814
46424 313189 279025 -1791 13028 -9824
46418 313187 279029 -1758 13033 -9807
46417 313204 279047 -1782 13049 -9789
46425 313227 279065 -1822 13053 -9786
46434 313264 279098 -1800 13072 -9793
46443 313290 279117 -1776 13078 -9803
46450 313299 279123 -1764 13063 -9817
46456 313308 279114 -1764 13056 -9823
46462 313322 279113 -1768 13041 -9839
46476 313362 279151 -1775 13041 -9830
46496 313409 279201 -1782 13023 -9818
46511 313432 279208 -1770 12995 -9822
46523 313419 279189 -1755 13029 -9808
46527 313395 279166 -1753 13054 -9816
46525 313347 279133 -1754 13039 -9840
46504 313234 279063 -1755 13032 -9843
46468 313155 279025 -1750 13013 -9850
46427 313100 279018 -1751 13000 -9865
46380 313039 278989 -1767 13011 -9875
46340 313040 278995 -1775 13044 -9893
46310 313037 279018 -1764 13049 -9891
46276 313013 278996 -1762 13025 -9869
46251 313010 278999 -1787 13066 -9813
46228 313012 278997 -1783 13057 -9861
46220 313037 279030 -1748 13035 -9854
46203 313035 279020 -1743 13036 -9870
46203 313072 279055 -1766 13035 -9893
46187 313032 279020 -1754 13005 -9881
46185 313024 279032 -1734 12979 -9875
46178 313030 279038 -1739 12972 -9877
46172 313034 279051 -1764 12970 -9864
46164 313015 279058 -1770 13064 -9831
46156 312990 279071 -1738 13090 -9831
46147 312980 279067 -1746 13037 -9845
46143 312993 279082 -1808 13008 -9864
46142 313002 279108 -1821 13027 -9856
46139 312986 279116 -1748 13028 -9848
46140 312971 279099 -1739 13035 -9861
46146 312980 279119 -1800 13036 -9862
46153 313008 279123 -1814 13015 -9877
46166 313009 279135 -1747 13026 -9840
46171 313022 279128 -1757 13029 -9840
46185 313038 279143 -1779 13017 -9864
46198 313039 279155 -1793 13012 -9880
46214 313048 279165 -1782 13024 -9866
46226 313043 279164 -1768 13039 -9846
46243 313056 279183 -1776 13036 -9837
46268 313102 279237 -1790 13014 -9850
46290 313124 279255 -1786 12992 -9870
46304 313104 279243 -1776 13007 -9858
46311 313072 279213 -1781 13046 -9828
46317 313010 279170 -1780 13044 -9830
46302 312905 279129 -1780 13030 -9851
46277 312858 279119 -1792 13055 -9855
46241 312782 279100 -1792 13073 -9855
46201 312743 279093 -1787 13056 -9843
46169 312729 279108 -1789 13040 -9813
46150 312777 279150 -1778 13048 -9778
46138 312805 279192 -1785 13082 -9777
46121 312780 279198 -1763 13087 -9806
46114 312796 279232 -1727 13092 -9819
46108 312824 279263 -1752 13114 -9834
46101 312830 279254 -1776 13079 -9844
46103 312871 279265 -1766 13051 -9836
46093 312833 279240 -1760 13050 -9844
46088 312840 279238 -1782 13016 -9835
46089 312865 279256 -1811 12975 -9781
46087 312875 279263 -1812 12989 -9780
46080 312875 279272 -1781 13029 -9831
46072 312866 279269 -1750 13048 -9803
46067 312853 279274 -1866 13126 -9772
46066 312869 279302 -1805 13099 -9761
46065 312865 279303 -1759 13079 -9789
46068 312877 279322 -1780 13107 -9794
46075 312892 279346 -1800 13085 -9811
46084 312902 279360 -1787 13070 -9808
46100 312927 279379 -1755 13080 -9797
46114 312933 279395 -1752 13088 -9792
46132 312946 279403 -1764 13081 -9786
46149 312952 279415 -1771 13116 -9763
46171 312978 279430 -1763 13102 -9785
46186 312983 279428 -1762 13090 -9776
46207 312996 279426 -1762 13081 -9766
46223 313001 279429 -1759 13062 -9779
46249 313035 279437 -1755 13049 -9790
46281 313071 279470 -1746 13064 -9795
46305 313067 279470 -1743 13062 -9813
46325 313084 279459 -1751 13058 -9818
46345 313084 279451 -1753 13091 -9806
46341 312976 279383 -1756 13121 -9777
46324 312865 279323 -1768 13135 -9779
46296 312794 279298 -1763 13112 -9806
46259 312733 279275 -1756 13089 -9788
46223 312694 279253 -1765 13083 -9731
46192 312683 279250 -1773 13073 -9746
46170 312667 279261 -1770 13096 -9790
46156 312694 279289 -1723 13113 -9800
46141 312682 279293 -1718 13103 -9841
46130 312693 279308 -1760 13113 -9831
46127 312711 279330 -1750 13111 -9799
46119 312686 279328 -1728 13088 -9781
46121 312701 279319 -1732 13076 -9751
46114 312654 279283 -1761 13063 -9742
46111 312633 279274 -1786 13047 -9749
46113 312622 279269 -1784 13058 -9768
46113 312621 279289 -1761 13104 -9794
46107 312590 279265 -1747 13113 -9763
46099 312564 279254 -1778 13094 -9765
46100 312558 279236 -1807 13116 -9790
46101 312542 279227 -1727 13144 -9770
46107 312558 279247 -1702 13132 -9770
46119 312593 279257 -1779 13105 -9787
46134 312619 279286 -1795 13085 -9789
46154 312688 279334 -1774 13072 -9784
46178 312747 279371 -1755 13079 -9788
46216 312836 279451 -1746 13093 -9784
46261 312953 279539 -1746 13105 -9789
46310 313080 279658 -1754 13112 -9796
46361 313239 279774 -1757 13104 -9801
46411 313373 279889 -1740 13113 -9786
46458 313482 279967 -1731 13102 -9785
46499 313574 280027 -1742 13056 -9820
46534 313620 280067 -1744 13039 -9849
46558 313641 280071 -1727 13037 -9835
46582 313653 280050 -1721 13051 -9791
46606 313670 280049 -1745 13062 -9780
46632 313660 280045 -1759 13074 -9779
46653 313629 280006 -1755 13112 -9755
46661 313573 279939 -1761 13113 -9735
46660 313431 279830 -1775 13139 -9692
46633 313265 279720 -1791 13153 -9729
46606 313135 279651 -1783 13153 -9734
46564 313011 279567 -1771 13115 -9726
46514 312881 279494 -1775 13082 -9703
46479 312810 279458 -1788 13086 -9702
46452 312776 279430 -1784 13111 -9730
46436 312763 279431 -1739 13110 -9757
46419 312710 279398 -1741 13113 -9794
46401 312644 279327 -1804 13144 -9774
46395 312641 279296 -1798 13141 -9769
46389 312627 279247 -1754 13107 -9791
46394 312657 279253 -1763 13081 -9799
46392 312617 279200 -1791 13066 -9766
46394 312583 279174 -1802 13050 -9713
46400 312573 279166 -1794 13076 -9723
46396 312549 279143 -1771 13115 -9770
46389 312510 279100 -1747 13119 -9764
46398 312525 279120 -1773 13095 -9775
46404 312527 279113 -1733 13104 -9727
46406 312532 279114 -1704 13102 -9737
46414 312507 279091 -1776 13080 -9737
46416 312484 279066 -1797 13046 -9765
46424 312491 279062 -1762 13060 -9803
46441 312505 279053 -1725 13085 -9807
46453 312508 279050 -1726 13075 -9799
46461 312492 279029 -1748 13077 -9812
46488 312537 279053 -1761 13078 -9823
46518 312574 279080 -1746 13069 -9815
46547 312609 279079 -1721 13092 -9784
46569 312617 279088 -1712 13101 -9781
46594 312644 279094 -1719 13097 -9796
46626 312707 279130 -1732 13092 -9790
46661 312760 279148 -1727 13074 -9810
46700 312871 279234 -1709 13067 -9844
46758 313016 279352 -1716 13044 -9856
46853 313313 279631 -1742 13013 -9818
46961 313662 279911 -1760 13006 -9802
47036 313927 280120 -1766 13045 -9826
47069 314051 280129 -1783 13114 -9852
47027 313742 279630 -1789 13144 -9870
46932 313377 279061 -1779 13151 -9915
46836 313212 278697 -1787 13173 -9911
46751 313109 278396 -1792 13167 -9803
46567 312754 277694 -1761 13072 -9802
45863 310841 274996 -1665 12861 -9771
44577 306267 270349 -1651 12719 -9615
44300 299850 271017 -1745 12960 -9663
45052 290187 270721 -1789 13347 -9763
44968 289670 268529 -1491 12592 -9138
46467 305623 274893 -1637 11525 -8115
46809 312888 277683 -1667 11417 -8126
46769 314208 278432 -990 13497 -10148
47004 314156 279019 -614 15495 -11647
47121 312049 278276 -1163 15060 -11358
46716 306465 274972 -1617 13672 -10584
45798 298037 270409 -1774 12804 -10110
45416 293900 269339 -2048 12610 -9890
45628 294375 270556 -2090 12875 -9728
45860 299498 271964 -1949 12788 -9820
45707 304979 271409 -1845 12935 -9974
45981 307909 271036 -1816 13052 -10114
46813 309147 272880 -1825 12968 -10380
47353 309895 274499 -1722 12961 -10613
47635 310817 275637 -1463 13139 -10737
47789 311417 276344 -1414 13308 -10681
47890 311846 276843 -1695 13098 -10461
47966 312168 277215 -1966 12677 -10290
48008 312374 277426 -2014 12446 -10147
48040 312458 277548 -1897 12370 -10085
48065 312531 277638 -1769 12402 -10114
48091 312593 277715 -1671 12522 -10146
48120 312631 277783 -1660 12623 -10124
48166 312738 277919 -1721 12681 -10113
48214 312851 278061 -1760 12735 -10136
48255 312921 278169 -1743 12815 -10126
48282 312953 278215 -1703 12916 -10070
48295 312911 278218 -1689 13014 -10028
48282 312795 278164 -1680 13066 -9971
48260 312706 278128 -1669 13041 -9914
48230 312645 278132 -1669 12997 -9860
48195 312617 278150 -1677 12942 -9852
48168 312586 278176 -1661 12924 -9857
48150 312609 278245 -1606 12960 -9853
48139 312659 278329 -1621 13012 -9899
48130 312684 278386 -1685 13048 -9928
48117 312685 278432 -1695 13057 -9918
48112 312702 278488 -1667 13057 -9903
48112 312726 278547 -1635 13053 -9879
48114 312768 278604 -1638 13032 -9842
48114 312788 278637 -1669 12998 -9851
48111 312799 278684 -1683 13000 -9882
48098 312796 278697 -1675 13042 -9890
48090 312823 278736 -1675 13033 -9864
48083 312861 278783 -1700 12988 -9864
48077 312909 278855 -1715 12985 -9895
48072 312956 278905 -1674 13001 -9891
48062 312994 278961 -1679 13020 -9869
48050 313023 278990 -1732 13073 -9860
48039 313056 279038 -1752 13082 -9878
48025 313070 279048 -1744 13042 -9890
48013 313098 279074 -1719 13040 -9868
48007 313134 279109 -1714 13043 -9827
47998 313155 279114 -1728 13043 -9817
47996 313189 279152 -1743 13052 -9812
47991 313219 279175 -1741 13079 -9803
47982 313215 279173 -1727 13103 -9802
47979 313238 279187 -1737 13106 -9780
47977 313255 279195 -1766 13131 -9744
47986 313308 279249 -1771 13134 -9742
47991 313357 279277 -1753 13101 -9752
47992 313356 279268 -1745 13081 -9744
47986 313346 279252 -1751 13075 -9754
47980 313329 279214 -1767 13090 -9759
47951 313216 279141 -1779 13099 -9785
47912 313103 279070 -1767 13075 -9769
47865 313042 279060 -1754 13079 -9723
47820 312995 279040 -1766 13078 -9704
47766 312966 279032 -1811 13143 -9687
47727 312961 279059 -1773 13153 -9700
47679 312953 279047 -1774 13137 -9763
47646 312955 279049 -1801 13109 -9789
47610 312943 279034 -1796 13070 -9770
47578 312940 279036 -1784 13055 -9756
47553 312941 279048 -1793 13051 -9767
47530 312943 279035 -1800 13044 -9783
47518 312953 279052 -1798 13039 -9775
47506 312953 279054 -1810 13092 -9755
47485 312929 279029 -1814 13077 -9763
47467 312920 279030 -1835 13053 -9791
47445 312920 279025 -1837 13053 -9809
47429 312915 279047 -1791 13050 -9792
47407 312911 279041 -1788 13058 -9794
47386 312910 279042 -1824 13050 -9797
47364 312918 279045 -1831 13045 -9804
47347 312907 279031 -1807 13046 -9820
47331 312893 279021 -1792 13057 -9824
47313 312891 279010 -1804 13106 -9805
47303 312899 279028 -1808 13108 -9805
47307 312952 279071 -1803 13079 -9802
47300 312968 279076 -1801 13071 -9766
47293 312966 279068 -1791 13077 -9733
47296 312977 279080 -1780 13082 -9723
47300 312996 279084 -1784 13077 -9759
47299 313012 279080 -1777 13076 -9797
47297 313027 279092 -1761 13070 -9789
47306 313056 279125 -1758 13071 -9765
47321 313071 279139 -1760 13096 -9757
47321 313078 279130 -1775 13112 -9755
47320 313052 279096 -1785 13110 -9780
47306 312955 279034 -1777 13091 -9801
47278 312833 278966 -1773 13083 -9795
47238 312771 278940 -1780 13085 -9758
47194 312696 278909 -1783 13088 -9768
47143 312647 278883 -1762 13097 -9806
47099 312614 278879 -1733 13100 -9817
47055 312608 278872 -1751 13104 -9851
47023 312606 278886 -1759 13073 -9812
46994 312592 278884 -1737 13053 -9803
46964 312593 278878 -1749 13034 -9805
46941 312585 278878 -1779 13014 -9803
46918 312587 278865 -1793 13017 -9806
46913 312600 278884 -1781 13053 -9821
46899 312574 278867 -1751 13082 -9812
46884 312562 278860 -1752 13084 -9798
46867 312544 278849 -1789 13087 -9784
46849 312516 278844 -1767 13090 -9771
46835 312526 278854 -1720 13090 -9766
46824 312512 278864 -1745 13099 -9755
46808 312504 278862 -1787 13108 -9755
46794 312505 278868 -1786 13099 -9772
46785 312505 278873 -1766 13094 -9772
46777 312520 278884 -1756 13088 -9762
46775 312528 278904 -1762 13085 -9772
46771 312544 278916 -1775 13094 -9775
46772 312544 278926 -1775 13097 -9767
46774 312565 278945 -1801 13106 -9732
46779 312588 278967 -1782 13088 -9748
46783 312614 278981 -1770 13065 -9781
46789 312608 278990 -1767 13055 -9793
46796 312612 278995 -1765 13046 -9786
46802 312618 279007 -1763 13035 -9797
46814 312652 279034 -1763 13054 -9813
46834 312686 279068 -1772 13067 -9809
46851 312701 279078 -1773 13088 -9806
46856 312698 279062 -1757 13130 -9779
46862 312665 279034 -1761 13128 -9749
46846 312575 278982 -1783 13109 -9728
46817 312475 278944 -1781 13098 -9730
46776 312402 278939 -1750 13109 -9770
46724 312351 278921 -1725 13102 -9795
46676 312317 278917 -1761 13100 -9814
46629 312303 278928 -1797 13099 -9830
46587 312287 278933 -1761 13069 -9828
46555 312287 278947 -1725 13067 -9805
46532 312280 278955 -1741 13065 -9780
46506 312288 278968 -1782 13076 -9758
46484 312278 278968 -1792 13085 -9753
46467 312273 278973 -1775 13076 -9765
46453 312260 278952 -1753 13086 -9778
46439 312249 278941 -1743 13099 -9763
46429 312238 278942 -1775 13108 -9769
46415 312233 278959 -1784 13120 -9764
46402 312210 278959 -1731 13117 -9735
46393 312214 278971 -1731 13125 -9728
46384 312212 278981 -1782 13131 -9726
46371 312220 278992 -1784 13145 -9720
46364 312244 279016 -1755 13157 -9715
46363 312264 279027 -1738 13143 -9727
46360 312271 279047 -1740 13135 -9738
46360 312285 279058 -1748 13128 -9747
46363 312327 279080 -1754 13124 -9742
46370 312372 279111 -1748 13125 -9740
46380 312416 279135 -1747 13117 -9755
46383 312445 279141 -1758 13095 -9758
46396 312491 279161 -1761 13079 -9764
46402 312518 279171 -1767 13129 -9758
46420 312560 279200 -1769 13108 -9795
46431 312583 279214 -1771 13104 -9799
46450 312640 279250 -1774 13089 -9791
46468 312671 279272 -1773 13091 -9817
46492 312717 279295 -1781 13108 -9830
46512 312754 279317 -1787 13104 -9800
46518 312709 279272 -1779 13094 -9779
46523 312647 279241 -1786 13077 -9763
46500 312524 279173 -1826 13136 -9716
46462 312423 279137 -1774 13139 -9767
46418 312333 279108 -1752 13105 -9803
46369 312257 279081 -1791 13101 -9796
46325 312210 279070 -1786 13084 -9797
46288 312199 279079 -1744 13078 -9792
46263 312219 279107 -1739 13077 -9765
46237 312215 279086 -1765 13048 -9768
46219 312201 279096 -1781 13028 -9764
46210 312229 279130 -1779 13130 -9748
46196 312222 279115 -1756 13135 -9735
46192 312281 279151 -1765 13119 -9767
46182 312234 279106 -1791 13110 -9784
46180 312242 279112 -1749 13089 -9789
46169 312226 279091 -1724 13078 -9809
46166 312221 279104 -1772 13074 -9804
46163 312232 279118 -1809 13043 -9818
46158 312250 279130 -1795 13044 -9821
46155 312242 279127 -1749 13079 -9827
46151 312251 279134 -1727 13092 -9834
46149 312250 279133 -1745 13079 -9838
46149 312258 279136 -1756 13072 -9827
46154 312283 279135 -1755 13074 -9808
46164 312301 279157 -1749 13073 -9800
46175 312310 279163 -1744 13052 -9814
46187 312317 279175 -1752 13040 -9843
46205 312327 279176 -1761 13040 -9847
46218 312342 279186 -1752 13041 -9848
46236 312356 279198 -1733 13040 -9864
46255 312382 279202 -1720 13069 -9861
46278 312401 279219 -1726 13091 -9849
46304 312424 279235 -1740 13088 -9867
46330 312459 279258 -1743 13088 -9888
46358 312502 279296 -1763 13079 -9880
46395 312556 279339 -1772 13079 -9880
46422 312571 279342 -1759 13047 -9859
46443 312561 279310 -1767 13022 -9814
46458 312510 279266 -1787 13016 -9815
46452 312383 279183 -1787 13017 -9825
46425 312266 279112 -1685 13049 -9835
46389 312192 279068 -1747 13046 -9851
46351 312120 279020 -1767 13024 -9847
46314 312062 278980 -1748 13007 -9845
46276 312004 278930 -1737 13001 -9836
46246 311966 278894 -1752 12996 -9828
46226 311920 278848 -1774 12996 -9824
46206 311877 278802 -1786 13001 -9820
46188 311802 278725 -1772 13015 -9846
46170 311729 278667 -1787 13017 -9825
46159 311691 278586 -1685 13049 -9835
46141 311571 278460 -1747 13046 -9851
46122 311437 278357 -1767 13024 -9847
46116 311344 278292 -1748 13007 -9845
46114 311262 278243 -1737 13001 -9836
46105 311153 278179 -1752 12996 -9828
46089 311052 278071 -1774 12996 -9824
46086 311006 278039 -1786 13001 -9820
46086 310975 278007 -1772 13015 -9846
46083 310920 277976 -1741 13079 -9809
46091 310928 277997 -1786 13085 -9795
46120 311048 278091 -1748 13070 -9776
46166 311229 278243 -1730 13045 -9812
46224 311461 278418 -1761 13055 -9845
46302 311756 278676 -1768 13044 -9868
46385 312053 278929 -1748 13027 -9856
46482 312407 279222 -1727 13004 -9876
46562 312749 279432 -1734 12999 -9913
46595 312734 279119 -1740 13033 -9911
46372 311561 277534 -1739 13031 -9929
45885 310067 275460 -1735 12998 -9953
45085 307570 272100 -1737 12980 -9955
44124 303695 268859 -1746 12974 -9981
44099 300627 270046 -1757 12981 -10040
44677 294444 270069 -1769 12994 -10044
44992 288801 268589 -1762 13039 -9994
45077 287397 267112 -1759 13019 -9925
45237 288292 266921 -1721 12737 -9943
45341 288405 267231 -1669 12139 -9651
45421 288278 268037 -1748 11919 -9185
45773 290035 269995 -1749 12555 -9082
45956 293938 271326 -1508 13337 -9052
45737 298635 271229 -1141 14114 -9642
45497 302345 270582 -1238 14494 -10310
45434 305530 269980 -1703 14114 -10233
45771 307540 270577 -1727 13043 -10324
46259 307830 271877 -1685 12038 -10542
46612 308645 273260 -1882 12259 -10441
46804 309480 274285 -1983 12789 -10346
46915 310006 274953 -1929 12770 -10475
47017 310444 275483 -1739 12764 -10578
47096 310751 275899 -1537 13069 -10633
47156 310985 276203 -1473 13341 -10587
47195 311131 276408 -1525 13317 -10549
47222 311234 276565 -1608 13155 -10604
47239 311316 276679 -1657 12925 -10488
47255 311396 276802 -1721 12606 -10398
47278 311491 276959 -1762 12370 -10339
47294 311553 277059 -1717 12296 -10224
47306 311593 277142 -1680 12354 -10227
47327 311683 277282 -1685 12462 -10284
47342 311747 277382 -1611 12593 -10278
47356 311783 277432 -1487 12713 -10253
47361 311817 277468 -1483 12803 -10217
47372 311822 277497 -1563 12901 -10153
47392 311878 277565 -1625 12989 -10071
47408 311919 277603 -1624 13024 -10021
47423 311952 277647 -1590 13024 -10005
47439 311991 277694 -1585 13023 -9977
47457 312044 277748 -1541 13003 -9870
47480 312111 277837 -1587 12956 -9885
47502 312172 277900 -1622 12919 -9892
47521 312198 277934 -1633 12939 -9876
47521 312170 277905 -1616 12988 -9854
47514 312114 277883 -1610 13005 -9860
47487 312015 277815 -1633 12983 -9888
47449 311906 277766 -1669 12962 -9900
47403 311839 277746 -1684 12978 -9895
47356 311788 277729 -1705 13011 -9880
47311 311757 277735 -1717 13030 -9899
47264 311730 277712 -1739 13019 -9891
47223 311691 277692 -1752 12974 -9874
47179 311662 277658 -1763 12961 -9891
47145 311634 277622 -1752 13002 -9907
47110 311609 277609 -1703 13014 -9912
47089 311613 277594 -1703 13015 -9942
47067 311621 277598 -1738 13006 -9952
47047 311585 277553 -1724 12987 -9924
47021 311524 277508 -1720 12956 -9936
47006 311508 277489 -1740 12947 -9934
46997 311513 277510 -1753 12939 -9926
46981 311508 277508 -1757 12928 -9949
46966 311495 277503 -1746 12959 -9958
46956 311495 277513 -1732 12980 -9933
46952 311506 277536 -1746 12960 -9930
46946 311529 277575 -1748 12945 -9921
46936 311516 277566 -1694 12992 -9871
46930 311528 277564 -1664 13112 -9847
46924 311518 277558 -1693 13145 -9870
