2025-10-16 02:54:38    绿光---红外光---红光---X轴---Y轴---Z轴
48813 302159 285476 -1796 12147 -11310
48823 302176 285476 -1793 12143 -11224
48833 302177 285472 -1790 12132 -11156
48840 302193 285481 -1776 12128 -11129
48849 302155 285445 -1759 12134 -11130
48857 302143 285430 -1764 12135 -11107
48872 302154 285409 -1781 12125 -11094
48882 302133 285392 -1796 12138 -11105
48893 302130 285370 -1808 12156 -11115
48905 302125 285354 -1815 12157 -11132
48920 302146 285346 -1810 12163 -11134
48939 302155 285342 -1792 12175 -11132
48951 302146 285321 -1770 12185 -11154
48963 302100 285280 -1786 12178 -11183
48976 301959 285175 -1833 12162 -11165
48972 301728 285043 -1840 12144 -11123
48973 301626 285012 -1813 12142 -11118
48970 301557 285000 -1814 12158 -11132
48970 301492 284977 -1864 12139 -11134
48968 301502 285005 -1884 12119 -11115
48970 301553 285056 -1860 12134 -11080
48970 301578 285069 -1862 12151 -11102
48974 301619 285080 -1858 12171 -11158
48981 301661 285118 -1802 12170 -11175
48988 301707 285155 -1779 12170 -11224
48993 301740 285177 -1816 12177 -11245
49002 301820 285222 -1835 12161 -11211
49009 301812 285212 -1815 12157 -11212
49019 301841 285231 -1815 12149 -11210
49029 301887 285271 -1816 12131 -11220
49040 301913 285301 -1800 12117 -11235
49045 301924 285315 -1803 12116 -11219
49055 301944 285332 -1797 12126 -11215
49059 301969 285348 -1777 12155 -11168
49067 301999 285374 -1801 12172 -11131
49075 302021 285394 -1842 12172 -11114
49082 302051 285418 -1811 12183 -11093
49086 302086 285438 -1775 12189 -11116
49097 302133 285471 -1843 12146 -11140
49106 302165 285491 -1833 12149 -11138
49113 302199 285509 -1801 12164 -11121
49124 302196 285496 -1788 12164 -11103
49132 302209 285494 -1790 12175 -11099
49146 302244 285516 -1800 12193 -11118
49161 302302 285569 -1813 12189 -11120
49176 302353 285602 -1819 12185 -11108
49193 302396 285638 -1816 12188 -11085
49202 302420 285645 -1822 12188 -11070
49212 302418 285624 -1854 12130 -11090
49213 302324 285515 -1814 12150 -11075
49197 302106 285286 -1780 12169 -11086
49173 301821 285028 -1793 12181 -11109
49157 301513 284801 -1808 12183 -11145
49143 301196 284588 -1814 12176 -11153
49130 300989 284464 -1820 12167 -11163
49122 300873 284403 -1810 12150 -11141
49115 300812 284382 -1838 12143 -11102
49108 300791 284369 -1879 12081 -11136
49099 300794 284375 -1779 12146 -11147
49090 300797 284349 -1681 12183 -11128
49092 300838 284371 -1686 12184 -11159
49091 300870 284378 -1738 12181 -11195
49090 300901 284383 -1735 12170 -11211
49089 300894 284364 -1694 12177 -11221
49094 300939 284364 -1692 12166 -11212
49083 300846 284254 -1737 12124 -11202
49074 300770 284183 -1747 12061 -11227
49086 300810 284213 -1731 12097 -11235
49091 300812 284208 -1734 12130 -11233
49095 300801 284201 -1766 12143 -11220
49094 300774 284182 -1778 12143 -11236
49097 300762 284156 -1744 12115 -11281
49099 300779 284177 -1730 12117 -11278
49113 300835 284205 -1745 12140 -11273
49124 300883 284246 -1753 12128 -11285
49134 300906 284264 -1760 12091 -11287
49144 300930 284263 -1746 12052 -11295
49157 300964 284285 -1736 12067 -11301
49169 301003 284308 -1755 12104 -11310
49183 301033 284320 -1782 12102 -11324
49195 301058 284330 -1776 12092 -11337
49213 301126 284380 -1746 12081 -11339
49235 301198 284432 -1734 12080 -11346
49248 301214 284437 -1736 12072 -11350
49258 301216 284422 -1748 12057 -11321
49276 301242 284436 -1758 12056 -11283
49298 301296 284485 -1763 12025 -11264
49317 301334 284501 -1776 12010 -11283
49332 301345 284497 -1793 12038 -11311
49343 301332 284469 -1792 12071 -11316
49361 301302 284459 -1773 12105 -11322
49367 301123 284340 -1750 12138 -11354
49370 300966 284274 -1734 12139 -11373
49369 300866 284235 -1738 12117 -11362
49364 300778 284193 -1757 12100 -11332
49353 300737 284126 -1762 12084 -11342
49344 300722 284101 -1755 12044 -11357
49339 300739 284106 -1725 12016 -11369
49344 300785 284148 -1726 12027 -11404
49343 300805 284157 -1749 12016 -11420
49345 300827 284163 -1722 12011 -11412
49347 300870 284170 -1687 11995 -11407
49364 300958 284239 -1679 11979 -11411
49375 301016 284273 -1692 11978 -11404
49386 301012 284272 -1702 11987 -11408
49395 301019 284295 -1714 12010 -11438
49409 301047 284319 -1702 11973 -11418
49417 301057 284332 -1716 12021 -11446
49426 301095 284373 -1716 12064 -11463
49429 301114 284376 -1698 12053 -11505
49436 301131 284384 -1712 12042 -11528
49445 301172 284419 -1742 12041 -11516
49458 301213 284463 -1750 12019 -11514
49474 301291 284521 -1745 12004 -11506
49491 301370 284591 -1740 11989 -11508
49500 301407 284610 -1742 11901 -11487
49516 301452 284641 -1756 11911 -11496
49536 301517 284688 -1758 11928 -11511
49549 301574 284737 -1750 11920 -11522
49565 301619 284761 -1745 11904 -11524
49575 301631 284755 -1738 11925 -11508
49590 301634 284749 -1743 11960 -11503
49601 301646 284743 -1773 11938 -11537
49609 301666 284736 -1779 11912 -11571
49623 301687 284755 -1762 11893 -11561
49634 301710 284762 -1738 11884 -11551
49639 301678 284717 -1750 11916 -11566
49648 301642 284668 -1796 11948 -11580
49645 301487 284558 -1798 11962 -11575
49641 301314 284469 -1767 11966 -11539
49638 301190 284414 -1757 11969 -11485
49630 301109 284380 -1773 11965 -11486
49622 301083 284366 -1782 11942 -11541
49617 301100 284391 -1739 11922 -11572
49609 301138 284397 -1729 11918 -11579
49606 301171 284409 -1808 11884 -11558
49595 301165 284372 -1823 11848 -11554
49583 301148 284340 -1759 11848 -11544
49580 301167 284338 -1732 11868 -11524
49579 301199 284352 -1751 11884 -11538
49583 301250 284381 -1776 11880 -11571
49579 301208 284331 -1768 11883 -11597
49579 301204 284337 -1752 11916 -11586
49587 301231 284367 -1771 11935 -11562
49593 301247 284383 -1806 11930 -11562
49602 301256 284391 -1794 11905 -11547
49609 301275 284420 -1729 11895 -11525
49616 301301 284454 -1716 11939 -11525
49617 301330 284465 -1759 11955 -11538
49623 301383 284500 -1779 11932 -11540
49628 301401 284526 -1764 11937 -11533
49637 301443 284566 -1739 11970 -11537
49644 301490 284601 -1737 11966 -11529
49652 301520 284616 -1746 11941 -11539
49660 301543 284621 -1746 11957 -11543
49665 301551 284627 -1716 11897 -11493
49672 301597 284654 -1725 11923 -11524
49683 301632 284680 -1740 11931 -11538
49693 301655 284685 -1739 11929 -11533
49700 301670 284675 -1731 11935 -11510
49705 301650 284644 -1743 11956 -11499
49712 301650 284632 -1749 11968 -11513
49723 301680 284649 -1744 11961 -11552
49739 301743 284702 -1754 11956 -11585
49756 301792 284733 -1751 11876 -11543
49767 301788 284717 -1767 11918 -11564
49765 301727 284657 -1773 11935 -11574
49765 301617 284569 -1769 11924 -11553
49762 301428 284472 -1771 11935 -11518
49758 301310 284426 -1779 11941 -11505
49749 301216 284390 -1772 11963 -11516
49743 301204 284400 -1729 11959 -11537
49734 301211 284411 -1722 11951 -11564
49726 301238 284421 -1766 11906 -11534
49715 301264 284426 -1730 11894 -11540
49700 301267 284421 -1735 11886 -11549
49693 301290 284422 -1758 11895 -11523
49691 301328 284448 -1772 11911 -11519
49683 301348 284440 -1770 11933 -11545
49682 301387 284456 -1761 11941 -11580
49678 301382 284419 -1748 11945 -11557
49671 301354 284381 -1766 11949 -11532
49666 301317 284347 -1791 11935 -11526
49654 301268 284269 -1735 11901 -11501
49632 301180 284152 -1697 11887 -11518
49623 301143 284115 -1749 11899 -11540
49611 301093 284047 -1782 11890 -11543
49597 301051 283979 -1772 11927 -11570
49592 301053 283963 -1758 11948 -11592
49592 301074 283961 -1742 11925 -11564
49589 301082 283952 -1726 11922 -11551
49590 301103 283953 -1733 11930 -11557
49599 301148 283976 -1750 11909 -11564
49605 301188 284001 -1748 11867 -11556
49614 301215 284008 -1738 11862 -11551
49621 301245 284021 -1734 11871 -11584
49639 301305 284074 -1739 11881 -11621
49663 301382 284145 -1745 11885 -11640
49676 301416 284157 -1743 11859 -11632
49688 301449 284177 -1747 11856 -11623
49704 301487 284197 -1747 11880 -11630
49724 301545 284245 -1742 11868 -11642
49744 301581 284277 -1762 11851 -11637
49756 301598 284286 -1773 11825 -11621
49765 301582 284256 -1754 11817 -11616
49777 301496 284199 -1747 11841 -11616
49778 301334 284101 -1759 11853 -11598
49783 301234 284072 -1772 11872 -11588
49782 301157 284046 -1755 11894 -11621
49773 301107 284027 -1715 11886 -11662
49770 301120 284045 -1733 11884 -11676
49767 301169 284084 -1773 11875 -11678
49766 301203 284103 -1755 11850 -11680
49760 301220 284104 -1726 11820 -11637
49756 301249 284109 -1730 11787 -11590
49764 301270 284136 -1753 11793 -11575
49759 301289 284138 -1772 11827 -11575
49776 301406 284230 -1776 11867 -11599
49785 301443 284255 -1760 11879 -11620
49792 301437 284250 -1746 11856 -11624
49800 301458 284275 -1769 11862 -11630
49806 301471 284294 -1776 11884 -11634
49813 301481 284298 -1733 11900 -11627
49814 301478 284304 -1802 11850 -11591
49818 301479 284304 -1804 11865 -11606
49823 301508 284330 -1772 11887 -11609
49827 301527 284349 -1756 11897 -11616
49824 301514 284330 -1758 11906 -11622
49824 301503 284302 -1762 11889 -11619
49820 301492 284268 -1769 11877 -11603
49820 301491 284245 -1767 11893 -11600
49823 301503 284241 -1753 11899 -11594
49822 301499 284238 -1735 11844 -11543
49826 301513 284237 -1737 11824 -11563
49835 301526 284243 -1745 11821 -11596
49838 301550 284254 -1759 11832 -11617
49848 301561 284258 -1760 11844 -11638
49852 301566 284246 -1760 11854 -11646
49873 301637 284299 -1769 11866 -11635
49887 301674 284315 -1760 11891 -11635
49893 301671 284302 -1745 11891 -11646
49896 301634 284250 -1764 11849 -11624
49901 301571 284205 -1782 11819 -11594
49899 301420 284116 -1783 11834 -11622
49893 301288 284047 -1769 11864 -11656
49878 301185 283998 -1738 11852 -11678
49863 301125 283945 -1760 11854 -11678
49849 301112 283957 -1785 11875 -11635
49845 301168 284008 -1749 11842 -11617
49839 301211 284019 -1731 11816 -11613
49831 301229 284023 -1755 11815 -11600
49822 301216 283976 -1782 11791 -11596
49810 301208 283955 -1788 11761 -11593
49803 301228 283951 -1767 11789 -11613
49804 301290 283978 -1728 11868 -11622
49798 301277 283938 -1732 11898 -11654
49794 301250 283918 -1774 11887 -11671
49794 301251 283906 -1745 11862 -11649
49794 301239 283892 -1703 11851 -11646
49797 301221 283887 -1729 11841 -11636
49798 301211 283908 -1756 11820 -11646
49804 301200 283964 -1751 11817 -11676
49818 301181 284027 -1692 11774 -11714
49830 301131 284110 -1703 11788 -11774
49848 301077 284207 -1718 11787 -11809
49911 301237 284651 -1733 11842 -11949
50039 301807 285629 -1756 12078 -12322
50207 303053 287169 -1784 12426 -12598
50377 304311 288688 -1862 12527 -12508
50541 305628 290013 -1887 12315 -11957
50732 306884 291133 -1737 12042 -11329
50874 307555 291768 -1930 11769 -10658
50971 308138 292262 -2075 11845 -10319
51003 308323 292410 -2049 11817 -10018
51024 308431 292485 -1919 11897 -10106
51019 308474 292476 -1789 12047 -10390
51010 308551 292451 -1764 12155 -10593
51016 308772 292567 -1860 12262 -10704
51019 308929 292605 -1955 12284 -10572
51005 309113 292650 -2043 12176 -10558
51010 309450 292796 -2189 11873 -11119
50993 309675 292858 -2192 11894 -11329
50988 310038 293090 -2367 11872 -11884
51003 310597 293461 -2376 11743 -11880
51002 311266 293733 -2324 11693 -11564
50949 311683 293763 -2342 11693 -11567
50908 312262 293873 -2313 11751 -11699
50866 312912 294037 -2491 11675 -11853
50840 313632 294315 -2630 11614 -11711
50810 314353 294571 -2566 11587 -11641
50780 315035 294822 -2458 11564 -11635
50741 315504 294975 -2436 11638 -11605
50694 315806 295066 -2604 11701 -11482
50638 316055 295172 -2543 11792 -11190
50579 316128 295206 -2314 11736 -10878
50486 315848 295091 -2308 11457 -10728
50365 315215 294802 -2261 11253 -10980
50269 314648 294596 -2136 11498 -11365
50189 314180 294386 -2047 11924 -11456
50085 313406 293927 -1983 12120 -11508
49992 312686 293529 -1932 12112 -11668
49923 312205 293225 -1872 11983 -11714
49842 311653 292800 -1878 11871 -11649
49769 311221 292458 -1915 11868 -11574
49706 310894 292192 -1902 11968 -11553
49653 310670 291969 -1859 12063 -11522
49602 310462 291758 -1840 12060 -11444
49554 310274 291549 -1860 12045 -11366
49519 310150 291398 -1837 12061 -11330
49483 310028 291234 -1805 12018 -11315
49445 309898 291086 -1862 11997 -11351
49423 309886 291029 -1890 12063 -11381
49401 309855 290973 -1851 12135 -11372
49385 309838 290928 -1818 12136 -11343
49364 309766 290831 -1790 12065 -11342
49338 309646 290710 -1782 12033 -11382
49305 309513 290593 -1770 12045 -11411
49261 309375 290466 -1765 12044 -11432
49205 309212 290326 -1779 12061 -11431
49150 309117 290239 -1750 12101 -11441
49108 309087 290220 -1862 11997 -11351
49063 309062 290189 -1890 12063 -11381
49019 309040 290163 -1851 12135 -11372
48983 309019 290120 -1818 12136 -11343
48946 308985 290082 -1790 12065 -11342
48914 308962 290060 -1782 12033 -11382
48881 308926 290003 -1770 12045 -11411
48852 308909 289980 -1765 12044 -11432
48826 308846 289906 -1779 12061 -11431
48800 308777 289835 -1750 12101 -11441
48775 308729 289788 -1647 11960 -11392
48751 308701 289767 -1701 11963 -11430
48724 308646 289713 -1723 11998 -11468
48694 308588 289649 -1735 11991 -11468
48671 308535 289610 -1735 11998 -11458
48644 308470 289554 -1707 12021 -11408
48614 308365 289453 -1720 12034 -11423
48587 308259 289365 -1769 12040 -11432
48563 308182 289312 -1745 12017 -11395
48547 308165 289298 -1695 12006 -11430
48539 308175 289303 -1711 12034 -11477
48526 308146 289267 -1753 12023 -11479
48514 308104 289246 -1765 12003 -11444
48502 308055 289203 -1749 12029 -11449
48492 308012 289150 -1745 12033 -11463
48485 308008 289125 -1753 12006 -11453
48482 307964 289091 -1763 12002 -11449
48472 307894 289027 -1771 12007 -11452
48464 307820 288966 -1773 11999 -11462
48442 307670 288837 -1772 11981 -11485
48416 307465 288689 -1771 11927 -11494
48387 307369 288635 -1761 11914 -11500
48353 307285 288589 -1759 11920 -11483
48316 307195 288545 -1782 11923 -11471
48284 307154 288502 -1788 11965 -11500
48251 307110 288475 -1771 11960 -11506
48222 307084 288450 -1766 11927 -11490
48193 307025 288404 -1776 11945 -11489
48171 306988 288378 -1795 11972 -11515
48153 306967 288365 -1773 11939 -11514
48136 306900 288310 -1726 11887 -11514
48125 306895 288297 -1741 11898 -11573
48115 306822 288227 -1773 11943 -11624
48098 306743 288166 -1771 11943 -11641
48085 306669 288101 -1753 11898 -11641
48075 306624 288065 -1748 11878 -11614
48065 306594 288057 -1768 11855 -11589
48064 306655 288106 -1778 11821 -11588
48064 306670 288126 -1766 11829 -11617
48054 306632 288096 -1750 11828 -11607
48049 306605 288063 -1767 11773 -11609
48045 306606 288063 -1803 11799 -11642
48045 306602 288055 -1765 11842 -11655
48042 306573 288051 -1704 11794 -11678
48054 306639 288082 -1724 11784 -11700
48058 306632 288082 -1769 11815 -11723
48059 306616 288071 -1778 11821 -11719
48063 306620 288072 -1752 11805 -11701
48073 306643 288076 -1729 11809 -11700
48084 306656 288086 -1734 11810 -11683
48098 306718 288145 -1699 11772 -11645
48114 306783 288184 -1719 11797 -11687
48123 306780 288159 -1723 11754 -11698
48130 306717 288112 -1712 11760 -11717
48136 306645 288050 -1710 11788 -11726
48129 306491 287961 -1719 11747 -11727
48113 306373 287904 -1719 11727 -11752
48102 306316 287870 -1723 11729 -11763
48089 306308 287880 -1746 11726 -11780
48076 306328 287907 -1718 11669 -11754
48062 306335 287930 -1702 11674 -11738
48050 306331 287925 -1720 11670 -11736
48039 306347 287928 -1736 11683 -11765
48034 306314 287902 -1718 11725 -11808
48029 306337 287930 -1676 11721 -11844
48032 306385 287975 -1693 11715 -11865
48040 306461 288021 -1716 11702 -11839
48038 306417 287989 -1687 11688 -11819
48039 306382 287960 -1685 11668 -11772
48041 306380 287964 -1697 11661 -11792
48043 306412 287982 -1719 11670 -11820
48055 306459 288033 -1724 11661 -11837
48061 306497 288079 -1693 11687 -11801
48063 306529 288090 -1691 11701 -11820
48067 306557 288124 -1724 11711 -11837
48074 306569 288130 -1687 11701 -11810
48075 306550 288118 -1653 11679 -11838
48079 306545 288102 -1689 11701 -11831
48091 306556 288121 -1723 11695 -11817
48101 306594 288138 -1726 11675 -11793
48110 306593 288135 -1700 11664 -11771
48119 306607 288149 -1681 11694 -11780
48124 306584 288131 -1702 11729 -11776
48131 306587 288126 -1732 11711 -11752
48139 306605 288144 -1739 11690 -11760
48154 306599 288145 -1729 11714 -11779
48164 306604 288144 -1716 11734 -11775
48180 306621 288163 -1722 11717 -11785
48195 306637 288155 -1731 11707 -11776
48197 306504 288064 -1726 11688 -11731
48191 306386 287998 -1719 11672 -11712
48180 306317 287965 -1733 11720 -11719
48168 306236 287929 -1744 11745 -11734
48153 306216 287926 -1735 11705 -11748
48143 306238 287962 -1737 11676 -11715
48141 306285 288002 -1751 11736 -11719
48134 306303 288030 -1772 11785 -11756
48131 306339 288061 -1744 11733 -11760
48139 306427 288130 -1717 11700 -11754
48144 306457 288162 -1727 11721 -11759
48159 306563 288249 -1696 11712 -11774
48175 306587 288268 -1698 11705 -11772
48182 306563 288254 -1724 11686 -11776
48192 306558 288252 -1741 11667 -11790
48200 306554 288260 -1745 11697 -11801
48209 306562 288261 -1749 11730 -11811
48218 306572 288280 -1740 11725 -11779
48225 306581 288279 -1772 11715 -11692
48230 306576 288274 -1721 11697 -11674
48237 306564 288253 -1705 11723 -11709
48244 306556 288229 -1727 11779 -11737
48250 306564 288224 -1733 11771 -11736
48263 306588 288236 -1725 11741 -11713
48276 306615 288255 -1712 11741 -11701
48289 306649 288272 -1715 11737 -11712
48300 306661 288257 -1728 11752 -11723
48314 306680 288268 -1716 11730 -11696
48328 306704 288275 -1716 11722 -11718
48348 306769 288322 -1730 11722 -11739
48364 306824 288350 -1736 11729 -11762
48381 306844 288356 -1731 11730 -11751
48394 306819 288332 -1717 11725 -11748
48407 306781 288305 -1720 11736 -11756
48408 306647 288191 -1735 11768 -11774
48412 306553 288140 -1731 11765 -11777
48408 306509 288146 -1725 11716 -11684
48402 306457 288122 -1757 11737 -11691
48392 306436 288126 -1766 11760 -11743
48385 306467 288137 -1705 11757 -11767
48381 306485 288156 -1677 11758 -11790
48382 306510 288175 -1724 11784 -11783
48381 306527 288200 -1728 11800 -11779
48385 306555 288224 -1713 11763 -11771
48390 306588 288247 -1716 11718 -11754
48397 306632 288267 -1729 11694 -11748
48405 306629 288258 -1742 11680 -11729
48417 306634 288253 -1744 11713 -11716
48424 306648 288279 -1727 11747 -11726
48431 306654 288272 -1718 11758 -11711
48434 306646 288261 -1752 11782 -11699
48435 306628 288224 -1748 11804 -11677
48444 306611 288221 -1679 11803 -11684
48453 306637 288237 -1690 11796 -11702
48464 306683 288276 -1760 11786 -11703
48474 306714 288294 -1759 11772 -11710
48485 306712 288297 -1699 11765 -11667
48493 306720 288288 -1671 11758 -11655
48503 306732 288291 -1704 11752 -11684
48515 306729 288290 -1731 11772 -11698
48522 306715 288259 -1731 11790 -11704
48533 306723 288246 -1721 11795 -11712
48546 306710 288230 -1724 11785 -11724
48564 306740 288237 -1742 11762 -11731
48577 306755 288245 -1744 11757 -11730
48600 306810 288274 -1731 11751 -11737
48621 306874 288323 -1713 11710 -11725
48637 306906 288340 -1706 11677 -11722
48652 306896 288316 -1710 11685 -11770
48664 306827 288273 -1729 11720 -11787
48662 306661 288151 -1748 11762 -11808
48661 306527 288091 -1736 11759 -11821
48657 306473 288065 -1728 11752 -11782
48654 306437 288053 -1746 11735 -11751
48647 306432 288068 -1768 11712 -11754
48643 306441 288079 -1729 11705 -11783
48637 306475 288109 -1718 11671 -11814
48638 306502 288137 -1755 11701 -11827
48639 306524 288158 -1716 11690 -11813
48640 306569 288190 -1685 11663 -11777
48647 306624 288238 -1700 11666 -11755
48654 306668 288262 -1736 11647 -11766
48660 306705 288266 -1746 11632 -11792
48659 306655 288238 -1728 11666 -11798
48665 306650 288234 -1704 11707 -11802
48671 306660 288244 -1787 11689 -11761
48674 306664 288224 -1784 11667 -11764
48679 306653 288237 -1690 11686 -11798
48680 306656 288227 -1684 11709 -11823
48687 306672 288247 -1738 11687 -11837
48696 306679 288244 -1751 11677 -11848
48699 306670 288237 -1720 11676 -11832
48705 306678 288238 -1698 11674 -11812
48714 306678 288213 -1706 11674 -11831
48718 306634 288178 -1707 11652 -11827
48725 306593 288121 -1696 11639 -11802
48731 306554 288079 -1690 11642 -11809
48735 306477 288002 -1697 11634 -11811
48736 306368 287907 -1705 11625 -11819
48742 306267 287816 -1705 11626 -11846
48741 306089 287667 -1701 11587 -11851
48736 305835 287487 -1698 11560 -11854
48740 305634 287374 -1700 11591 -11898
48801 305927 287768 -1717 11613 -11893
48924 306703 288647 -1748 11587 -11859
49063 307612 289756 -1769 11579 -11897
49235 308705 291036 -1768 11772 -12155
49451 310068 292337 -1774 12144 -12597
49657 311326 293430 -1888 12308 -12700
49793 312274 294136 -1987 12306 -12488
49871 312942 294563 -1893 12381 -12000
49925 313438 294865 -1765 12267 -11340
49900 313310 294706 -1805 11824 -10871
49874 313335 294673 -2035 11521 -10414
49832 313349 294553 -2101 11558 -10345
49785 313361 294386 -1904 11772 -10094
49743 313421 294313 -1850 11980 -10245
49707 313502 294254 -1846 12015 -10541
49667 313605 294254 -1872 12078 -10703
49651 313831 294357 -2165 12212 -10736
49646 314159 294539 -2393 12153 -10716
49668 314663 294867 -2363 11867 -10762
49696 315233 295238 -2296 11831 -11056
49694 315620 295393 -2234 12015 -11409
49670 315942 295452 -2166 12064 -11696
49653 316379 295503 -2052 11976 -11624
49635 317097 295640 -2141 11838 -11633
49624 318031 295924 -2381 11732 -11820
49586 318734 296028 -2338 11739 -11838
49518 318894 295884 -2181 11794 -11729
49444 318750 295664 -2162 11793 -11641
49366 318405 295426 -2238 11644 -11641
49286 317927 295133 -2238 11559 -11485
49218 317408 294882 -2112 11595 -11354
49150 316798 294615 -2233 11472 -11197
49072 316033 294192 -2105 11484 -11265
48994 315285 293737 -1986 11690 -11429
48952 314906 293549 -1924 11888 -11390
48908 314498 293264 -1916 11925 -11267
48855 314036 292915 -1896 11971 -11500
48827 313821 292757 -1846 12076 -11748
48814 313681 292637 -1802 12007 -11793
48783 313430 292413 -1798 11871 -11799
48753 313210 292201 -1885 11910 -11756
48731 313073 292053 -1954 11928 -11621
48716 312895 291893 -1918 11777 -11425
48688 312665 291677 -1857 11761 -11380
48668 312485 291510 -1826 11964 -11486
48653 312352 291394 -1811 12065 -11520
48635 312236 291307 -1820 12004 -11480
48609 312090 291187 -1833 11980 -11502
48585 312016 291121 -1801 12007 -11563
48560 311932 291045 -1767 11992 -11601
48528 311801 290926 -1799 11950 -11594
48500 311675 290803 -1844 11925 -11608
48476 311548 290688 -1817 11911 -11587
48453 311459 290611 -1789 11876 -11525
48443 311438 290591 -1802 11844 -11530
48432 311401 290548 -1811 11860 -11548
48421 311332 290499 -1818 11921 -11558
48412 311258 290436 -1807 11955 -11581
48409 311216 290391 -1779 11943 -11575
48406 311190 290377 -1799 11905 -11583
48401 311143 290335 -1838 11864 -11538
48392 311063 290286 -1788 11842 -11472
48382 311011 290246 -1759 11879 -11505
48379 310986 290227 -1806 11899 -11535
48376 310934 290191 -1825 11881 -11518
48367 310873 290132 -1815 11923 -11516
48364 310807 290083 -1804 11965 -11528
48358 310741 290026 -1804 11931 -11505
48451 310634 289916 -1831 11940 -11577
48453 310542 289848 -1842 11907 -11518
48451 310405 289756 -1879 11877 -11475
48442 310306 289699 -1882 11889 -11493
48435 310226 289667 -1815 11910 -11504
48423 310159 289624 -1775 11929 -11556
48416 310106 289600 -1798 11938 -11599
48405 310054 289562 -1818 11914 -11581
48402 310026 289547 -1816 11906 -11567
48399 309976 289519 -1811 11893 -11550
48395 309936 289498 -1811 11893 -11534
48399 309939 289495 -1822 11885 -11517
48400 309908 289455 -1854 11856 -11507
48405 309909 289429 -1811 11896 -11523
48402 309817 289352 -1828 11894 -11543
48409 309802 289333 -1863 11902 -11540
48422 309813 289350 -1812 11951 -11527
48429 309784 289329 -1781 11970 -11546
48435 309773 289316 -1817 11957 -11530
48444 309790 289328 -1853 11922 -11512
48456 309786 289331 -1846 11925 -11503
48463 309784 289334 -1824 11916 -11501
48473 309755 289316 -1832 11872 -11493
48480 309748 289312 -1831 11876 -11513
48491 309718 289287 -1831 11907 -11535
48502 309693 289269 -1843 11921 -11528
48510 309663 289244 -1825 11927 -11535
48521 309650 289233 -1806 11922 -11545
48533 309627 289213 -1813 11918 -11532
48546 309646 289214 -1819 11898 -11543
48564 309662 289232 -1789 11896 -11576
48581 309689 289248 -1770 11901 -11581
48599 309718 289264 -1818 11837 -11571
48619 309751 289285 -1849 11800 -11588
48637 309782 289296 -1828 11835 -11584
48654 309795 289309 -1810 11842 -11575
48674 309839 289328 -1799 11839 -11603
48694 309885 289352 -1813 11859 -11620
48714 309891 289356 -1831 11881 -11629
48724 309882 289327 -1816 11875 -11607
48735 309813 289279 -1803 11869 -11576
48737 309694 289171 -1821 11846 -11567
48734 309591 289114 -1872 11823 -11589
48727 309526 289080 -1782 11837 -11644
48721 309473 289036 -1787 11855 -11709
48716 309448 289032 -1830 11849 -11709
48718 309474 289061 -1819 11854 -11694
48723 309518 289095 -1782 11841 -11685
48725 309549 289118 -1774 11803 -11668
48728 309563 289127 -1791 11768 -11660
48734 309581 289131 -1807 11775 -11656
48744 309612 289152 -1810 11756 -11615
48755 309654 289173 -1806 11770 -11612
48768 309726 289212 -1842 11800 -11623
48779 309732 289203 -1840 11812 -11632
48793 309749 289214 -1797 11776 -11661
48802 309761 289229 -1800 11783 -11691
48807 309745 289212 -1839 11811 -11701
48819 309743 289222 -1838 11792 -11697
48826 309740 289213 -1809 11763 -11688
48836 309756 289232 -1802 11736 -11668
48840 309772 289227 -1803 11751 -11675
48848 309785 289230 -1794 11793 -11655
48856 309782 289231 -1789 11811 -11658
48870 309811 289245 -1796 11815 -11685
48883 309829 289258 -1800 11793 -11694
48892 309840 289266 -1794 11777 -11679
48906 309859 289275 -1783 11739 -11658
48925 309885 289306 -1782 11718 -11664
48943 309952 289338 -1791 11728 -11689
48955 309969 289354 -1806 11703 -11691
48971 309970 289343 -1808 11693 -11686
48982 309960 289337 -1800 11714 -11694
48992 309938 289320 -1800 11729 -11699
49008 309942 289317 -1810 11764 -11716
49020 309958 289330 -1808 11804 -11730
49037 309972 289340 -1796 11767 -11737
49049 309942 289322 -1797 11714 -11724
49056 309907 289282 -1802 11707 -11715
49061 309821 289217 -1804 11711 -11724
49060 309679 289120 -1772 11661 -11731
49058 309634 289106 -1751 11665 -11791
49056 309575 289075 -1783 11721 -11801
49041 309484 289036 -1786 11718 -11781
49032 309463 289026 -1762 11698 -11774
49026 309436 289023 -1759 11690 -11739
49025 309443 289042 -1775 11700 -11734
49022 309429 289025 -1795 11655 -11745
49017 309424 289024 -1805 11627 -11762
49016 309438 289029 -1783 11661 -11777
49017 309408 289016 -1766 11657 -11744
49031 309471 289059 -1804 11697 -11733
49039 309485 289060 -1825 11754 -11733
49047 309491 289064 -1778 11732 -11740
49061 309499 289078 -1763 11716 -11749
49070 309497 289072 -1810 11723 -11750
49078 309479 289069 -1831 11695 -11755
49083 309481 289070 -1808 11675 -11746
49094 309519 289114 -1785 11708 -11759
49107 309550 289147 -1784 11712 -11775
49120 309603 289180 -1766 11657 -11744
49135 309648 289206 -1804 11697 -11733
49149 309703 289267 -1825 11754 -11733
49166 309761 289311 -1778 11732 -11740
49178 309800 289357 -1763 11716 -11749
49196 309859 289398 -1810 11723 -11750
49213 309880 289411 -1831 11695 -11755
49224 309903 289412 -1808 11675 -11746
49235 309906 289430 -1785 11708 -11759
49246 309912 289424 -1784 11712 -11775
49255 309915 289426 -1825 11702 -11728
49266 309918 289418 -1804 11734 -11731
49280 309935 289432 -1788 11724 -11741
49293 309935 289441 -1792 11697 -11728
49303 309925 289439 -1810 11707 -11716
49315 309939 289427 -1809 11709 -11729
49326 309881 289385 -1797 11686 -11730
49324 309759 289309 -1800 11677 -11721
49320 309678 289262 -1803 11705 -11729
49312 309645 289253 -1808 11706 -11720
49307 309608 289236 -1822 11702 -11722
49298 309588 289234 -1819 11753 -11751
49294 309605 289240 -1793 11749 -11761
49285 309583 289234 -1785 11727 -11743
49285 309589 289237 -1802 11765 -11713
49281 309578 289225 -1816 11769 -11730
49282 309587 289238 -1803 11723 -11755
49280 309607 289242 -1757 11694 -11770
49289 309655 289283 -1778 11727 -11795
49295 309671 289283 -1794 11687 -11731
49303 309671 289286 -1752 11680 -11710
49307 309672 289285 -1770 11685 -11708
49315 309681 289302 -1804 11680 -11718
49317 309683 289309 -1819 11686 -11737
49329 309722 289334 -1813 11701 -11754
49334 309745 289346 -1791 11729 -11733
49341 309768 289378 -1800 11727 -11744
49345 309781 289382 -1834 11766 -11763
49353 309795 289388 -1809 11768 -11739
49362 309817 289404 -1788 11709 -11720
49369 309840 289420 -1804 11724 -11714
49380 309867 289424 -1815 11744 -11718
49390 309874 289425 -1807 11756 -11704
49398 309884 289431 -1791 11773 -11696
49409 309900 289428 -1786 11766 -11693
49419 309896 289424 -1791 11760 -11692
49434 309923 289444 -1805 11759 -11686
49448 309949 289462 -1805 11758 -11685
49457 309958 289462 -1804 11771 -11686
49469 309986 289479 -1813 11755 -11669
49480 309972 289470 -1819 11730 -11662
49489 309961 289444 -1818 11727 -11674
49498 309929 289397 -1811 11725 -11684
49498 309844 289343 -1801 11727 -11708
49497 309724 289268 -1798 11723 -11723
49491 309662 289246 -1794 11729 -11725
49479 309595 289207 -1802 11744 -11721
49464 309530 289191 -1825 11759 -11730
49450 309508 289184 -1819 11784 -11728
49442 309508 289178 -1806 11714 -11625
49435 309498 289181 -1827 11743 -11635
49424 309499 289183 -1821 11750 -11689
49421 309498 289185 -1785 11745 -11713
49419 309504 289203 -1780 11736 -11743
49422 309514 289204 -1828 11751 -11778
49427 309550 289244 -1826 11728 -11775
49428 309515 289211 -1777 11701 -11749
49428 309506 289189 -1768 11711 -11730
49430 309483 289179 -1839 11680 -11718
49428 309457 289154 -1891 11636 -11716
49424 309392 289094 -1863 11661 -11735
49420 309347 289072 -1823 11705 -11740
49421 309338 289071 -1800 11731 -11721
49422 309326 289077 -1823 11741 -11735
49425 309308 289064 -1834 11750 -11731
49418 309209 288993 -1788 11730 -11714
49417 309105 288920 -1776 11726 -11716
49432 309147 288989 -1815 11733 -11708
49493 309545 289407 -1834 11701 -11679
49629 310341 290264 -1801 11751 -11690
49796 311083 291238 -1799 11751 -11727
49964 311704 292081 -1811 11726 -11744
50152 312667 293084 -1802 11694 -11747
50335 314007 294205 -1778 11707 -11767
50496 315367 295249 -1773 11780 -11825
50624 316446 296066 -1795 11946 -12054
50697 317029 296466 -1851 12352 -12519
50679 316877 296345 -2094 12736 -12617
50667 316929 296349 -2148 12744 -12064
50675 317245 296479 -1905 12544 -11389
50680 317501 296511 -1843 12134 -10855
50679 317805 296573 -1878 11685 -10541
50686 318197 296696 -2024 11656 -10404
50691 318619 296841 -2145 11736 -10261
50670 318899 296880 -2013 11793 -9952
50636 319103 296932 -1863 12050 -9758
50604 319321 297008 -1826 12228 -10071
50593 319577 297188 -1982 12272 -10506
50579 319847 297337 -2238 12257 -10656
50556 320103 297458 -2229 12254 -10647
50533 320356 297572 -2032 12285 -10821
50494 320479 297582 -1902 12173 -10951
50445 320464 297494 -1921 12103 -10786
50386 320363 297354 -2082 12211 -10790
50325 320215 297197 -2220 12293 -10982
50250 319911 296956 -2159 12288 -11053
50154 319354 296544 -1999 12297 -10933
50022 318355 295912 -1999 12259 -10860
49898 317272 295292 -2139 12089 -10919
49812 316502 294895 -2213 12006 -10967
49734 315852 294499 -2202 12066 -10905
49640 315069 293961 -2110 12131 -10821
49589 314622 293665 -2081 12130 -10803
49553 314407 293514 -2195 12065 -10757
49522 314167 293338 -2151 11899 -10683
49486 313883 293123 -1998 11653 -10629
49454 313627 292904 -1918 11646 -10814
49424 313447 292737 -1952 11996 -11181
49398 313315 292613 -1882 12392 -11364
49375 313191 292475 -1793 12274 -11551
49362 313143 292424 -1813 12233 -11737
49353 313122 292376 -1875 12239 -11615
49332 312981 292232 -1884 12130 -11396
49306 312844 292096 -1838 12018 -11258
49296 312745 292000 -1843 12051 -11177
49267 312598 291849 -1866 12121 -11151
49235 312435 291699 -1860 12095 -11159
49200 312339 291605 -1882 12107 -11325
49168 312238 291502 -1877 12094 -11329
49125 312111 291377 -1911 12054 -11218
48878 311179 290565 -1853 12012 -11454
48867 311095 290492 -1844 12004 -11440
48852 310984 290403 -1894 12002 -11447
48841 310926 290361 -1910 12010 -11459
48836 310883 290352 -1848 11999 -11461
48832 310850 290328 -1853 11989 -11470
48829 310857 290342 -1933 11948 -11449
48834 310852 290358 -1959 11915 -11442
48837 310859 290365 -1915 11941 -11458
48840 310868 290385 -1874 11965 -11500
48839 310290 289971 -1883 11887 -11503
48823 310196 289910 -1890 11901 -11456
48804 310128 289871 -1898 11902 -11478
48786 310090 289860 -1887 11910 -11523
48772 310051 289839 -1838 11896 -11544
48756 309995 289809 -1848 11872 -11563
48750 309994 289818 -1930 11860 -11544
48747 310015 289842 -1944 11840 -11551
48747 310020 289852 -1888 11851 -11568
48748 310030 289868 -1851 11854 -11566
48752 310027 289865 -1857 11836 -11562
48749 309964 289818 -1881 11851 -11566
48748 309948 289809 -1885 11856 -11576
48753 309951 289823 -1859 11861 -11569
48760 309970 289837 -1844 11869 -11548
48763 309971 289850 -1891 11868 -11535
48762 309960 289846 -1926 11858 -11518
48763 309935 289842 -1880 11860 -11523
48766 309930 289848 -1856 11905 -11552
48767 309925 289842 -1872 11918 -11566
48777 309948 289859 -1879 11890 -11556
48778 309966 289879 -1864 11846 -11541
48785 309998 289900 -1838 11827 -11567
48798 310046 289923 -1813 11871 -11569
48808 310094 289970 -1820 11874 -11562
48824 310147 290008 -1846 11850 -11588
48836 310201 290039 -1862 11840 -11585
48852 310239 290040 -1862 11834 -11584
48867 310297 290095 -1836 11820 -11616
48883 310346 290112 -1825 11783 -11655
48894 310354 290112 -1819 11791 -11673
48906 310364 290111 -1801 11809 -11674
48920 310382 290113 -1807 11796 -11664
48915 310300 290056 -1832 11799 -11666
48904 310222 289999 -1833 11816 -11684
48891 310159 289961 -1825 11802 -11684
48875 310119 289936 -1863 11717 -11599
48863 310125 289946 -1857 11759 -11659
48856 310171 289991 -1808 11794 -11687
48851 310206 290021 -1798 11795 -11725
48845 310223 290012 -1836 11763 -11740
48836 310212 290005 -1845 11748 -11743
48833 310231 290015 -1817 11753 -11721
48836 310260 290038 -1803 11749 -11679
48842 310306 290071 -1823 11747 -11667
48840 310256 290017 -1879 11738 -11651
48840 310241 290001 -1903 11717 -11651
48838 310223 289978 -1853 11742 -11656
48844 310245 290007 -1827 11781 -11654
48843 310256 290026 -1861 11814 -11662
48847 310268 290021 -1864 11833 -11643
48844 310249 290005 -1812 11833 -11638
48842 310228 290001 -1794 11825 -11640
48840 310202 289980 -1817 11823 -11639
48849 310243 290010 -1830 11816 -11646
48857 310286 290048 -1800 11741 -11633
48865 310290 290040 -1789 11765 -11655
48866 310277 290027 -1793 11775 -11666
48872 310281 290029 -1813 11779 -11679
48875 310263 290013 -1822 11799 -11717
48884 310274 290024 -1824 11802 -11733
48900 310332 290057 -1814 11769 -11731
48912 310348 290076 -1803 11722 -11726
48924 310383 290092 -1805 11681 -11713
48937 310379 290094 -1821 11645 -11694
48951 310386 290086 -1842 11647 -11665
48957 310342 290047 -1835 11676 -11657
48958 310278 289984 -1815 11727 -11697
48951 310145 289880 -1801 11744 -11714
48944 310089 289852 -1808 11729 -11669
48936 310050 289823 -1823 11751 -11623
48914 309979 289786 -1827 11796 -11655
48900 309967 289778 -1811 11802 -11688
48892 309996 289817 -1772 11762 -11695
48886 310018 289843 -1792 11762 -11721
48882 310024 289864 -1841 11761 -11689
48876 310030 289866 -1821 11733 -11669
48877 310044 289879 -1786 11732 -11697
48875 310056 289894 -1790 11696 -11725
48884 310104 289927 -1820 11662 -11766
48891 310087 289931 -1831 11666 -11774
48894 310103 289939 -1801 11688 -11769
48900 310100 289947 -1779 11694 -11753
48905 310126 289979 -1832 11682 -11779
48909 310139 289993 -1858 11692 -11815
48910 310149 290016 -1746 11649 -11791
48915 310162 290048 -1795 11694 -11799
48921 310183 290051 -1821 11689 -11810
48926 310203 290074 -1812 11672 -11816
48931 310236 290109 -1779 11672 -11815
48938 310247 290121 -1776 11692 -11801
48946 310262 290126 -1810 11695 -11782
48950 310263 290130 -1826 11698 -11783
48959 310286 290147 -1814 11701 -11788
48965 310301 290156 -1818 11678 -11738
48978 310321 290179 -1808 11680 -11722
48988 310353 290187 -1796 11685 -11705
48998 310373 290204 -1787 11696 -11710
49009 310409 290236 -1791 11720 -11720
49024 310408 290240 -1796 11742 -11718
49026 310383 290212 -1800 11781 -11723
49035 310368 290192 -1794 11777 -11717
49035 310282 290103 -1793 11764 -11698
49026 310208 290069 -1862 11759 -11654
49014 310151 290048 -1837 11761 -11682
48998 310119 290031 -1770 11744 -11724
48985 310087 290031 -1778 11774 -11768
48968 310080 290026 -1820 11785 -11741
48960 310088 290044 -1799 11759 -11719
48950 310113 290063 -1764 11756 -11695
48945 310125 290083 -1765 11750 -11671
48944 310150 290092 -1800 11723 -11667
48939 310164 290101 -1831 11703 -11672
48941 310211 290137 -1825 11699 -11670
48941 310169 290110 -1786 11725 -11644
48942 310145 290091 -1797 11773 -11664
48946 310150 290089 -1844 11806 -11672
48948 310180 290110 -1802 11797 -11665
48954 310220 290140 -1753 11791 -11683
48955 310233 290156 -1785 11800 -11686
48958 310264 290171 -1825 11795 -11715
48964 310312 290208 -1819 11793 -11729
48972 310356 290232 -1783 11796 -11707
48975 310383 290240 -1787 11776 -11668
48983 310395 290247 -1815 11745 -11644
48991 310425 290262 -1813 11757 -11650
48994 310431 290266 -1794 11771 -11652
49001 310460 290269 -1779 11791 -11679
49007 310466 290263 -1781 11804 -11693
49012 310465 290252 -1792 11785 -11674
49057 310139 289933 -1827 11738 -11674
49041 310048 289871 -1788 11750 -11694
49018 309954 289809 -1754 11718 -11712
48991 309897 289766 -1801 11716 -11731
48969 309857 289723 -1833 11726 -11758
48958 309845 289719 -1800 11711 -11783
48942 309819 289701 -1771 11701 -11781
48934 309791 289683 -1776 11688 -11766
48926 309777 289665 -1795 11661 -11741
48916 309732 289634 -1796 11666 -11752
48909 309704 289591 -1786 11708 -11788
48902 309668 289567 -1771 11726 -11773
48897 309614 289524 -1849 11666 -11740
48896 309600 289512 -1818 11688 -11742
48896 309568 289498 -1769 11702 -11782
48890 309568 289484 -1788 11703 -11793
48888 309557 289486 -1810 11690 -11788
48886 309555 289467 -1807 11673 -11776
48882 309536 289464 -1782 11663 -11769
48887 309535 289472 -1766 11658 -11775
48884 309505 289436 -1765 11659 -11796
48884 309478 289422 -1770 11666 -11805
48891 309524 289482 -1779 11674 -11827
48907 309601 289553 -1784 11734 -11886
48916 309623 289618 -1788 11796 -11902
48953 309827 289857 -1805 11754 -11827
49031 310289 290369 -1808 11831 -11874
49164 310961 291180 -1790 12113 -12141
49345 311662 292111 -1824 12463 -12439
49531 312358 293009 -1900 12760 -12402
49705 313401 293998 -1886 12731 -11788
49873 314645 295067 -1809 12139 -11044
49993 315622 295779 -1831 11489 -10679
50094 316508 296387 -2021 11482 -10428
50142 316909 296622 -2099 11749 -10299
50161 317085 296684 -2024 11850 -10231
50160 317190 296639 -1947 11973 -10118
50156 317339 296562 -1788 12189 -10195
50181 317711 296639 -1734 12327 -10271
50203 318115 296729 -1861 12341 -10370
50210 318503 296844 -2015 12324 -10575
50207 318868 296999 -2028 12285 -10727
50190 319171 297105 -1982 12175 -10778
50163 319430 297227 -1979 12151 -10869
50132 319658 297334 -1958 12202 -10945
50101 319851 297474 -1971 12182 -10867
50067 319987 297548 -2037 12167 -10814
50035 320080 297604 -2103 12191 -10924
49991 320082 297586 -2074 12200 -11032
49949 320080 297572 -1972 12131 -11092
49904 320060 297529 -2012 12058 -11142
49859 319976 297434 -2103 12059 -11039
49794 319746 297224 -2144 12006 -10975
49718 319391 296953 -2116 11934 -11043
49622 318779 296518 -1961 11959 -11062
49520 317995 296026 -1874 11906 -11083
49445 317395 295724 -1913 11734 -11088
49378 316897 295449 -1989 11726 -11139
49292 316200 295006 -1970 11964 -11358
49220 315618 294664 -1857 12166 -11490
49174 315261 294444 -1752 12155 -11426
49116 314793 294089 -1734 12110 -11512
49063 314392 293778 -1892 12014 -11579
49035 314177 293618 -1844 11949 -11535
49010 314013 293464 -1838 12030 -11558
48984 313816 293309 -1869 12096 -11543
48953 313638 293132 -1894 11999 -11449
48931 313509 292980 -1879 11869 -11350
48908 313396 292861 -1825 11870 -11352
48882 313238 292696 -1788 11991 -11435
48866 313166 292605 -1799 12076 -11461
48858 313153 292570 -1863 12048 -11462
48850 313123 292525 -1913 11979 -11464
48848 313109 292491 -1889 11988 -11438
48843 313068 292436 -1860 12050 -11395
48830 312999 292372 -1856 12073 -11380
48811 312936 292310 -1836 12048 -11400
48779 312837 292215 -1808 12027 -11435
48747 312746 292132 -1829 12004 -11456
48716 312659 292047 -1857 11998 -11470
48485 311936 291249 -1828 11951 -11551
48467 311814 291173 -1850 11944 -11572
48451 311728 291113 -1907 11891 -11548
48439 311703 291102 -1908 11843 -11533
48435 311706 291107 -1859 11845 -11546
48432 311690 291110 -1839 11874 -11589
48433 311707 291136 -1838 11906 -11640
48432 311716 291145 -1847 11897 -11637
48435 311710 291130 -1848 11871 -11608
48436 311705 291130 -1850 11840 -11586
48440 311682 291126 -1850 11855 -11571
48444 311683 291122 -1844 11882 -11580
48450 311700 291136 -1858 11840 -11554
48454 311686 291134 -1868 11820 -11562
48466 311686 291138 -1870 11840 -11625
48480 311723 291179 -1869 11834 -11637
48490 311718 291187 -1854 11858 -11621
48500 311693 291190 -1841 11879 -11604
48510 311696 291192 -1858 11861 -11595
48511 311640 291167 -1877 11839 -11574
48510 311608 291156 -1891 11864 -11579
48500 311591 291151 -1865 11883 -11587
48484 311600 291154 -1854 11829 -11551
48464 311586 291145 -1902 11832 -11572
48447 311578 291143 -1887 11844 -11590
48430 311551 291118 -1854 11869 -11580
48419 311535 291112 -1837 11859 -11565
48406 311537 291121 -1856 11831 -11578
48406 311545 291152 -1877 11834 -11577
48399 311532 291150 -1866 11849 -11597
48394 311508 291141 -1838 11857 -11589
48387 311432 291091 -1889 11834 -11574
48384 311375 291070 -1934 11819 -11582
48385 311366 291062 -1869 11829 -11580
48388 311363 291077 -1842 11835 -11618
48386 311329 291082 -1870 11849 -11622
48387 311324 291093 -1889 11849 -11613
48387 311296 291091 -1875 11844 -11604
48388 311269 291069 -1833 11846 -11605
48384 311260 291069 -1817 11855 -11614
48380 311220 291044 -1826 11858 -11618
48381 311197 291013 -1853 11844 -11612
48382 311178 290988 -1869 11822 -11582
48386 311202 291013 -1855 11822 -11568
48397 311236 291055 -1832 11853 -11584
48409 311264 291070 -1830 11875 -11599
48421 311273 291075 -1851 11876 -11608
48429 311272 291073 -1855 11857 -11611
48441 311273 291073 -1836 11840 -11600
48452 311301 291091 -1831 11827 -11582
48447 310850 290784 -1831 11800 -11654
48434 310855 290805 -1858 11806 -11651
48423 310868 290818 -1862 11758 -11650
48414 310871 290823 -1841 11797 -11642
48411 310883 290845 -1842 11784 -11624
48406 310914 290870 -1855 11763 -11636
48408 310924 290898 -1855 11774 -11652
48410 310964 290917 -1824 11804 -11635
48412 310982 290922 -1842 11817 -11632
48417 310965 290917 -1890 11825 -11610
48420 310976 290926 -1852 11822 -11603
48426 310978 290927 -1897 11795 -11599
48427 310978 290939 -1897 11777 -11601
48426 310994 290944 -1876 11776 -11634
48427 311010 290968 -1843 11805 -11667
48431 311035 290988 -1819 11788 -11649
48438 311078 291027 -1824 11793 -11624
48446 311117 291061 -1847 11823 -11609
48453 311149 291091 -1846 11824 -11618
48458 311176 291107 -1825 11824 -11630
48467 311182 291118 -1852 11822 -11603
48471 311194 291123 -1897 11795 -11599
48481 311201 291132 -1897 11777 -11601
48490 311235 291138 -1876 11776 -11634
48500 311277 291181 -1843 11805 -11667
48511 311291 291194 -1819 11788 -11649
48529 311330 291230 -1824 11793 -11624
48545 311367 291259 -1847 11823 -11609
48565 311433 291304 -1846 11824 -11618
48586 311503 291360 -1825 11824 -11630
48599 311497 291354 -1881 11774 -11617
48612 311485 291340 -1874 11761 -11634
48625 311487 291338 -1850 11769 -11666
48626 311446 291304 -1837 11754 -11692
48624 311389 291277 -1833 11740 -11694
48617 311354 291278 -1829 11755 -11698
48605 311331 291278 -1832 11767 -11710
48587 311327 291282 -1845 11794 -11719
48575 311329 291295 -1852 11814 -11723
48566 311325 291286 -1878 11750 -11609
48554 311313 291291 -1858 11752 -11616
48544 311325 291307 -1850 11758 -11658
48542 311336 291312 -1820 11757 -11678
48539 311342 291304 -1804 11747 -11692
48535 311346 291302 -1836 11778 -11696
48535 311315 291265 -1845 11773 -11700
48532 311294 291240 -1816 11734 -11692
48534 311282 291235 -1799 11732 -11680
48534 311286 291245 -1825 11731 -11680
48538 311302 291243 -1873 11723 -11669
48535 311286 291235 -1879 11731 -11685
48537 311276 291230 -1837 11751 -11719
48538 311283 291234 -1812 11766 -11713
48543 311303 291255 -1835 11779 -11708
48545 311329 291272 -1848 11784 -11710
48551 311350 291284 -1798 11769 -11706
48559 311363 291301 -1779 11767 -11729
48566 311388 291316 -1817 11758 -11757
48578 311417 291339 -1844 11717 -11744
48590 311446 291349 -1863 11685 -11691
48599 311447 291347 -1854 11704 -11669
48612 311481 291371 -1826 11740 -11708
48623 311524 291393 -1825 11741 -11739
48640 311552 291412 -1825 11732 -11739
48658 311584 291432 -1810 11739 -11716
48674 311587 291444 -1798 11761 -11696
48688 311607 291446 -1803 11783 -11685
48704 311618 291464 -1811 11769 -11679
48720 311632 291465 -1818 11756 -11681
48729 311612 291443 -1828 11746 -11655
48738 311550 291386 -1826 11733 -11650
48735 311446 291311 -1822 11732 -11676
48724 311371 291256 -1824 11737 -11677
48708 311288 291206 -1825 11768 -11678
48687 311226 291166 -1840 11785 -11708
48670 311204 291147 -1845 11782 -11729
48662 311214 291155 -1833 11772 -11700
48656 311235 291171 -1828 11778 -11663
48654 311241 291186 -1842 11765 -11657
48652 311251 291186 -1869 11712 -11655
48647 311259 291181 -1811 11727 -11682
48649 311247 291179 -1826 11760 -11713
48657 311302 291223 -1850 11774 -11729
48660 311275 291193 -1830 11772 -11732
48665 311284 291191 -1813 11769 -11719
48670 311291 291197 -1819 11735 -11698
48675 311283 291183 -1844 11703 -11681
48670 311255 291167 -1863 11703 -11692
48671 311237 291146 -1860 11704 -11700
48669 311221 291134 -1833 11715 -11654
48673 311218 291126 -1849 11722 -11661
48670 311212 291129 -1871 11735 -11661
48674 311224 291132 -1829 11762 -11645
48679 311239 291148 -1813 11792 -11669
48685 311254 291151 -1837 11806 -11672
48693 311259 291155 -1854 11775 -11681
48703 311290 291184 -1849 11739 -11667
48708 311296 291182 -1825 11747 -11664
48719 311303 291184 -1822 11755 -11658
48727 311316 291197 -1853 11728 -11662
48739 311319 291197 -1870 11733 -11680
48750 311325 291200 -1853 11743 -11676
48768 311332 291195 -1835 11754 -11683
48779 311358 291208 -1834 11772 -11694
48791 311375 291220 -1835 11761 -11696
48810 311402 291232 -1826 11738 -11696
48823 311384 291217 -1814 11747 -11683
48829 311343 291180 -1798 11765 -11686
48833 311260 291104 -1805 11737 -11685
48825 311149 291036 -1848 11718 -11664
48813 311066 290987 -1862 11736 -11668
48797 311016 290951 -1851 11751 -11686
48784 310992 290939 -1850 11764 -11711
48770 310974 290932 -1837 11755 -11721
48760 310980 290939 -1834 11757 -11711
48755 310999 290960 -1839 11768 -11672
48749 310989 290956 -1844 11770 -11646
48746 310972 290947 -1832 11772 -11661
48753 310998 290967 -1798 11742 -11682
48759 311043 290996 -1917 11704 -11705
48781 311102 291076 -1872 11709 -11709
48806 311057 291119 -1819 11707 -11697
48852 311029 291267 -1814 11732 -11695
48936 311140 291647 -1834 11736 -11715
49072 311456 292293 -1844 11698 -11728
49224 312082 293164 -1837 11702 -11730
49393 313192 294287 -1818 11768 -11711
49569 314721 295653 -1828 11873 -11768
49727 316171 296776 -1860 12041 -11859
49823 317086 297447 -1911 12183 -11911
49903 317555 297772 -1938 12347 -12027
49937 317763 297833 -1916 12619 -12135
49953 317970 297871 -1856 12862 -12001
49959 318205 297913 -1811 12749 -11405
49945 318344 297887 -1714 12283 -10804
49954 318789 298118 -1746 11848 -10596
50009 319528 298558 -2042 11663 -10361
50060 320244 298927 -2220 11686 -10245
50093 320782 299194 -2102 11707 -10028
50109 321188 299343 -1861 12044 -10100
50118 321485 299425 -1689 12378 -10301
50124 321703 299507 -1802 12409 -10449
50120 321865 299572 -1989 12428 -10658
50106 321956 299607 -2042 12386 -10963
50084 321990 299588 -1943 12230 -11036
50049 321902 299487 -1808 12152 -10961
50009 321805 299359 -1800 12156 -10926
49965 321694 299246 -1923 12151 -10918
49906 321485 299047 -2036 12153 -10884
49803 321046 298677 -1997 12193 -10810
49683 320343 298192 -2007 12189 -10854
49569 319506 297658 -2077 12147 -11072
49457 318606 297156 -2008 12167 -11171
49336 317591 296533 -1923 12115 -11127
49205 316504 295831 -1923 12009 -11214
49111 315709 295286 -1919 11986 -11202
49048 315165 294904 -1950 11913 -11025
48993 314704 294550 -2023 11686 -10955
48948 314344 294243 -2004 11510 -11034
48914 314145 294047 -1927 11542 -11133
48882 313991 293887 -1875 11783 -11223
48852 313797 293706 -1859 12019 -11343
48831 313716 293615 -1814 12070 -11495
48818 313660 293548 -1737 12102 -11745
48802 313617 293490 -1823 12160 -11978
48789 313580 293412 -1997 12088 -11877
48777 313515 293322 -1977 11924 -11714
48764 313463 293256 -1899 11862 -11678
48761 313453 293215 -1934 11941 -11634
48756 313466 293198 -1978 12032 -11634
48754 313451 293151 -1946 12016 -11624
48752 313439 293114 -1922 11918 -11574
48754 313442 293086 -1914 11880 -11570
48754 313418 293026 -1883 11915 -11565
48760 313414 293001 -1878 11939 -11529
48767 313436 292991 -1897 11945 -11491
48774 313422 292970 -1894 11955 -11487
48780 313408 292935 -1892 11939 -11534
48790 313426 292924 -1968 11858 -11444
48792 313372 292874 -1927 11896 -11433
48786 313299 292815 -1941 11952 -11433
48769 313233 292755 -1966 11975 -11459
48747 313126 292688 -1944 11966 -11466
48720 313045 292622 -1923 11973 -11454
48707 313070 292639 -1953 11958 -11417
48697 313085 292641 -1983 11971 -11400
48684 313056 292617 -1945 11996 -11420
48677 313060 292610 -1962 11946 -11476
48677 313057 292610 -1980 11937 -11483
48668 313012 292563 -1932 11939 -11469
48670 313017 292567 -1889 11952 -11444
48674 313001 292546 -1886 11931 -11434
48677 312948 292509 -1917 11937 -11428
48681 312930 292496 -1931 11943 -11408
48686 312931 292496 -1917 11924 -11422
48688 312931 292517 -1903 11954 -11411
48689 312929 292516 -1972 11897 -11410
48695 312944 292518 -1925 11931 -11428
48701 312950 292532 -1897 11954 -11459
48703 312955 292539 -1925 11943 -11484
48709 312961 292533 -1925 11920 -11503
48718 312964 292551 -1895 11923 -11504
48722 312953 292544 -1866 11926 -11516
48726 312921 292513 -1867 11908 -11523
48733 312926 292515 -1886 11893 -11532
48753 313000 292574 -1900 11883 -11510
48765 313028 292595 -1914 11872 -11487
48775 313023 292594 -1903 11880 -11520
48787 313001 292583 -1881 11894 -11523
48799 312987 292577 -1873 11875 -11505
48813 312996 292572 -1865 11889 -11523
48826 312983 292572 -1868 11914 -11570
48828 312880 292500 -1883 11915 -11591
48823 312805 292475 -1866 11903 -11557
48814 312759 292455 -1845 11846 -11539
48796 312704 292423 -1884 11842 -11499
48786 312679 292424 -1957 11855 -11483
48779 312679 292430 -1983 11855 -11547
48775 312690 292463 -1913 11856 -11588
48771 312692 292471 -1867 11863 -11602
48771 312703 292510 -1897 11901 -11600
48779 312734 292543 -1889 11885 -11555
48791 312798 292593 -1856 11856 -11523
48798 312806 292612 -1864 11863 -11535
48805 312777 292598 -1886 11859 -11536
48809 312759 292587 -1901 11843 -11533
48816 312773 292600 -1943 11829 -11514
48821 312778 292607 -1917 11858 -11535
48826 312781 292608 -1930 11873 -11537
48830 312779 292626 -1898 11888 -11507
48837 312787 292639 -1874 11899 -11519
48842 312791 292641 -1901 11906 -11510
48851 312799 292647 -1934 11885 -11502
48856 312791 292646 -1923 11864 -11523
48860 312802 292660 -1876 11897 -11534
48869 312789 292663 -1939 11837 -11512
48879 312772 292652 -1941 11861 -11521
48886 312768 292658 -1919 11896 -11511
48895 312755 292655 -1899 11916 -11506
48909 312775 292671 -1892 11910 -11521
48924 312801 292683 -1895 11881 -11534
48934 312797 292667 -1896 11867 -11522
48943 312769 292641 -1903 11879 -11524
48952 312733 292606 -1913 11904 -11533
48955 312635 292561 -1931 11820 -11489
48950 312530 292517 -1940 11861 -11467
48938 312463 292489 -1961 11917 -11455
48919 312366 292437 -1943 11927 -11486
48906 312330 292432 -1871 11937 -11528
48897 312383 292504 -1867 11942 -11554
48898 312455 292571 -1919 11954 -11549
48893 312499 292619 -1906 11941 -11528
48893 312550 292660 -1867 11962 -11524
48901 312611 292746 -1869 11976 -11534
48910 312674 292810 -1939 11927 -11512
48928 312788 292934 -1995 11915 -11471
48941 312808 292978 -1980 11967 -11478
48954 312858 293040 -1937 12041 -11465
48966 312910 293094 -1955 12074 -11408
48974 312937 293128 -2015 12060 -11350
48979 312983 293171 -1985 12055 -11292
48986 313008 293191 -1916 12062 -11245
48986 313006 293204 -1921 12058 -11207
48984 312989 293187 -1995 12068 -11195
48988 312982 293180 -2048 12074 -11168
48987 312994 293177 -1998 12067 -11143
48989 312992 293156 -1933 12083 -11137
48987 312955 293123 -1929 12092 -11127
48994 312961 293114 -1945 12112 -11135
48997 313002 293123 -1956 12141 -11162
49008 313032 293137 -1935 12147 -11174
49016 313052 293136 -1904 12137 -11142
49021 313049 293123 -1921 12113 -11143
49036 313110 293163 -1938 12106 -11196
49048 313132 293176 -1957 12091 -11210
49054 313107 293149 -1968 12069 -11198
49059 313067 293087 -1958 12096 -11198
49056 312961 292993 -1941 12133 -11209
49042 312829 292894 -1908 12127 -11197
49024 312764 292836 -1920 12110 -11161
49003 312690 292799 -1965 12114 -11168
48977 312644 292772 -1965 12115 -11211
48959 312643 292772 -1897 12113 -11233
48945 312634 292758 -1865 12131 -11250
48933 312664 292780 -1927 12077 -11229
48924 312668 292801 -1891 12075 -11223
48916 312669 292797 -1876 12085 -11218
48909 312666 292790 -1893 12083 -11221
48903 312666 292781 -1919 12066 -11256
48902 312700 292804 -1924 12071 -11305
48898 312647 292755 -1898 12082 -11332
48899 312676 292768 -1875 12078 -11322
48902 312697 292787 -1922 12087 -11354
48908 312729 292822 -1879 12002 -11294
48908 312738 292832 -1863 12044 -11307
48906 312742 292823 -1915 12082 -11337
48907 312754 292825 -1910 12067 -11344
48907 312770 292825 -1867 12060 -11327
48907 312795 292835 -1847 12063 -11324
48910 312812 292847 -1873 12065 -11313
48915 312805 292838 -1900 12073 -11309
48918 312803 292839 -1896 12076 -11312
48922 312810 292844 -1899 12018 -11273
48931 312860 292862 -1894 12025 -11292
48941 312849 292848 -1878 12046 -11327
48946 312847 292832 -1867 12036 -11335
48956 312851 292831 -1862 12023 -11322
48960 312842 292811 -1868 12031 -11329
48973 312878 292837 -1895 12044 -11331
48984 312921 292844 -1907 12068 -11338
48997 312935 292828 -1885 12071 -11331
49006 312918 292785 -1890 12043 -11286
49007 312877 292736 -1950 12008 -11233
48998 312781 292678 -1969 12021 -11268
48990 312743 292651 -1916 12046 -11348
48970 312722 292634 -1870 12032 -11408
48956 312713 292628 -1887 12020 -11453
48938 312718 292628 -1911 12007 -11446
48923 312704 292622 -1883 11992 -11427
48910 312722 292610 -1862 12002 -11402
48901 312720 292610 -1870 11995 -11389
48897 312745 292638 -1899 11969 -11385
48895 312800 292675 -1935 11953 -11354
48889 312783 292654 -1919 11957 -11378
48886 312802 292660 -1867 11991 -11428
48886 312756 292624 -1865 12012 -11411
48891 312802 292648 -1909 12025 -11398
48896 312837 292658 -1886 12025 -11391
48895 312833 292652 -1833 12013 -11384
48889 312833 292654 -1871 12017 -11414
48893 312870 292684 -1910 12027 -11428
48896 312895 292692 -1873 12017 -11425
48897 312897 292694 -1862 11953 -11390
48896 312894 292691 -1877 11977 -11422
48897 312883 292688 -1884 12003 -11455
48902 312892 292688 -1873 11999 -11442
48912 312908 292726 -1859 11986 -11425
48919 312920 292749 -1850 11968 -11427
48929 312923 292755 -1857 11966 -11430
48935 312925 292736 -1861 11979 -11430
48947 312934 292745 -1849 11980 -11426
48953 312931 292719 -1910 11914 -11433
48963 312911 292701 -1904 11933 -11433
48973 312907 292684 -1882 11967 -11432
48986 312912 292703 -1885 11988 -11430
49002 312939 292727 -1884 11997 -11436
49020 312956 292758 -1866 11972 -11443
49034 312940 292752 -1864 11966 -11430
49043 312910 292727 -1880 11992 -11424
49050 312824 292664 -1903 11998 -11452
49045 312708 292620 -1847 11926 -11479
49042 312674 292606 -1903 11934 -11490
49030 312633 292578 -1920 11947 -11489
49013 312589 292549 -1878 11948 -11490
49004 312589 292546 -1865 11948 -11481
48992 312591 292555 -1888 11921 -11453
48982 312569 292564 -1922 11895 -11445
48975 312564 292539 -1917 11920 -11454
48968 312550 292532 -1872 11961 -11464
48967 312547 292540 -1844 11975 -11435
48965 312536 292528 -1908 11958 -11434
48969 312560 292542 -1963 11959 -11444
48968 312481 292479 -1895 11945 -11428
48966 312447 292469 -1856 11944 -11468
48972 312481 292509 -1912 12008 -11525
48985 312558 292584 -1947 12051 -11582
49004 312650 292682 -1928 12066 -11577
49017 312698 292729 -1903 12033 -11514
49024 312656 292722 -1892 11975 -11472
49027 312630 292726 -1903 12007 -11469
49040 312611 292768 -1898 12019 -11451
49047 312503 292755 -1868 12140 -11562
49083 312497 292889 -1857 12512 -11827
49168 312782 293365 -1901 12919 -12012
49338 313491 294277 -1922 13144 -11856
49550 314586 295403 -1828 12918 -11270
49740 315808 296567 -1753 12091 -10738
49921 317192 297756 -1934 11542 -10180
50053 318114 298427 -2114 11689 -9916
50173 318815 298925 -2117 11631 -10029
50217 318955 298962 -2052 11571 -10071
50243 319133 299031 -1860 12022 -10271
50245 319214 298956 -1720 12353 -10281
50206 319077 298771 -1766 12434 -10198
50196 319256 298866 -1911 12479 -10529
50218 319719 299155 -1939 12361 -11004
50255 320239 299451 -1798 12236 -11203
50294 320705 299688 -1673 12207 -11171
50336 321198 299936 -1647 12219 -11079
50371 321568 300113 -1686 12232 -11069
49991 321724 299598 -1958 12188 -10924
49882 321056 299108 -1942 12162 -10890
49775 320321 298646 -1820 12121 -10949
49695 319726 298291 -1762 12090 -11034
49622 319109 297889 -1842 12061 -11063
49538 318339 297351 -1936 12053 -11087
49477 317760 296973 -1911 12108 -11069
49424 317252 296633 -1846 12169 -10994
49381 316809 296310 -1829 12094 -10952
49338 316411 296013 -1853 11887 -10959
49305 316113 295753 -1844 11748 -11088
49274 315863 295542 -1809 11805 -11205
49243 315607 295280 -1791 12029 -11329
49214 315419 295102 -1776 12253 -11351
49192 315299 294983 -1796 12245 -11297
49178 315263 294921 -1807 12148 -11337
49172 315234 294861 -1755 12159 -11401
49169 315228 294840 -1761 12154 -11460
49176 315278 294854 -1832 12113 -11416
49183 315323 294860 -1885 12105 -11286
49192 315353 294864 -1845 12133 -11379
49202 315388 294882 -1825 12157 -11374
49211 315399 294863 -1834 12142 -11315
49220 315413 294854 -1833 12137 -11295
49229 315425 294844 -1824 12155 -11301
49239 315464 294846 -1826 12158 -11285
49258 315498 294855 -1837 12131 -11268
49265 315502 294842 -1835 12115 -11238
49271 315479 294816 -1835 12115 -11223
49278 315453 294766 -1859 12067 -11236
49278 315380 294715 -1883 12040 -11251
49268 315327 294682 -1876 12058 -11284
49257 315267 294629 -1871 12085 -11298
49235 315211 294592 -1896 12113 -11272
49219 315161 294557 -1896 12122 -11247
49203 315144 294547 -1865 12115 -11222
49193 315149 294551 -1872 12111 -11174
49183 315130 294536 -1890 12114 -11137
49172 315115 294537 -1896 12125 -11169
49163 315113 294511 -1889 12109 -11189
49163 315127 294536 -1870 12105 -11192
49157 315138 294523 -1882 12150 -11215
49159 315140 294520 -1883 12170 -11199
49158 315096 294495 -1855 12161 -11180
49160 315076 294477 -1839 12146 -11171
49158 315032 294448 -1849 12140 -11130
49159 315013 294434 -1877 12134 -11113
49159 315000 294440 -1894 12140 -11124
49161 314981 294438 -1875 12152 -11125
49163 314955 294423 -1857 12166 -11073
49167 314979 294436 -1899 12182 -11072
49171 314997 294455 -1909 12196 -11088
49179 314994 294476 -1869 12201 -11067
49187 315012 294475 -1866 12207 -11046
49196 315016 294488 -1892 12201 -11033
49205 315024 294486 -1881 12198 -11035
49219 315046 294512 -1854 12205 -11034
49229 315066 294523 -1854 12203 -11027
49242 315058 294522 -1927 12171 -11029
49250 315033 294498 -1904 12173 -11063
49262 315024 294481 -1886 12185 -11083
49272 315021 294495 -1873 12190 -11078
49286 315048 294516 -1869 12191 -11050
49306 315074 294544 -1859 12188 -11037
49323 315074 294551 -1849 12183 -11055
49333 315060 294519 -1851 12165 -11073
49342 315021 294479 -1863 12159 -11061
49348 314934 294423 -1887 12158 -11013
49341 314855 294382 -1906 12183 -11047
49330 314774 294341 -1908 12200 -11065
