2025-10-16 02:59:49    绿光---红外光---红光---X轴---Y轴---Z轴
43469 308512 275409 -1483 13843 -8913
43459 308524 275416 -1445 13849 -8979
43456 308548 275437 -1381 13869 -8996
43463 308597 275463 -1432 13885 -9012
43467 308613 275469 -1456 13857 -9022
43477 308654 275486 -1401 13784 -9020
43495 308675 275489 -1365 13743 -9022
43508 308677 275477 -1354 13718 -9023
43528 308682 275492 -1378 13696 -9022
43541 308711 275501 -1424 13720 -9031
43551 308709 275489 -1449 13756 -9043
43562 308703 275492 -1464 13763 -9021
43572 308693 275484 -1486 13735 -9043
43579 308698 275486 -1461 13718 -9041
43590 308707 275486 -1379 13709 -9013
43605 308728 275494 -1393 13705 -9046
43620 308744 275494 -1475 13722 -9047
43637 308775 275512 -1383 13701 -9027
43657 308814 275547 -1375 13737 -9018
43687 308846 275575 -1391 13765 -9015
43708 308865 275594 -1429 13793 -9009
43735 308896 275607 -1461 13817 -8977
43761 308915 275623 -1463 13816 -8967
43795 308942 275639 -1436 13808 -8982
43824 308971 275649 -1430 13816 -8984
43850 308969 275644 -1460 13822 -8983
43882 309000 275674 -1421 13784 -8971
43915 309018 275680 -1430 13781 -8966
43942 309032 275671 -1433 13756 -8980
43972 309031 275652 -1442 13744 -8987
43998 309015 275634 -1468 13763 -8980
44009 308925 275573 -1484 13798 -8988
44003 308860 275547 -1480 13800 -8969
43985 308812 275521 -1501 13806 -8931
43964 308769 275507 -1525 13843 -8920
43946 308778 275507 -1445 13793 -9000
43930 308786 275520 -1387 13800 -9013
43918 308796 275530 -1457 13827 -9018
43907 308812 275544 -1469 13810 -9012
43909 308837 275552 -1428 13764 -9000
44021 308976 275515 -1495 13757 -9002
44034 308991 275528 -1509 13781 -9017
44050 309010 275550 -1447 13783 -9018
44065 309021 275563 -1401 13778 -9027
44081 309046 275576 -1418 13772 -9046
44099 309057 275592 -1427 13746 -9070
44124 309091 275615 -1407 13729 -9077
44142 309109 275641 -1402 13742 -9074
44165 309126 275652 -1408 13744 -9081
44189 309136 275662 -1437 13721 -9093
44209 309140 275674 -1452 13691 -9096
44234 309176 275703 -1434 13665 -9101
44263 309194 275704 -1424 13631 -9108
44291 309189 275697 -1421 13627 -9127
44317 309197 275688 -1444 13657 -9155
44342 309194 275672 -1416 13642 -9213
44346 309107 275600 -1423 13629 -9217
44337 309042 275573 -1464 13634 -9175
44319 309005 275568 -1487 13683 -9140
44293 308968 275536 -1513 13701 -9163
44269 308950 275541 -1469 13661 -9190
44246 308947 275549 -1419 13669 -9187
44224 308944 275544 -1464 13720 -9183
44211 308932 275548 -1463 13700 -9148
44201 308923 275545 -1409 13622 -9124
44197 308931 275577 -1408 13604 -9129
44198 308929 275592 -1413 13592 -9130
44212 309001 275662 -1483 13616 -9105
44218 308978 275654 -1527 13648 -9111
44222 308969 275634 -1479 13670 -9112
44228 308966 275603 -1485 13709 -9132
44233 308978 275594 -1527 13724 -9138
44235 308963 275577 -1424 13710 -9117
44237 308972 275554 -1414 13701 -9133
44239 308975 275545 -1510 13694 -9124
44242 308988 275538 -1519 13704 -9102
44246 309004 275535 -1468 13705 -9091
44256 309026 275560 -1459 13689 -9086
44266 309065 275579 -1487 13680 -9088
44282 309094 275608 -1496 13687 -9098
44298 309116 275625 -1444 13698 -9094
44316 309129 275637 -1405 13682 -9083
44333 309144 275647 -1422 13647 -9089
44350 309146 275655 -1414 13622 -9107
44375 309170 275664 -1405 13618 -9125
44397 309170 275667 -1419 13630 -9142
44419 309177 275676 -1445 13626 -9156
44438 309182 275682 -1472 13617 -9144
44463 309190 275691 -1443 13636 -9141
44487 309178 275688 -1438 13673 -9160
44505 309169 275667 -1484 13717 -9176
44525 309132 275625 -1487 13725 -9179
44539 309090 275589 -1460 13675 -9165
44541 309005 275514 -1432 13633 -9115
44533 308932 275481 -1443 13647 -9097
44510 308889 275453 -1476 13681 -9134
44481 308847 275451 -1423 13681 -9160
44451 308828 275446 -1397 13697 -9181
44424 308816 275439 -1439 13725 -9176
44401 308810 275432 -1416 13688 -9159
44359 308814 275393 -1520 13668 -9142
44363 308829 275414 -1528 13665 -9122
44367 308836 275420 -1416 13632 -9104
44372 308854 275431 -1476 13633 -9102
44374 308818 275397 -1522 13665 -9110
44382 308825 275390 -1534 13706 -9115
44397 308844 275409 -1515 13725 -9123
44410 308864 275424 -1497 13716 -9135
44433 308913 275461 -1498 13661 -9127
44450 308925 275460 -1507 13633 -9130
44469 308930 275459 -1498 13643 -9134
44493 308944 275458 -1397 13616 -9174
44516 308961 275461 -1428 13598 -9180
44537 308990 275471 -1433 13606 -9190
44561 309002 275482 -1429 13624 -9184
44586 309031 275489 -1472 13642 -9177
44615 309068 275508 -1490 13662 -9170
44640 309072 275503 -1453 13652 -9140
44666 309086 275492 -1439 13654 -9099
44688 309090 275472 -1460 13663 -9089
44700 309038 275415 -1454 13640 -9136
44691 308972 275372 -1390 13611 -9170
44678 308956 275359 -1392 13639 -9188
44649 308929 275339 -1480 13689 -9215
44613 308893 275313 -1482 13680 -9221
44578 308878 275282 -1405 13650 -9201
44551 308859 275270 -1363 13624 -9187
44525 308828 275230 -1409 13581 -9179
44502 308810 275197 -1475 13554 -9167
44483 308779 275173 -1496 13564 -9177
44470 308745 275153 -1459 13600 -9206
44455 308702 275100 -1373 13599 -9208
44452 308721 275109 -1393 13581 -9228
44446 308674 275063 -1500 13599 -9237
44442 308627 275008 -1480 13570 -9204
44437 308590 274969 -1433 13556 -9199
44432 308560 274936 -1476 13588 -9212
44423 308511 274886 -1518 13586 -9228
44415 308474 274840 -1499 13563 -9232
44409 308429 274789 -1463 13576 -9223
44412 308432 274779 -1477 13574 -9197
44419 308456 274788 -1460 13577 -9175
44426 308457 274802 -1442 13623 -9165
44436 308474 274801 -1485 13654 -9161
44443 308479 274801 -1495 13649 -9187
44453 308472 274794 -1481 13625 -9231
44468 308477 274791 -1480 13610 -9243
44483 308498 274796 -1490 13573 -9239
44503 308518 274810 -1493 13531 -9258
44526 308547 274809 -1476 13516 -9276
44552 308592 274849 -1478 13507 -9283
44579 308618 274857 -1485 13501 -9311
44605 308653 274859 -1515 13512 -9325
44631 308680 274882 -1549 13536 -9318
44663 308728 274917 -1550 13556 -9312
44691 308752 274919 -1508 13522 -9306
44717 308752 274922 -1485 13504 -9278
44739 308754 274925 -1515 13516 -9278
44759 308729 274905 -1557 13513 -9318
44756 308631 274839 -1515 13494 -9322
44744 308592 274818 -1467 13552 -9318
44718 308544 274799 -1456 13562 -9313
44687 308507 274785 -1429 13522 -9299
44661 308503 274784 -1451 13501 -9283
44641 308531 274802 -1496 13495 -9261
44622 308545 274813 -1528 13500 -9237
44607 308569 274818 -1524 13529 -9244
44599 308585 274833 -1493 13550 -9272
44593 308614 274854 -1453 13551 -9259
44588 308634 274866 -1461 13573 -9245
44590 308690 274899 -1478 13597 -9234
44590 308698 274874 -1405 13574 -9223
44593 308684 274871 -1414 13569 -9240
44598 308721 274876 -1515 13582 -9270
44599 308714 274874 -1555 13568 -9278
44600 308699 274865 -1517 13558 -9264
44601 308701 274867 -1456 13552 -9273
44602 308689 274867 -1450 13545 -9286
44606 308713 274884 -1480 13547 -9296
44612 308743 274890 -1485 13558 -9303
44620 308751 274886 -1435 13541 -9307
44629 308777 274902 -1409 13520 -9306
44641 308790 274905 -1444 13497 -9309
44652 308804 274907 -1486 13460 -9313
44663 308805 274899 -1495 13453 -9323
44672 308790 274866 -1485 13470 -9326
44688 308786 274842 -1482 13466 -9331
44706 308803 274841 -1481 13468 -9374
44725 308811 274851 -1479 13488 -9413
44745 308805 274840 -1457 13469 -9412
44766 308814 274837 -1404 13480 -9411
44791 308818 274829 -1422 13496 -9414
44811 308831 274829 -1498 13484 -9405
44840 308869 274857 -1487 13485 -9397
44866 308885 274873 -1452 13468 -9388
44893 308920 274878 -1470 13458 -9350
44916 308943 274887 -1498 13464 -9334
44936 308921 274861 -1482 13465 -9361
44932 308818 274786 -1407 13452 -9371
44921 308764 274757 -1423 13471 -9397
44898 308718 274728 -1404 13480 -9411
44865 308664 274708 -1422 13496 -9414
44837 308655 274714 -1498 13484 -9405
44810 308647 274720 -1487 13485 -9397
44786 308666 274732 -1452 13468 -9388
44771 308664 274752 -1470 13458 -9350
44759 308678 274757 -1498 13464 -9334
44749 308677 274773 -1482 13465 -9361
44741 308668 274766 -1407 13452 -9371
44738 308715 274787 -1423 13471 -9397
44740 308716 274788 -1396 13472 -9402
44743 308713 274772 -1359 13430 -9384
44745 308723 274784 -1406 13426 -9362
44747 308724 274780 -1473 13430 -9360
44749 308732 274795 -1493 13418 -9372
44751 308730 274779 -1480 13434 -9380
44750 308729 274772 -1433 13461 -9403
44751 308743 274785 -1392 13451 -9384
44753 308749 274778 -1449 13465 -9357
44754 308760 274782 -1496 13490 -9351
44761 308757 274783 -1425 13461 -9369
44773 308761 274786 -1407 13445 -9388
44787 308786 274806 -1486 13465 -9381
44797 308804 274814 -1536 13460 -9384
44812 308810 274815 -1503 13453 -9370
44828 308820 274810 -1441 13463 -9344
44845 308827 274797 -1437 13479 -9339
44861 308837 274814 -1460 13496 -9362
44882 308855 274824 -1471 13501 -9361
44905 308864 274826 -1455 13510 -9339
44924 308878 274834 -1433 13508 -9332
44945 308878 274842 -1444 13490 -9345
44967 308901 274850 -1460 13481 -9363
44995 308938 274884 -1454 13460 -9377
45017 308948 274884 -1449 13444 -9384
45039 308957 274892 -1442 13435 -9388
45056 308955 274874 -1436 13430 -9401
45069 308917 274836 -1438 13444 -9411
45064 308838 274774 -1440 13441 -9412
45053 308817 274761 -1436 13441 -9416
45027 308769 274739 -1428 13467 -9419
44997 308752 274729 -1453 13475 -9412
44967 308754 274719 -1459 13491 -9424
44943 308763 274728 -1427 13471 -9416
44922 308773 274722 -1437 13432 -9398
44899 308787 274724 -1482 13446 -9379
44885 308798 274727 -1512 13442 -9396
44876 308837 274760 -1459 13420 -9440
44874 308898 274789 -1416 13422 -9448
44884 309021 274891 -1461 13444 -9476
44904 309150 275003 -1453 13447 -9475
44944 309331 275201 -1391 13404 -9448
44992 309541 275462 -1385 13376 -9431
45038 309681 275701 -1431 13364 -9421
45083 309787 275923 -1478 13344 -9421
45141 309931 276201 -1494 13366 -9419
45187 309965 276371 -1468 13405 -9414
45240 310036 276608 -1432 13433 -9442
45324 310100 276981 -1434 13462 -9455
45425 309989 277452 -1500 13478 -9497
45546 309667 277988 -1440 13560 -9552
45694 309404 278615 -1483 13725 -9622
45890 309468 279479 -1494 13791 -9534
46110 309919 280483 -1495 13673 -9310
46290 310414 281275 -1494 13688 -9122
46451 310948 281985 -1474 13840 -8997
46647 311741 282838 -1537 14012 -8981
46913 312954 283973 -1620 14402 -9018
47272 314796 285374 -1644 14934 -8897
47562 316473 286450 -1215 14703 -8189
47666 317237 286703 -959 13791 -8021
47657 317466 286572 -1162 13323 -8042
47661 317678 286580 -1448 13187 -8084
47691 317909 286663 -1525 13413 -8115
47677 317875 286504 -1472 13855 -8251
47642 317763 286313 -1479 13965 -8334
47633 317701 286269 -1600 13752 -8322
47622 317605 286185 -1726 13427 -8298
47607 317512 286041 -1541 13401 -8343
47557 317288 285754 -1568 13611 -8303
47488 317035 285532 -1675 13772 -8516
47391 316762 285282 -1504 13883 -8880
47223 316249 284834 -1292 14007 -9018
46960 315363 284042 -1435 14057 -9092
46603 314049 282855 -1593 13954 -9329
46191 312511 281440 -1513 13953 -9520
45839 311280 280218 -1495 13841 -9476
45625 310686 279473 -1542 13634 -9323
45455 310227 278775 -1553 13541 -9264
45325 309899 278235 -1564 13390 -9293
45253 309729 277901 -1574 13258 -9186
45184 309486 277499 -1578 13091 -9107
45143 309324 277178 -1540 12906 -9135
45103 309129 276867 -1506 12951 -9083
45069 308956 276573 -1534 13303 -9120
45028 308778 276302 -1534 13600 -9292
45001 308679 276137 -1519 13659 -9482
44976 308603 275971 -1533 13724 -9669
44951 308571 275857 -1484 13799 -9628
44936 308579 275796 -1414 13686 -9500
44918 308567 275715 -1411 13584 -9423
44896 308526 275602 -1366 13514 -9347
44878 308507 275508 -1329 13414 -9350
44869 308503 275442 -1387 13444 -9441
44863 308514 275397 -1442 13539 -9536
44863 308540 275375 -1447 13529 -9547
44866 308568 275375 -1447 13496 -9546
44873 308622 275393 -1478 13478 -9519
44878 308670 275394 -1390 13418 -9449
44885 308716 275377 -1433 13459 -9487
44898 308753 275358 -1531 13528 -9539
44912 308839 275386 -1557 13496 -9555
44926 308886 275388 -1507 13406 -9550
44940 308945 275401 -1484 13334 -9543
44951 308981 275391 -1496 13301 -9530
44955 308973 275367 -1486 13300 -9543
44946 308925 275317 -1514 13337 -9547
44924 308918 275307 -1552 13438 -9511
44894 308911 275297 -1540 13418 -9481
44861 308926 275304 -1563 13395 -9425
44825 308973 275325 -1603 13388 -9393
44792 308978 275320 -1628 13407 -9411
44758 308985 275312 -1554 13384 -9442
44729 308983 275282 -1507 13375 -9477
44704 308986 275285 -1574 13411 -9497
44683 308999 275297 -1586 13394 -9484
44666 308996 275285 -1480 13378 -9446
44653 309042 275303 -1528 13352 -9430
44640 309015 275263 -1578 13340 -9442
44631 309002 275240 -1582 13367 -9450
44625 308997 275237 -1564 13400 -9459
44614 308996 275238 -1540 13434 -9434
44608 308983 275223 -1544 13446 -9414
44598 308992 275218 -1579 13447 -9419
44587 308994 275207 -1521 13415 -9420
44577 308982 275190 -1478 13386 -9436
44575 308996 275208 -1518 13403 -9448
44575 309008 275202 -1547 13391 -9446
44578 309044 275229 -1554 13379 -9438
44580 309061 275226 -1541 13395 -9444
44589 309072 275233 -1538 13398 -9442
44599 309105 275264 -1551 13402 -9454
44610 309128 275273 -1566 13405 -9441
44622 309147 275277 -1563 13405 -9439
44636 309162 275279 -1552 13410 -9453
44655 309207 275314 -1519 13397 -9434
44675 309218 275327 -1501 13390 -9413
44691 309216 275317 -1531 13398 -9420
44703 309210 275293 -1553 13396 -9429
44716 309196 275255 -1556 13396 -9416
44718 309109 275195 -1576 13417 -9432
44696 309002 275111 -1600 13434 -9454
44676 308932 275092 -1613 13420 -9432
44642 308885 275064 -1600 13412 -9399
44610 308875 275050 -1581 13431 -9393
44571 308845 275032 -1596 13431 -9421
44545 308839 275023 -1538 13418 -9435
44522 308836 275013 -1481 13402 -9436
44502 308814 274995 -1545 13414 -9462
44480 308789 274974 -1594 13426 -9471
44469 308795 274966 -1583 13397 -9447
44456 308771 274939 -1556 13386 -9413
44453 308807 274942 -1570 13393 -9391
44448 308773 274928 -1609 13380 -9364
44452 308771 274926 -1620 13362 -9361
44451 308770 274935 -1598 13392 -9386
44452 308795 274958 -1500 13444 -9374
44443 308769 274948 -1570 13465 -9362
44440 308790 274973 -1565 13462 -9372
44440 308804 274982 -1519 13460 -9323
44445 308827 275006 -1550 13509 -9333
44445 308811 274999 -1607 13525 -9367
44450 308833 275025 -1597 13477 -9330
44463 308896 275066 -1546 13452 -9315
44474 308932 275098 -1545 13468 -9320
44477 308891 275059 -1518 13470 -9301
44488 308860 275027 -1525 13467 -9320
44496 308814 274987 -1541 13503 -9353
44511 308807 274976 -1543 13523 -9358
44526 308746 274966 -1543 13496 -9316
44534 308648 274905 -1560 13471 -9286
44544 308560 274859 -1554 13463 -9317
44555 308502 274830 -1529 13465 -9346
44572 308491 274823 -1514 13483 -9353
44596 308489 274830 -1465 13475 -9363
44617 308505 274833 -1488 13475 -9391
44635 308524 274834 -1543 13488 -9391
44653 308546 274848 -1556 13477 -9386
44656 308506 274816 -1546 13480 -9397
44648 308471 274807 -1546 13476 -9361
44627 308453 274812 -1561 13446 -9341
44601 308472 274827 -1547 13450 -9384
44577 308502 274850 -1485 13449 -9421
44551 308547 274890 -1472 13452 -9438
44530 308604 274927 -1495 13465 -9434
44516 308640 274943 -1490 13454 -9423
44504 308683 274959 -1470 13431 -9428
44501 308740 275002 -1477 13397 -9433
44499 308771 275026 -1527 13355 -9418
44492 308794 275020 -1563 13338 -9411
44494 308818 275037 -1555 13371 -9417
44494 308835 275028 -1529 13408 -9458
44496 308843 275039 -1517 13413 -9439
44498 308874 275061 -1549 13392 -9434
44500 308891 275063 -1564 13399 -9450
44494 308890 275069 -1468 13402 -9426
44494 308898 275062 -1459 13389 -9443
44490 308899 275079 -1550 13388 -9446
44492 308906 275072 -1586 13378 -9438
44493 308911 275076 -1560 13366 -9424
44499 308955 275109 -1519 13367 -9422
44510 308992 275146 -1510 13367 -9428
44520 309002 275143 -1525 13358 -9444
44529 308989 275125 -1552 13357 -9460
44542 308990 275116 -1494 13385 -9456
44549 308985 275090 -1499 13392 -9457
44565 308999 275074 -1502 13377 -9466
44586 309031 275089 -1505 13349 -9500
44607 309041 275085 -1496 13340 -9506
44634 309100 275121 -1470 13308 -9498
44659 309111 275131 -1461 13316 -9521
44683 309150 275160 -1477 13316 -9523
44705 309180 275166 -1480 13327 -9536
44728 309209 275168 -1475 13396 -9532
44751 309224 275162 -1468 13375 -9537
44771 309274 275186 -1463 13338 -9518
44785 309236 275153 -1484 13359 -9485
44781 309190 275125 -1515 13372 -9510
44766 309135 275096 -1522 13367 -9542
44746 309089 275063 -1453 13341 -9546
44726 309074 275053 -1459 13327 -9583
44710 309084 275057 -1512 13322 -9591
44696 309077 275053 -1416 13319 -9538
44684 309050 275037 -1451 13298 -9532
44675 309033 275030 -1530 13280 -9503
44670 309029 275014 -1580 13275 -9491
44670 309016 275019 -1568 13292 -9514
44678 309047 275035 -1515 13316 -9537
44682 309041 275017 -1509 13357 -9514
44687 309011 274997 -1567 13391 -9486
44696 309007 275004 -1552 13366 -9484
44700 309006 275013 -1487 13343 -9485
44711 309011 275005 -1505 13354 -9489
44716 309025 275013 -1577 13351 -9491
44724 309032 275026 -1596 13331 -9496
44727 309049 275033 -1543 13335 -9500
44739 309070 275038 -1521 13348 -9504
44750 309085 275062 -1549 13333 -9519
44764 309102 275080 -1575 13328 -9521
44782 309129 275101 -1562 13342 -9512
44798 309155 275123 -1540 13339 -9512
44817 309188 275136 -1530 13341 -9497
44835 309202 275150 -1503 13373 -9478
44855 309203 275143 -1494 13377 -9478
44875 309213 275140 -1504 13341 -9489
44898 309229 275144 -1504 13323 -9514
44921 309247 275153 -1519 13323 -9518
44943 309247 275143 -1538 13327 -9513
44971 309262 275155 -1543 13343 -9532
44996 309271 275165 -1551 13364 -9535
45023 309275 275173 -1556 13376 -9542
45051 309264 275176 -1525 13361 -9534
45077 309300 275181 -1478 13368 -9411
45100 309277 275180 -1521 13367 -9411
45107 309218 275150 -1526 13359 -9475
45105 309164 275152 -1448 13354 -9508
45093 309108 275105 -1409 13354 -9561
45073 309050 275067 -1471 13354 -9590
45055 309011 275042 -1474 13346 -9545
45046 309027 275058 -1469 13334 -9500
45039 309038 275060 -1496 13305 -9488
45038 309047 275061 -1492 13304 -9503
45042 309041 275059 -1510 13332 -9529
45042 309064 275077 -1465 13346 -9553
45045 309071 275073 -1410 13348 -9522
45059 309138 275109 -1461 13339 -9534
45068 309121 275089 -1502 13336 -9539
45080 309116 275084 -1402 13334 -9513
45088 309129 275091 -1404 13318 -9529
45098 309133 275091 -1522 13305 -9532
45109 309138 275098 -1534 13281 -9528
45115 309160 275111 -1446 13289 -9499
45125 309170 275114 -1403 13328 -9488
45134 309201 275139 -1435 13334 -9511
45146 309229 275170 -1463 13342 -9528
45159 309265 275188 -1477 13372 -9528
45172 309307 275208 -1466 13395 -9536
45192 309352 275245 -1449 13393 -9548
45211 309445 275287 -1449 13358 -9539
45239 309531 275349 -1471 13343 -9547
45267 309609 275397 -1487 13342 -9562
45293 309670 275419 -1439 13318 -9518
45312 309688 275401 -1486 13286 -9488
45315 309611 275272 -1474 13245 -9444
45314 309517 275127 -1459 13387 -9562
45331 309521 275054 -1407 13545 -9696
45331 309379 274787 -1357 13505 -9757
45337 309331 274612 -1440 13495 -9799
45388 309400 274697 -1569 13677 -9825
45511 309667 275114 -1578 13884 -9786
47316 312711 283136 -1639 14368 -9469
47472 313674 283810 -1771 14712 -8993
47626 314729 284450 -1584 15007 -8477
47748 315731 284965 -1162 14726 -8128
47810 316466 285311 -1034 13808 -8025
47863 317115 285631 -1303 13131 -8015
47922 317583 285891 -1548 12998 -7982
47945 317787 285929 -1479 13246 -8007
47961 317942 285974 -1332 13538 -8161
47942 317909 285884 -1492 13767 -8380
47936 317907 285863 -1780 13826 -8419
47919 317847 285798 -1837 13701 -8305
47870 317684 285599 -1609 13657 -8271
47787 317392 285300 -1506 13693 -8314
47642 316870 284774 -1686 13790 -8357
47401 315964 283924 -1641 13924 -8528
47087 314748 282811 -1413 13969 -8817
46785 313641 281703 -1453 14050 -9029
46556 312830 280819 -1619 14061 -9084
46379 312161 280081 -1657 13889 -9138
46252 311563 279448 -1597 13709 -9222
46161 311084 278909 -1558 13566 -9211
46080 310659 278392 -1608 13455 -9170
46011 310224 277851 -1651 13336 -9143
45971 309881 277406 -1591 13131 -9121
45948 309633 277064 -1510 13029 -9140
45936 309450 276788 -1512 13124 -9257
45929 309315 276581 -1579 13407 -9367
45936 309284 276476 -1565 13670 -9403
45942 309272 276360 -1408 13634 -9477
45940 309197 276218 -1317 13504 -9533
45923 309128 276087 -1358 13462 -9583
45894 309036 275925 -1382 13457 -9615
45857 308946 275793 -1364 13463 -9643
45823 308901 275694 -1420 13561 -9681
45792 308865 275629 -1485 13630 -9648
45765 308845 275582 -1436 13555 -9603
45741 308837 275543 -1422 13494 -9528
45728 308856 275533 -1451 13495 -9423
45718 308879 275522 -1462 13494 -9396
45712 308921 275530 -1415 13458 -9409
45706 308942 275512 -1384 13456 -9405
45707 308999 275532 -1457 13489 -9417
45704 309020 275511 -1509 13501 -9416
45707 309074 275523 -1531 13524 -9413
45710 309115 275541 -1532 13531 -9399
45711 309141 275546 -1544 13488 -9385
45710 309186 275565 -1601 13456 -9382
45711 309234 275587 -1627 13460 -9372
45710 309275 275599 -1590 13479 -9374
45708 309311 275623 -1527 13519 -9366
45710 309363 275626 -1545 13534 -9346
45715 309401 275654 -1618 13538 -9323
45722 309463 275676 -1582 13541 -9300
45726 309504 275697 -1542 13539 -9288
45733 309534 275704 -1598 13541 -9272
45747 309583 275726 -1641 13507 -9259
45752 309608 275733 -1631 13506 -9259
45762 309639 275737 -1607 13537 -9252
45774 309661 275740 -1599 13530 -9232
45788 309697 275762 -1544 13520 -9217
45798 309705 275748 -1578 13529 -9232
45814 309714 275737 -1595 13526 -9244
45824 309700 275706 -1586 13520 -9233
45830 309694 275676 -1584 13545 -9249
45830 309615 275617 -1591 13546 -9268
45824 309561 275574 -1594 13526 -9246
45805 309508 275549 -1581 13536 -9243
45783 309471 275517 -1585 13552 -9269
45754 309441 275491 -1544 13572 -9289
45733 309437 275482 -1544 13547 -9278
45712 309431 275464 -1556 13533 -9237
45698 309421 275461 -1565 13521 -9231
45690 309433 275469 -1547 13537 -9266
45679 309416 275456 -1501 13564 -9291
45668 309393 275440 -1524 13596 -9310
45669 309387 275420 -1559 13600 -9306
45664 309380 275397 -1532 13565 -9293
45660 309354 275379 -1487 13555 -9275
45660 309335 275366 -1481 13542 -9254
45657 309304 275354 -1521 13526 -9243
45656 309292 275353 -1565 13553 -9215
45651 309269 275330 -1567 13583 -9208
45646 309229 275308 -1536 13581 -9234
45646 309237 275300 -1542 13591 -9207
45649 309241 275311 -1591 13592 -9176
45651 309247 275314 -1572 13572 -9179
45660 309267 275325 -1514 13593 -9178
45672 309321 275376 -1530 13616 -9172
45689 309369 275403 -1565 13608 -9183
45703 309413 275439 -1569 13617 -9199
45723 309468 275486 -1555 13613 -9191
45748 309577 275573 -1550 13597 -9179
45773 309682 275643 -1557 13599 -9181
45794 309744 275679 -1564 13621 -9177
45816 309778 275715 -1555 13645 -9157
45840 309845 275759 -1542 13654 -9162
45855 309870 275768 -1553 13669 -9167
45868 309874 275749 -1568 13683 -9155
45881 309868 275735 -1496 13611 -9156
45883 309821 275686 -1510 13621 -9152
45872 309720 275599 -1524 13622 -9144
45854 309653 275568 -1564 13641 -9127
45822 309569 275496 -1587 13660 -9131
45794 309522 275467 -1582 13644 -9136
45770 309487 275434 -1572 13644 -9119
45746 309460 275405 -1573 13658 -9080
45725 309426 275377 -1596 13663 -9103
45710 309398 275353 -1477 13640 -9170
45696 309373 275348 -1501 13643 -9184
45692 309367 275352 -1556 13636 -9201
45684 309367 275343 -1522 13605 -9212
45683 309379 275354 -1478 13580 -9195
45677 309359 275327 -1501 13577 -9178
45675 309337 275324 -1542 13569 -9180
45673 309338 275306 -1535 13564 -9176
45671 309322 275304 -1494 13569 -9202
45667 309307 275289 -1430 13588 -9182
45663 309304 275282 -1484 13601 -9167
45661 309290 275280 -1481 13601 -9197
45660 309289 275285 -1434 13577 -9216
45661 309291 275283 -1482 13553 -9234
45663 309280 275276 -1548 13543 -9246
45670 309277 275270 -1535 13540 -9258
45676 309246 275259 -1478 13528 -9262
45686 309225 275248 -1460 13527 -9257
45694 309200 275223 -1457 13529 -9256
45702 309181 275216 -1439 13532 -9277
45714 309187 275230 -1456 13541 -9305
45725 309191 275225 -1496 13532 -9296
45738 309201 275221 -1494 13538 -9291
45751 309151 275176 -1480 13552 -9327
45768 309133 275164 -1495 13528 -9352
45792 309137 275167 -1507 13480 -9352
45812 309160 275198 -1507 13449 -9370
45831 309187 275175 -1488 13432 -9377
45850 309210 275177 -1448 13438 -9362
45861 309184 275155 -1410 13461 -9369
45858 309127 275122 -1454 13473 -9385
45849 309115 275127 -1502 13475 -9396
45828 309099 275107 -1477 13474 -9396
45807 309097 275111 -1475 13465 -9363
45792 309137 275148 -1513 13455 -9323
45780 309171 275174 -1561 13473 -9345
45767 309198 275194 -1522 13482 -9382
45761 309235 275215 -1450 13503 -9402
45758 309289 275240 -1476 13506 -9428
45759 309312 275265 -1464 13470 -9401
45754 309339 275277 -1405 13448 -9368
45761 309377 275293 -1410 13433 -9351
45790 309498 275367 -1518 13447 -9335
45802 309507 275375 -1498 13442 -9321
45814 309514 275387 -1525 13423 -9328
45828 309516 275386 -1547 13414 -9351
45843 309528 275397 -1530 13428 -9356
45860 309542 275402 -1505 13464 -9355
45874 309553 275409 -1482 13462 -9365
45892 309575 275420 -1482 13430 -9360
45911 309582 275430 -1479 13421 -9377
45926 309582 275431 -1499 13417 -9403
45947 309618 275452 -1514 13428 -9409
45971 309637 275464 -1523 13444 -9395
45986 309633 275457 -1524 13450 -9399
46005 309633 275446 -1515 13454 -9412
46023 309635 275443 -1531 13455 -9415
46027 309559 275374 -1484 13487 -9386
46026 309493 275347 -1452 13469 -9345
46017 309453 275349 -1493 13488 -9307
45998 309415 275320 -1538 13484 -9335
45983 309413 275327 -1533 13467 -9371
45971 309429 275338 -1437 13464 -9373
45961 309439 275335 -1421 13474 -9404
45954 309416 275324 -1490 13486 -9396
45955 309447 275328 -1479 13469 -9373
45955 309465 275344 -1426 13454 -9355
45955 309457 275343 -1405 13454 -9335
45959 309472 275339 -1456 13441 -9325
45967 309466 275319 -1511 13432 -9313
45972 309443 275307 -1505 13464 -9331
45981 309422 275300 -1477 13488 -9345
45990 309420 275308 -1479 13485 -9313
45989 309393 275274 -1531 13487 -9304
45990 309351 275252 -1519 13492 -9300
45994 309330 275247 -1442 13493 -9281
46001 309334 275253 -1465 13502 -9299
46008 309330 275266 -1513 13503 -9311
46018 309332 275250 -1503 13500 -9305
46030 309338 275267 -1466 13489 -9305
46041 309348 275268 -1443 13492 -9304
46055 309353 275261 -1475 13525 -9301
46356 309600 275472 -1474 13524 -9324
46342 309559 275439 -1533 13541 -9320
46323 309505 275399 -1527 13520 -9281
46310 309451 275373 -1458 13505 -9261
46300 309406 275328 -1428 13500 -9261
46294 309341 275281 -1471 13480 -9251
46288 309288 275247 -1536 13455 -9271
46285 309262 275200 -1553 13468 -9288
46281 309177 275114 -1515 13493 -9306
46281 309126 275056 -1477 13517 -9326
46283 309092 275036 -1513 13539 -9314
46281 309041 274993 -1567 13529 -9296
46277 309006 274973 -1509 13498 -9308
46278 308999 274980 -1457 13504 -9325
46280 308992 274971 -1493 13532 -9318
46281 309007 274987 -1538 13517 -9323
46288 309055 275026 -1522 13501 -9317
46294 309119 275060 -1479 13509 -9307
46307 309166 275098 -1489 13510 -9316
46314 309207 275131 -1498 13506 -9325
46324 309243 275160 -1494 13525 -9321
46334 309287 275174 -1496 13529 -9325
46348 309336 275206 -1485 13509 -9329
46360 309399 275249 -1459 13503 -9326
46375 309474 275271 -1435 13487 -9329
46392 309534 275315 -1456 13453 -9325
46409 309608 275352 -1488 13438 -9329
46430 309685 275401 -1481 13440 -9353
46455 309796 275465 -1485 13450 -9374
46489 309904 275550 -1508 13475 -9377
46519 310003 275628 -1508 13484 -9387
46553 310103 275709 -1495 13509 -9400
46590 310209 275800 -1482 13541 -9405
46632 310352 275930 -1494 13525 -9401
46694 310574 276147 -1465 13482 -9383
46746 310738 276334 -1515 13501 -9390
46808 310917 276539 -1554 13543 -9402
46884 311087 276776 -1577 13627 -9421
46936 311061 276860 -1575 13694 -9400
46959 310990 276914 -1552 13776 -9321
46989 310992 277045 -1531 13799 -9230
47029 310997 277225 -1554 13716 -9098
47041 310818 277289 -1590 13724 -9003
47082 310791 277574 -1596 13992 -8972
47175 310923 278083 -1566 14079 -8826
47333 311165 278816 -1491 14160 -8666
47523 311355 279616 -1467 14503 -8528
47732 311606 280491 -1477 14816 -8372
47934 312007 281375 -1357 14862 -8335
48079 312317 282028 -1171 14584 -8321
48180 312531 282462 -1155 13936 -8274
48285 312881 282952 -1308 13294 -8206
48410 313485 283519 -1526 13306 -8256
48653 314927 284593 -1438 13548 -8383
48930 316697 285758 -1518 13787 -8392
49059 317717 286277 -1723 13875 -8347
49040 318011 286226 -1657 13714 -8281
49020 318216 286253 -1573 13429 -8273
49023 318442 286312 -1576 13453 -8354
49010 318589 286294 -1586 13748 -8464
48969 318536 286168 -1611 13764 -8791
48948 318497 286079 -1606 14041 -9221
48932 318432 285969 -1556 14090 -9446
48881 318213 285706 -1567 13932 -9505
48830 317991 285522 -1602 13779 -9252
48738 317643 285197 -1676 13546 -9063
48554 316902 284524 -1688 13228 -9099
48233 315569 283326 -1556 13075 -9154
47808 313863 281758 -1450 13003 -9112
47440 312544 280383 -1503 13009 -9006
47191 311674 279325 -1572 13257 -8947
47057 311166 278615 -1564 13676 -9183
46962 310712 278008 -1556 13904 -9518
46886 310305 277453 -1548 13793 -9622
46826 309920 276914 -1440 13573 -9574
46790 309619 276475 -1314 13530 -9450
46770 309487 276173 -1300 13583 -9442
46748 309341 275931 -1434 13589 -9541
46723 309214 275762 -1499 13587 -9581
46693 309160 275663 -1490 13568 -9558
46653 309105 275524 -1485 13479 -9528
46609 309031 275380 -1427 13392 -9492
46567 309011 275268 -1406 13401 -9493
46531 309010 275182 -1466 13407 -9524
46503 309012 275113 -1532 13361 -9542
46473 309018 275046 -1543 13354 -9589
46448 309015 275003 -1534 13376 -9631
46439 309065 275001 -1519 13368 -9651
46427 309117 275015 -1515 13356 -9653
46426 309200 275053 -1551 13374 -9658
46419 309230 275049 -1587 13381 -9650
46421 309278 275083 -1503 13399 -9551
46419 309340 275104 -1562 13365 -9526
46413 309375 275119 -1622 13320 -9494
46407 309431 275154 -1615 13339 -9469
46399 309469 275160 -1576 13391 -9443
46392 309497 275153 -1570 13413 -9415
46383 309531 275166 -1591 13416 -9406
46384 309596 275200 -1600 13439 -9405
46380 309633 275222 -1602 13437 -9391
46377 309679 275250 -1587 13381 -9650
46378 309737 275289 -1503 13399 -9551
46384 309798 275344 -1562 13365 -9526
46387 309853 275370 -1622 13320 -9494
46391 309880 275386 -1615 13339 -9469
46393 309919 275406 -1576 13391 -9443
46400 309969 275438 -1570 13413 -9415
46410 310017 275470 -1591 13416 -9406
46418 310039 275492 -1600 13439 -9405
46423 310037 275486 -1602 13437 -9391
46428 310050 275468 -1561 13470 -9336
46432 310077 275466 -1581 13461 -9331
46433 310041 275447 -1607 13452 -9350
46420 309973 275399 -1615 13439 -9339
46399 309935 275372 -1601 13421 -9315
46368 309907 275360 -1600 13437 -9306
46334 309852 275326 -1623 13480 -9322
46302 309858 275335 -1616 13498 -9334
46274 309871 275346 -1619 13481 -9315
46247 309879 275345 -1632 13478 -9283
46224 309884 275348 -1626 13485 -9271
46205 309897 275362 -1640 13485 -9285
46197 309925 275383 -1616 13483 -9292
46175 309885 275356 -1598 13502 -9319
46169 309913 275371 -1637 13542 -9345
46157 309880 275348 -1634 13528 -9336
46151 309873 275333 -1604 13492 -9341
46150 309915 275382 -1583 13469 -9331
46142 309919 275391 -1598 13441 -9292
46133 309927 275413 -1633 13440 -9284
46128 309945 275430 -1625 13476 -9288
46113 309929 275424 -1592 13535 -9290
46108 309952 275450 -1559 13580 -9252
46097 309949 275434 -1580 13580 -9234
46089 309945 275425 -1630 13593 -9255
46074 309903 275397 -1575 13591 -9247
46070 309904 275381 -1534 13581 -9251
46065 309877 275355 -1588 13583 -9218
46061 309878 275339 -1635 13577 -9188
46064 309906 275358 -1635 13583 -9196
46073 309935 275366 -1560 13571 -9188
46083 309952 275378 -1525 13581 -9211
46086 309979 275383 -1562 13574 -9238
46092 309989 275378 -1582 13566 -9229
46103 310022 275394 -1582 13574 -9222
46114 310034 275394 -1589 13576 -9213
46121 310053 275394 -1602 13581 -9201
46124 310068 275395 -1608 13578 -9222
46129 310049 275383 -1605 13570 -9268
46118 309987 275348 -1587 13543 -9291
46094 309951 275337 -1535 13496 -9278
46059 309940 275332 -1573 13498 -9271
46027 309949 275341 -1612 13551 -9282
45992 309955 275342 -1604 13571 -9287
45962 309990 275351 -1599 13558 -9256
45933 309994 275347 -1621 13561 -9206
45908 310013 275357 -1638 13544 -9205
45887 310025 275351 -1620 13523 -9254
45871 310036 275366 -1581 13516 -9309
45851 310037 275360 -1565 13533 -9329
45847 310113 275411 -1555 13522 -9320
45837 310113 275402 -1545 13489 -9306
45826 310103 275393 -1566 13466 -9287
45812 310097 275381 -1583 13453 -9281
45801 310090 275368 -1598 13453 -9275
45786 310086 275363 -1609 13478 -9285
45773 310089 275352 -1586 13502 -9328
45764 310107 275354 -1548 13495 -9316
45752 310118 275357 -1583 13497 -9306
45744 310127 275356 -1527 13500 -9314
45747 310185 275392 -1520 13497 -9344
45746 310230 275427 -1586 13470 -9372
45744 310256 275434 -1597 13465 -9379
45742 310246 275424 -1553 13461 -9351
45747 310280 275445 -1516 13465 -9349
45747 310278 275414 -1535 13466 -9347
45749 310279 275404 -1556 13445 -9350
45752 310288 275418 -1544 13424 -9358
45757 310282 275396 -1518 13444 -9347
45762 310283 275385 -1516 13474 -9344
45773 310289 275390 -1535 13466 -9352
45783 310299 275398 -1537 13460 -9397
45790 310302 275374 -1528 13454 -9417
45792 310295 275362 -1536 13425 -9385
45801 310281 275345 -1548 13409 -9403
45784 310178 275294 -1550 13427 -9431
45766 310150 275282 -1572 13430 -9434
45737 310112 275266 -1573 13430 -9450
45703 310093 275248 -1512 13423 -9447
45673 310096 275258 -1511 13405 -9425
45645 310094 275264 -1569 13413 -9378
45627 310110 275274 -1601 13409 -9398
45606 310122 275286 -1599 13409 -9452
45588 310122 275287 -1558 13416 -9473
45577 310151 275313 -1565 13424 -9484
45566 310155 275313 -1585 13429 -9446
45562 310216 275343 -1564 13401 -9408
45558 310212 275335 -1553 13375 -9395
45554 310212 275332 -1551 13363 -9393
45556 310233 275344 -1571 13350 -9405
45555 310230 275356 -1605 13360 -9404
45549 310248 275357 -1612 13398 -9382
45544 310262 275371 -1591 13430 -9377
45540 310256 275378 -1582 13466 -9378
45538 310276 275372 -1603 13475 -9394
45536 310284 275385 -1576 13436 -9400
45536 310301 275393 -1553 13418 -9398
45539 310309 275404 -1594 13425 -9414
45540 310334 275410 -1580 13416 -9401
45549 310333 275404 -1542 13402 -9410
45555 310345 275406 -1542 13401 -9410
45564 310346 275400 -1573 13405 -9423
45573 310346 275391 -1591 13404 -9433
45582 310352 275392 -1577 13418 -9433
45597 310365 275386 -1561 13432 -9429
45609 310357 275381 -1570 13423 -9427
45630 310367 275401 -1586 13409 -9444
45647 310382 275406 -1530 13390 -9420
45660 310363 275398 -1507 13372 -9431
45673 310356 275381 -1519 13372 -9445
45684 310313 275346 -1548 13396 -9449
45676 310192 275282 -1590 13432 -9442
45660 310154 275268 -1597 13456 -9438
45634 310085 275236 -1571 13450 -9422
45607 310043 275217 -1586 13427 -9372
45581 310027 275214 -1605 13443 -9360
45559 310028 275229 -1535 13442 -9422
45541 310001 275230 -1493 13419 -9438
45526 309978 275215 -1544 13443 -9449
45516 309961 275209 -1545 13445 -9419
45511 309959 275230 -1510 13421 -9381
45503 309921 275209 -1508 13406 -9371
45504 309977 275251 -1556 13390 -9373
45505 309985 275235 -1588 13399 -9369
45506 309984 275232 -1581 13421 -9348
45509 310006 275253 -1544 13451 -9348
45511 310016 275249 -1487 13481 -9346
45508 310024 275258 -1515 13491 -9348
45506 310038 275268 -1579 13514 -9351
45504 310041 275259 -1525 13492 -9347
45597 309923 275176 -1556 13457 -9389
45614 309896 275148 -1571 13440 -9393
45628 309905 275141 -1581 13436 -9392
45642 309905 275120 -1568 13432 -9389
45664 309911 275112 -1550 13421 -9398
45684 309946 275112 -1558 13417 -9415
45701 309967 275085 -1522 13438 -9446
45714 309982 275053 -1559 13441 -9457
45717 309941 274973 -1599 13444 -9467
45697 309834 274835 -1581 13416 -9446
45659 309705 274668 -1552 13391 -9418
45594 309492 274363 -1576 13388 -9386
45500 309258 273954 -1604 13363 -9387
45408 309120 273594 -1596 13365 -9432
45341 309134 273379 -1549 13344 -9460
45299 309227 273259 -1568 13266 -9471
45295 309401 273330 -1513 13166 -9501
45381 309706 273742 -1435 13122 -9621
45495 309952 274212 -1485 13178 -9745
45620 310194 274759 -1585 13238 -9834
45772 310533 275441 -1606 13373 -10006
45892 310656 275895 -1524 13663 -10192
46005 310932 276448 -1477 13729 -10139
46137 311477 277174 -1570 13560 -9905
46240 311777 277683 -1701 13627 -9384
46282 311710 277879 -1524 13850 -8999
46297 311445 277919 -1473 13637 -8768
46333 311209 278070 -1661 13441 -8769
46403 310967 278336 -1676 13688 -8714
46520 310737 278820 -1513 13822 -8600
46677 310725 279503 -1343 14106 -8483
46843 311088 280264 -1324 14497 -8365
46968 311506 280856 -1405 14990 -8279
47063 311954 281333 -1318 15164 -8207
47167 312530 281853 -999 14556 -8098
47293 313290 282470 -1001 13561 -8018
47456 314250 283145 -1402 12993 -7994
47606 315200 283709 -1604 13278 -8043
47705 315877 284064 -1503 13778 -8228
47827 316705 284534 -1480 13954 -8381
47933 317380 284900 -1600 13912 -8356
48013 317923 285169 -1632 13843 -8285
48087 318368 285411 -1564 13926 -8351
48115 318620 285472 -1572 13995 -8410
48091 318642 285354 -1618 13917 -8473
48026 318485 285081 -1640 13922 -8655
47898 318042 284586 -1709 13919 -8790
47680 317240 283790 -1733 13813 -8815
47428 316312 282939 -1719 13752 -8875
47174 315393 282069 -1734 13744 -9039
46935 314489 281191 -1724 13602 -9087
46689 313593 280283 -1623 13366 -9051
46443 312683 279323 -1605 13405 -9123
46239 311904 278444 -1686 13598 -9182
46077 311242 277671 -1624 13611 -9213
45932 310574 276871 -1481 13482 -9204
45837 310138 276313 -1358 13368 -9124
45790 309900 275971 -1360 13312 -9162
45747 309726 275688 -1485 13338 -9262
45717 309622 275503 -1517 13380 -9379
45704 309619 275435 -1417 13457 -9601
45697 309649 275385 -1301 13626 -9724
45683 309660 275331 -1323 13665 -9711
45668 309659 275272 -1430 13572 -9718
45662 309708 275272 -1433 13490 -9640
45659 309763 275271 -1527 13467 -9598
45650 309770 275245 -1552 13405 -9590
45645 309788 275230 -1543 13391 -9586
45646 309821 275241 -1565 13437 -9588
45645 309859 275255 -1574 13394 -9568
45650 309877 275265 -1545 13375 -9542
45657 309922 275295 -1547 13420 -9535
45667 309976 275320 -1580 13418 -9520
45679 310014 275345 -1522 13387 -9458
45689 310055 275354 -1542 13403 -9455
45699 310093 275372 -1579 13386 -9456
45709 310116 275380 -1583 13345 -9463
45726 310160 275397 -1573 13345 -9460
45737 310181 275414 -1597 13388 -9461
45749 310202 275402 -1631 13418 -9465
45756 310205 275371 -1616 13401 -9447
45768 310223 275369 -1599 13405 -9395
45764 310185 275352 -1595 13447 -9345
45756 310194 275363 -1606 13478 -9363
45737 310179 275357 -1601 13489 -9378
45711 310176 275352 -1576 13498 -9365
45688 310184 275354 -1605 13513 -9381
45669 310212 275368 -1615 13504 -9365
45651 310243 275379 -1576 13477 -9333
45637 310264 275398 -1565 13463 -9316
45628 310306 275419 -1584 13443 -9285
45618 310343 275449 -1597 13403 -9272
45607 310338 275430 -1603 13413 -9293
45598 310378 275432 -1573 13445 -9318
45588 310348 275393 -1541 13452 -9317
45587 310355 275395 -1559 13481 -9290
45588 310386 275394 -1615 13518 -9297
45580 310379 275387 -1612 13523 -9301
45579 310359 275369 -1559 13529 -9309
45575 310353 275360 -1571 13535 -9315
45577 310365 275349 -1614 13512 -9294
45576 310399 275377 -1616 13510 -9304
45586 310420 275399 -1578 13537 -9301
45598 310494 275453 -1543 13545 -9294
45612 310584 275506 -1554 13530 -9289
45633 310719 275603 -1588 13543 -9284
45660 310895 275750 -1598 13553 -9288
45704 311110 275928 -1593 13562 -9323
45743 311282 276081 -1594 13586 -9329
45782 311433 276253 -1615 13597 -9313
45825 311592 276421 -1643 13599 -9308
45864 311665 276552 -1626 13589 -9257
45891 311663 276576 -1595 13605 -9240
45908 311635 276569 -1554 13561 -9195
45917 311591 276525 -1539 13505 -9166
45913 311502 276425 -1537 13486 -9140
45892 311280 276253 -1560 13532 -9125
45850 311036 276042 -1591 13571 -9100
45806 310865 275884 -1570 13576 -9099
45752 310694 275703 -1497 13549 -9189
45704 310568 275579 -1477 13571 -9265
45670 310531 275515 -1528 13606 -9308
45648 310504 275483 -1504 13525 -9288
45628 310487 275452 -1538 13509 -9288
45608 310467 275404 -1586 13504 -9307
45593 310441 275372 -1609 13517 -9310
45585 310445 275355 -1604 13533 -9305
45574 310416 275302 -1580 13534 -9334
45569 310393 275258 -1570 13546 -9302
45562 310355 275211 -1605 13532 -9275
45561 310340 275200 -1607 13498 -9279
45562 310333 275193 -1516 13502 -9275
45560 310315 275164 -1498 13518 -9298
45554 310287 275140 -1580 13509 -9309
45558 310325 275167 -1615 13483 -9332
45567 310380 275216 -1587 13464 -9337
45575 310404 275224 -1552 13470 -9332
45579 310395 275216 -1554 13487 -9343
45586 310399 275241 -1577 13520 -9364
45597 310423 275257 -1606 13514 -9366
45605 310422 275275 -1621 13497 -9345
45616 310461 275299 -1594 13499 -9326
45628 310465 275322 -1535 13492 -9324
45642 310490 275336 -1521 13479 -9340
45657 310514 275354 -1548 13456 -9362
45672 310509 275344 -1557 13440 -9369
45685 310501 275325 -1551 13430 -9371
45696 310506 275323 -1550 13421 -9369
45713 310526 275334 -1572 13445 -9374
45730 310549 275340 -1608 13479 -9395
45749 310565 275342 -1598 13486 -9394
45763 310560 275329 -1533 13472 -9366
45779 310566 275334 -1497 13449 -9316
45785 310545 275340 -1528 13479 -9306
45781 310513 275350 -1579 13485 -9361
45759 310455 275318 -1551 13469 -9400
45730 310424 275308 -1522 13485 -9401
45705 310416 275325 -1552 13487 -9397
45682 310423 275313 -1550 13476 -9388
45662 310430 275311 -1515 13444 -9355
45643 310417 275285 -1508 13415 -9334
45627 310407 275268 -1542 13404 -9338
45619 310412 275275 -1538 13462 -9325
45612 310404 275254 -1535 13505 -9364
45607 310430 275244 -1516 13507 -9342
45600 310412 275228 -1540 13495 -9311
45598 310405 275236 -1602 13495 -9289
45596 310386 275228 -1530 13486 -9301
45591 310357 275222 -1502 13475 -9328
45582 310356 275231 -1592 13478 -9327
45578 310337 275220 -1622 13474 -9335
45576 310333 275234 -1483 13476 -9301
45574 310345 275249 -1533 13451 -9354
45573 310357 275264 -1585 13434 -9388
45576 310370 275282 -1596 13440 -9382
45578 310384 275290 -1572 13446 -9366
45587 310408 275299 -1572 13446 -9344
45593 310404 275308 -1601 13441 -9340
45600 310417 275314 -1626 13441 -9371
45607 310437 275317 -1625 13435 -9395
45623 310471 275346 -1589 13449 -9399
45635 310498 275365 -1553 13464 -9383
45649 310516 275379 -1553 13449 -9371
45665 310518 275391 -1557 13443 -9386
45681 310551 275410 -1566 13447 -9395
45699 310566 275445 -1580 13481 -9388
45722 310597 275482 -1565 13485 -9355
45742 310609 275495 -1560 13452 -9306
45760 310620 275493 -1573 13478 -9270
45775 310618 275487 -1592 13511 -9310
45770 310515 275426 -1581 13517 -9354
45761 310477 275423 -1446 13524 -9360
45740 310434 275391 -1496 13520 -9340
45716 310418 275394 -1493 13483 -9319
45692 310401 275395 -1487 13440 -9304
45677 310407 275407 -1498 13433 -9309
45662 310405 275409 -1540 13436 -9300
45648 310386 275401 -1577 13460 -9284
45637 310388 275402 -1565 13516 -9290
45630 310382 275404 -1515 13551 -9289
45619 310349 275392 -1581 13517 -9354
45621 310369 275408 -1446 13524 -9360
45616 310351 275382 -1496 13520 -9340
45618 310324 275381 -1493 13483 -9319
45622 310331 275375 -1487 13440 -9304
45620 310311 275371 -1498 13433 -9309
45620 310317 275379 -1540 13436 -9300
45622 310313 275391 -1577 13460 -9284
45621 310313 275376 -1565 13516 -9290
45619 310304 275373 -1515 13551 -9289
45619 310297 275371 -1522 13556 -9261
45620 310291 275372 -1533 13538 -9275
45624 310292 275372 -1468 13512 -9264
45636 310312 275394 -1499 13502 -9280
45646 310318 275400 -1578 13509 -9287
45657 310337 275417 -1577 13516 -9292
45667 310329 275410 -1513 13529 -9275
45679 310352 275433 -1490 13538 -9255
45697 310387 275451 -1532 13536 -9257
45712 310404 275464 -1542 13531 -9269
45729 310386 275445 -1521 13525 -9273
45745 310373 275440 -1523 13524 -9263
45760 310339 275409 -1543 13530 -9265
45780 310348 275438 -1547 13523 -9268
45803 310392 275434 -1544 13513 -9278
45824 310395 275458 -1548 13519 -9291
45845 310405 275447 -1535 13526 -9297
45866 310420 275448 -1543 13540 -9292
45864 310345 275394 -1580 13538 -9296
45856 310325 275380 -1565 13517 -9314
45844 310333 275368 -1513 13510 -9315
45822 310316 275355 -1533 13517 -9296
45795 310301 275330 -1579 13546 -9305
45773 310300 275318 -1566 13550 -9311
45755 310313 275303 -1532 13533 -9296
45739 310284 275274 -1550 13522 -9252
45724 310276 275244 -1603 13508 -9246
45705 310227 275181 -1578 13512 -9284
45680 310104 275028 -1505 13504 -9304
45635 309905 274764 -1524 13518 -9337
45597 309712 274487 -1529 13537 -9326
45558 309514 274212 -1471 13516 -9302
45540 309453 274072 -1470 13489 -9283
45522 309420 273960 -1524 13467 -9254
45510 309401 273898 -1576 13452 -9251
45505 309412 273865 -1585 13440 -9251
45499 309418 273832 -1564 13454 -9246
45491 309430 273792 -1526 13448 -9256
45492 309458 273790 -1514 13402 -9235
45496 309497 273799 -1566 13381 -9285
45505 309525 273797 -1489 13382 -9433
45508 309550 273780 -1497 13360 -9561
45519 309575 273765 -1573 13336 -9633
45531 309609 273757 -1590 13326 -9669
45538 309640 273736 -1538 13303 -9671
45544 309670 273701 -1491 13243 -9667
45561 309709 273684 -1500 13192 -9680
45585 309781 273719 -1541 13197 -9711
45633 309919 273842 -1566 13192 -9741
45710 310134 274115 -1448 13202 -9727
45816 310403 274493 -1454 13152 -9724
45906 310585 274774 -1469 13143 -9744
46007 310810 275144 -1473 13139 -9773
46124 311028 275551 -1470 13118 -9811
46239 311152 275910 -1472 13128 -9851
46352 311269 276315 -1498 13165 -9896
46494 311428 276931 -1529 13247 -9961
46663 311611 277720 -1501 13454 -10050
46834 311592 278456 -1429 13592 -10037
47015 311564 279194 -1424 13502 -9846
47195 311801 279994 -1520 13488 -9713
47349 312227 280743 -1596 13653 -9617
47443 312639 281258 -1650 13764 -9431
47527 313078 281715 -1705 13913 -9235
47608 313616 282177 -1747 14186 -8975
47663 314172 282554 -1723 14527 -8671
47726 314775 282885 -1587 14769 -8401
47764 315247 283062 -1341 14569 -8195
47764 315592 283112 -1126 13908 -8044
47774 315983 283220 -1196 13344 -7952
47790 316425 283370 -1441 13202 -7972
47806 316791 283475 -1505 13426 -8081
47808 317064 283536 -1286 13781 -8266
47780 317178 283469 -1249 13820 -8359
47742 317221 283354 -1467 13715 -8297
47671 317063 283116 -1569 13812 -8264
47578 316790 282806 -1475 13927 -8274
47479 316481 282520 -1417 13853 -8347
47359 316072 282114 -1528 13732 -8519
47204 315510 281548 -1609 13825 -8719
47000 314708 280769 -1583 13988 -8890
46769 313772 279835 -1586 13855 -9011
46578 312978 278981 -1663 13717 -9134
46375 312010 277915 -1710 13793 -9245
46183 311029 276790 -1724 13774 -9285
46064 310382 276004 -1687 13668 -9302
46001 310054 275520 -1600 13575 -9282
45970 309843 275169 -1596 13436 -9189
45951 309700 274931 -1656 13312 -9084
45952 309708 274838 -1420 13316 -9053
45963 309795 274855 -1465 13414 -9067
45982 309877 274860 -1445 13310 -8969
46000 309974 274913 -1302 13077 -9127
46023 310051 274944 -1230 13242 -9520
46046 310132 274976 -1264 13669 -9848
46061 310174 274989 -1330 13817 -9985
46073 310167 274983 -1395 13637 -9961
46066 310110 274934 -1468 13474 -9903
46047 310065 274901 -1501 13444 -9753
46022 310063 274883 -1502 13413 -9704
45999 310074 274900 -1503 13386 -9644
45975 310091 274908 -1509 13348 -9583
45955 310124 274928 -1523 13293 -9581
45939 310142 274940 -1513 13275 -9611
45924 310171 274947 -1465 13255 -9587
45910 310209 274963 -1479 13245 -9580
45899 310229 274977 -1524 13281 -9603
45890 310241 274968 -1464 13380 -9559
45883 310279 274980 -1494 13284 -9489
45878 310279 274964 -1562 13279 -9469
45882 310333 274976 -1602 13310 -9465
45882 310378 275009 -1591 13326 -9458
45885 310421 275031 -1571 13369 -9468
45880 310444 275041 -1569 13417 -9434
45878 310485 275061 -1595 13417 -9420
45881 310544 275095 -1625 13430 -9425
45879 310582 275114 -1558 13464 -9410
45884 310628 275154 -1529 13466 -9420
45889 310677 275184 -1591 13427 -9430
45893 310699 275196 -1623 13394 -9424
45893 310702 275180 -1613 13376 -9412
45901 310724 275189 -1594 13387 -9428
45910 310736 275186 -1581 13397 -9435
45918 310734 275184 -1584 13401 -9430
45933 310735 275167 -1616 13414 -9450
45945 310708 275155 -1630 13404 -9460
45960 310643 275108 -1612 13400 -9440
45978 310599 275091 -1599 13406 -9421
46000 310583 275110 -1606 13391 -9404
46022 310565 275125 -1610 13401 -9412
46042 310554 275112 -1600 13431 -9427
46060 310508 275095 -1598 13466 -9441
46058 310395 275027 -1631 13522 -9442
46046 310314 274952 -1651 13524 -9418
46027 310272 274912 -1629 13484 -9364
46001 310212 274871 -1617 13498 -9310
45970 310139 274805 -1616 13550 -9244
45936 310053 274738 -1600 13549 -9186
45910 309997 274675 -1579 13525 -9195
45892 309988 274657 -1542 13486 -9207
45877 310021 274651 -1551 13498 -9212
45873 310065 274683 -1606 13570 -9226
45867 310095 274718 -1604 13593 -9237
45859 310104 274720 -1564 13570 -9223
45864 310143 274740 -1549 13538 -9207
45866 310167 274759 -1573 13516 -9218
45876 310230 274813 -1608 13523 -9257
45885 310293 274866 -1540 13562 -9322
45889 310338 274894 -1538 13566 -9310
45892 310377 274932 -1586 13549 -9296
45898 310426 274964 -1634 13557 -9299
45899 310475 275002 -1574 13556 -9283
45906 310520 275033 -1550 13549 -9282
45907 310551 275052 -1595 13554 -9287
45916 310578 275082 -1620 13527 -9288
45923 310623 275108 -1625 13510 -9289
45934 310672 275131 -1516 13503 -9259
45945 310691 275164 -1531 13502 -9268
45958 310732 275176 -1571 13506 -9290
45973 310777 275203 -1590 13509 -9302
45984 310820 275215 -1577 13530 -9305
46001 310854 275230 -1569 13540 -9310
46024 310887 275272 -1586 13539 -9308
46045 310938 275318 -1588 13540 -9320
46068 310965 275348 -1574 13519 -9338
46085 310981 275340 -1542 13475 -9349
46102 310986 275327 -1513 13449 -9358
46118 310990 275330 -1539 13435 -9349
46119 310916 275279 -1579 13452 -9365
46109 310853 275234 -1561 13440 -9383
46094 310824 275231 -1558 13412 -9358
46077 310820 275232 -1597 13431 -9310
46058 310818 275234 -1616 13430 -9325
46037 310812 275243 -1598 13429 -9386
46019 310804 275223 -1552 13429 -9398
46006 310815 275222 -1554 13439 -9402
45997 310830 275236 -1557 13451 -9405
45993 310857 275257 -1506 13431 -9400
45994 310873 275264 -1483 13412 -9395
45992 310891 275268 -1516 13396 -9389
45992 310884 275258 -1576 13359 -9397
45994 310870 275236 -1614 13353 -9427
46005 310886 275248 -1611 13388 -9435
46015 310929 275280 -1569 13400 -9422
46015 310931 275282 -1555 13415 -9405
46016 310918 275261 -1602 13431 -9416
46012 310903 275245 -1566 13419 -9419
46010 310904 275226 -1486 13381 -9393
46019 310930 275258 -1529 13357 -9426
46030 310984 275300 -1600 13369 -9456
46039 311007 275315 -1578 13393 -9432
46050 311042 275331 -1517 13414 -9418
46060 311052 275330 -1523 13404 -9422
46073 311100 275349 -1570 13382 -9438
46089 311142 275373 -1593 13402 -9453
46105 311194 275399 -1582 13423 -9448
46123 311223 275415 -1531 13418 -9442
46140 311253 275439 -1545 13392 -9427
46155 311279 275446 -1546 13388 -9443
46178 311311 275470 -1558 13377 -9449
46202 311328 275478 -1574 13341 -9456
46217 311320 275465 -1576 13329 -9474
46234 311307 275449 -1602 13345 -9470
46245 311259 275409 -1606 13353 -9446
46238 311130 275329 -1563 13346 -9428
46229 311053 275296 -1525 13341 -9429
46210 310986 275259 -1535 13391 -9405
46188 310932 275233 -1573 13428 -9413
46177 310925 275244 -1582 13416 -9480
46164 310927 275262 -1553 13399 -9510
46158 310915 275252 -1566 13421 -9510
46152 310901 275248 -1594 13426 -9477
46149 310896 275246 -1553 13374 -9442
46149 310896 275237 -1524 13344 -9457
46149 310897 275232 -1546 13331 -9478
46160 310921 275242 -1571 13377 -9466
46168 310892 275213 -1577 13402 -9477
46171 310850 275200 -1558 13412 -9471
46180 310854 275221 -1559 13408 -9429
46185 310858 275234 -1605 13419 -9411
46188 310823 275228 -1574 13395 -9421
46187 310796 275217 -1509 13356 -9437
46190 310766 275198 -1547 13364 -9465
46194 310757 275190 -1621 13369 -9476
46202 310751 275177 -1624 13377 -9446
46210 310759 275174 -1551 13402 -9414
46217 310743 275162 -1520 13395 -9399
46228 310741 275160 -1568 13382 -9404
46241 310759 275176 -1619 13391 -9417
46253 310781 275173 -1636 13408 -9420
46267 310776 275170 -1625 13417 -9413
46283 310807 275177 -1631 13408 -9406
46304 310850 275198 -1640 13395 -9406
46326 310889 275223 -1626 13389 -9399
46351 310927 275251 -1600 13382 -9391
46369 310953 275276 -1569 13381 -9396
46392 310960 275272 -1565 13381 -9406
46406 310976 275280 -1606 13392 -9402
46423 310969 275273 -1635 13439 -9404
46422 310913 275255 -1617 13447 -9401
46415 310892 275250 -1608 13429 -9388
46399 310844 275238 -1632 13430 -9352
46380 310804 275223 -1665 13425 -9344
46364 310800 275252 -1630 13431 -9367
46359 310800 275259 -1552 13444 -9392
46351 310825 275286 -1549 13455 -9416
46350 310847 275305 -1574 13456 -9413
46346 310856 275314 -1549 13433 -9380
46350 310902 275348 -1538 13412 -9361
46350 310927 275361 -1578 13389 -9367
46362 310975 275388 -1623 13378 -9380
46367 310946 275380 -1641 13389 -9385
46376 310963 275380 -1619 13415 -9385
46386 310997 275396 -1584 13429 -9410
46396 311010 275418 -1583 13443 -9406
46401 311002 275415 -1564 13452 -9365
46406 310989 275396 -1523 13453 -9337
46412 310973 275399 -1564 13462 -9360
46415 310965 275400 -1630 13467 -9394
46422 310972 275401 -1629 13457 -9394
46426 310952 275394 -1578 13445 -9366
46435 310956 275397 -1564 13438 -9353
46449 310977 275415 -1599 13424 -9385
46461 310997 275428 -1616 13425 -9402
46476 311029 275448 -1532 13452 -9393
46492 311066 275467 -1544 13435 -9381
46515 311125 275501 -1575 13419 -9382
46538 311174 275534 -1591 13415 -9394
46560 311201 275546 -1582 13392 -9393
46572 311190 275535 -1580 13380 -9380
46594 311201 275540 -1597 13386 -9385
46610 311177 275522 -1603 13423 -9392
46628 311181 275515 -1609 13453 -9394
46643 311191 275508 -1598 13458 -9404
46660 311202 275504 -1556 13463 -9376
46661 311114 275451 -1545 13451 -9355
46652 311041 275409 -1584 13459 -9340
46640 311023 275395 -1615 13462 -9349
46630 311051 275422 -1586 13466 -9386
46621 311104 275462 -1561 13459 -9397
46614 311145 275496 -1589 13451 -9424
46607 311168 275507 -1601 13457 -9418
46598 311159 275487 -1566 13438 -9389
46591 311150 275482 -1531 13418 -9383
46588 311137 275470 -1526 13416 -9360
46594 311163 275508 -1559 13396 -9324
46603 311216 275553 -1608 13384 -9312
46614 311271 275588 -1613 13444 -9327
46629 311313 275624 -1590 13507 -9356
46648 311398 275684 -1572 13524 -9372
46674 311497 275792 -1607 13551 -9412
46704 311603 275905 -1637 13528 -9393
46757 311799 276122 -1573 13478 -9353
46818 311951 276357 -1561 13504 -9383
46870 311992 276489 -1572 13546 -9395
46915 312028 276643 -1562 13627 -9446
46963 312075 276759 -1560 13705 -9456
47011 312112 276911 -1528 13746 -9384
47069 312145 277094 -1529 13655 -9208
47112 312113 277230 -1587 13621 -9025
47162 312108 277391 -1652 13734 -8926
47205 312078 277540 -1648 13807 -8872
47249 312108 277727 -1568 13934 -8862
47306 312186 277955 -1556 13916 -8800
47341 312233 278062 -1632 13808 -8653
47393 312349 278244 -1483 13893 -8537
47450 312570 278450 -1426 14026 -8434
47504 312736 278624 -1403 14114 -8360
47500 312661 278510 -1390 14051 -8355
47460 312427 278248 -1405 13809 -8457
47126 311998 276418 -1587 13728 -8627
47097 311855 276270 -1437 13673 -8537
47068 311767 276171 -1316 13873 -8836
47056 311736 276123 -1473 14007 -9280
47076 311794 276219 -1605 13855 -9365
47097 311837 276265 -1523 13622 -9322
47110 311824 276305 -1414 13675 -9393
47118 311786 276313 -1459 13851 -9411
47147 311854 276438 -1541 13665 -9358
47191 311865 276650 -1509 13576 -9266
47190 311623 276682 -1348 13749 -9042
47214 311649 276896 -1299 13648 -8935
47328 312239 277531 -1677 13566 -9227
47369 312250 277717 -1948 13708 -9396
47360 311945 277646 -1469 13923 -8966
47414 312099 277941 -926 14043 -8712
47519 312420 278434 -1032 14070 -8845
47657 312750 279067 -1157 13796 -8786
47826 313047 279787 -774 13921 -8525
48017 313348 280565 -558 14542 -8399
48202 313713 281277 -777 15040 -8405
48335 314060 281825 -1188 15172 -8406
48459 314526 282343 -1373 14819 -8419
48628 315320 283078 -1074 14205 -8359
48861 316510 283992 -1006 13410 -8253
49065 317703 284816 -1295 12914 -8149
49269 318898 285631 -1501 13221 -8187
49463 320052 286353 -1520 13829 -8353
49571 320835 286754 -1501 13976 -8460
49671 321549 287130 -1591 13742 -8423
49759 322242 287482 -1668 13710 -8389
49813 322842 287716 -1669 13864 -8373
49796 323182 287730 -1674 13771 -8431
49717 323224 287528 -1719 13653 -8641
49612 323083 287234 -1716 13809 -8887
49446 322682 286767 -1723 13725 -9046
49212 321948 286107 -1604 13574 -9134
48897 320743 285109 -1555 13475 -9263
48486 319009 283680 -1659 13337 -9323
47996 316752 281668 -1676 13204 -9238
47672 315361 280237 -1634 13087 -9125
47490 314547 279336 -1640 12938 -8978
47362 313830 278582 -1639 12899 -8859
47207 313004 277710 -1508 13641 -9707
47112 312442 277134 -1555 13841 -9946
47034 312001 276668 -1430 13597 -9803
46961 311541 276176 -1188 13272 -9799
46894 311155 275727 -1152 13240 -9907
46847 310963 275422 -1222 13320 -9982
46825 310927 275287 -1232 13297 -10037
46812 310952 275226 -1232 13253 -10025
46805 310998 275214 -1275 13264 -9997
46805 311091 275259 -1351 13234 -9902
46802 311173 275270 -1356 13180 -9853
46807 311262 275319 -1375 13158 -9834
46810 311330 275331 -1340 13125 -9818
46803 311326 275273 -1313 13095 -9801
46797 311325 275219 -1340 13103 -9831
46799 311327 275200 -1371 13131 -9892
46807 311363 275201 -1396 13146 -9917
46819 311385 275223 -1398 13139 -9930
46833 311435 275241 -1403 13148 -9926
46845 311483 275282 -1414 13174 -9892
46857 311506 275295 -1420 13198 -9868
46857 311480 275276 -1451 13186 -9868
46846 311440 275243 -1465 13144 -9874
46826 311407 275208 -1452 13136 -9875
46805 311390 275184 -1470 13142 -9882
46786 311420 275193 -1495 13127 -9869
46765 311429 275190 -1482 13124 -9845
46747 311450 275186 -1440 13108 -9792
46731 311472 275192 -1432 13083 -9741
46721 311518 275221 -1472 13104 -9717
46716 311565 275262 -1516 13147 -9711
46704 311572 275247 -1516 13191 -9736
46705 311652 275285 -1477 13219 -9724
46705 311664 275274 -1494 13220 -9665
46709 311690 275305 -1562 13239 -9637
46718 311736 275356 -1553 13247 -9629
46722 311795 275394 -1520 13269 -9638
