2025-10-16 03:04:39    绿光---红外光---红光---X轴---Y轴---Z轴
47784 318566 282826 -1645 12974 -10107
47748 318583 282844 -1637 12934 -10097
47713 318597 282861 -1628 12928 -10040
47677 318611 282871 -1639 12933 -10029
47645 318632 282882 -1612 12940 -10049
47621 318640 282889 -1511 12951 -10052
47597 318646 282901 -1500 12970 -10059
47586 318712 282962 -1571 12976 -10050
47557 318679 282935 -1524 12985 -10019
47538 318675 282908 -1448 12992 -9980
47521 318634 282874 -1481 12970 -9960
47503 318593 282856 -1547 12950 -9957
47483 318568 282833 -1592 12949 -9970
47475 318585 282857 -1585 12958 -9973
47474 318647 282912 -1529 12977 -9971
47468 318680 282947 -1505 13009 -9949
47453 318677 282949 -1574 13003 -9953
47440 318672 282941 -1627 12993 -9941
47434 318693 282957 -1464 13074 -9850
47430 318713 282970 -1506 13048 -9841
47438 318760 283020 -1535 13014 -9868
47451 318827 283064 -1581 13017 -9927
47460 318876 283117 -1574 13016 -9959
47473 318911 283137 -1543 13022 -9954
47485 318974 283186 -1542 13049 -9948
47501 319025 283226 -1541 13074 -9929
47514 319058 283252 -1529 13067 -9898
47532 319101 283285 -1527 13065 -9895
47543 319140 283299 -1555 13066 -9911
47562 319189 283356 -1567 13044 -9918
47387 318939 283204 -1515 13094 -9890
47373 319020 283264 -1585 13109 -9900
47387 319173 283378 -1592 13092 -9896
47400 319353 283495 -1565 13065 -9881
47384 319384 283504 -1552 13049 -9867
47381 319438 283544 -1554 13042 -9850
47361 319352 283462 -1551 13049 -9857
47344 319311 283416 -1564 13060 -9887
47333 319285 283415 -1561 13047 -9895
47321 319266 283407 -1523 13041 -9817
47309 319269 283416 -1561 13060 -9790
47302 319268 283419 -1615 13091 -9796
47289 319250 283398 -1538 13080 -9760
47291 319277 283428 -1519 13069 -9802
47290 319301 283459 -1599 13076 -9856
47291 319313 283453 -1625 13085 -9856
47287 319286 283439 -1571 13113 -9820
47291 319313 283461 -1524 13103 -9801
47296 319297 283449 -1548 13092 -9822
47298 319283 283439 -1569 13092 -9836
47302 319258 283427 -1593 13076 -9853
47313 319285 283442 -1613 13087 -9859
47334 319315 283454 -1605 13086 -9847
47349 319321 283453 -1594 13081 -9833
47364 319324 283454 -1597 13080 -9815
47384 319340 283477 -1593 13062 -9839
47409 319382 283501 -1518 13054 -9849
47436 319406 283512 -1529 13033 -9857
47450 319387 283483 -1559 13026 -9870
47474 319419 283492 -1596 13040 -9902
47476 319354 283471 -1582 13055 -9913
47466 319329 283460 -1555 13040 -9901
47449 319334 283474 -1585 13036 -9865
47415 319317 283470 -1635 13063 -9858
47387 319327 283489 -1650 13091 -9897
47363 319369 283530 -1542 13107 -9865
47345 319402 283553 -1479 13145 -9825
47328 319419 283566 -1549 13163 -9852
47317 319436 283590 -1554 13113 -9849
47311 319465 283600 -1516 13065 -9845
47262 319209 283470 -1636 13083 -9805
47260 319186 283451 -1594 13076 -9795
47275 319209 283480 -1559 13079 -9804
47288 319233 283511 -1571 13077 -9805
47296 319237 283522 -1588 13095 -9802
47305 319218 283498 -1576 13137 -9787
47322 319227 283498 -1566 13143 -9775
47343 319263 283538 -1578 13133 -9781
47357 319253 283523 -1601 13134 -9793
47380 319271 283551 -1628 13110 -9799
47401 319277 283569 -1631 13083 -9797
47422 319288 283585 -1614 13082 -9804
47447 319306 283606 -1611 13076 -9818
47468 319293 283599 -1603 13059 -9817
47478 319217 283558 -1574 13067 -9806
47498 319182 283541 -1559 13128 -9803
47485 319012 283431 -1563 13158 -9807
47466 318888 283377 -1572 13122 -9814
47445 318845 283371 -1593 13106 -9779
47410 318796 283343 -1621 13102 -9767
47381 318777 283350 -1623 13136 -9795
47353 318770 283359 -1522 13156 -9795
47335 318792 283394 -1490 13139 -9813
47321 318798 283406 -1574 13147 -9847
47304 318784 283394 -1570 13132 -9849
47298 318799 283429 -1440 13124 -9786
47294 318800 283431 -1515 13100 -9796
47297 318844 283469 -1582 13076 -9799
47299 318811 283448 -1587 13090 -9799
47301 318800 283447 -1531 13119 -9822
47306 318821 283465 -1502 13127 -9808
47314 318852 283492 -1570 13138 -9807
47310 318830 283484 -1591 13149 -9804
47313 318864 283518 -1467 13146 -9783
47316 318894 283523 -1508 13160 -9789
47314 318895 283524 -1569 13131 -9799
47322 318914 283549 -1544 13107 -9805
47331 318948 283567 -1507 13109 -9796
47336 318986 283587 -1519 13105 -9779
47353 319020 283627 -1555 13114 -9785
47370 319061 283654 -1571 13123 -9802
47386 319089 283666 -1566 13111 -9811
47399 319098 283676 -1565 13112 -9831
47418 319122 283701 -1551 13133 -9831
47442 319158 283737 -1558 13116 -9835
47465 319189 283751 -1550 13075 -9845
47491 319228 283782 -1554 13051 -9859
47510 319233 283788 -1577 13054 -9871
47530 319230 283782 -1572 13058 -9878
47563 319278 283824 -1564 13057 -9875
47421 318849 283585 -1502 13075 -9837
47392 318752 283530 -1495 13066 -9806
47367 318653 283458 -1514 13063 -9809
47351 318584 283431 -1514 13086 -9785
47330 318508 283386 -1526 13101 -9817
47330 318503 283381 -1508 13092 -9876
47323 318471 283353 -1485 13101 -9851
47325 318475 283366 -1546 13117 -9842
47326 318490 283387 -1580 13127 -9845
47328 318525 283415 -1475 13122 -9828
47333 318572 283462 -1462 13137 -9824
47340 318624 283509 -1569 13135 -9819
47339 318667 283525 -1597 13104 -9822
47341 318699 283546 -1472 13126 -9792
47343 318735 283571 -1495 13107 -9812
47352 318806 283615 -1536 13099 -9819
47363 318849 283643 -1573 13088 -9827
47373 318899 283659 -1587 13093 -9842
47386 318943 283690 -1578 13097 -9839
47398 318976 283702 -1567 13080 -9844
47413 319027 283717 -1575 13076 -9838
47440 319109 283778 -1585 13078 -9832
47466 319187 283827 -1517 13079 -9808
47487 319212 283849 -1524 13062 -9840
47508 319258 283870 -1550 13050 -9860
47528 319292 283870 -1565 13047 -9880
47559 319359 283934 -1585 13048 -9895
47597 319473 284008 -1614 13080 -9884
47617 319473 284002 -1601 13089 -9867
47630 319459 283963 -1578 13081 -9831
47646 319446 283959 -1600 13079 -9796
47641 319345 283889 -1525 13099 -9863
47624 319279 283856 -1502 13106 -9883
47597 319249 283842 -1562 13110 -9911
47558 319190 283803 -1597 13092 -9888
47527 319206 283821 -1576 13060 -9873
47502 319226 283830 -1558 13038 -9873
47475 319227 283834 -1579 13002 -9857
47460 319239 283856 -1627 12991 -9850
47447 319256 283852 -1656 13025 -9885
47434 319232 283842 -1615 13052 -9895
47416 319182 283807 -1535 13078 -9871
47406 319153 283798 -1553 13070 -9894
47395 319115 283761 -1619 13053 -9912
47389 319058 283726 -1585 13036 -9874
47393 319058 283746 -1560 13017 -9858
47398 319103 283774 -1624 13036 -9868
47402 319136 283815 -1663 13060 -9864
47417 319214 283882 -1634 13086 -9858
47424 319261 283923 -1597 13073 -9856
47428 319300 283939 -1594 13041 -9841
47433 319336 283969 -1595 13066 -9808
47440 319387 284010 -1614 13095 -9794
47454 319463 284066 -1641 13083 -9814
47472 319538 284116 -1631 13093 -9839
47487 319572 284129 -1625 13087 -9832
47508 319629 284161 -1646 13056 -9818
47527 319652 284174 -1666 13049 -9813
47538 319682 284181 -1667 13036 -9824
47553 319692 284177 -1651 13025 -9849
47569 319687 284169 -1638 13037 -9850
47580 319679 284150 -1637 13074 -9836
47605 319739 284184 -1642 13106 -9848
47628 319779 284201 -1634 13087 -9857
47649 319779 284195 -1623 13066 -9842
47664 319748 284166 -1644 13090 -9815
47667 319674 284104 -1668 13093 -9841
47652 319534 284010 -1654 13094 -9868
47638 319501 284011 -1566 13104 -9847
47615 319466 284001 -1557 13118 -9862
47589 319457 284007 -1624 13116 -9871
47561 319449 284018 -1505 13116 -9783
47533 319447 284017 -1539 13087 -9781
47517 319449 284019 -1600 13054 -9809
47496 319446 284007 -1634 13046 -9830
47483 319445 284016 -1625 13066 -9837
47476 319445 284024 -1573 13081 -9831
47463 319437 284019 -1568 13092 -9810
47470 319496 284072 -1628 13104 -9801
47464 319460 284040 -1606 13093 -9801
47470 319452 284059 -1624 13116 -9871
47478 319496 284082 -1505 13116 -9783
47476 319497 284094 -1539 13087 -9781
47481 319531 284133 -1600 13054 -9809
47480 319545 284139 -1634 13046 -9830
47484 319542 284148 -1625 13066 -9837
47487 319581 284180 -1573 13081 -9831
47496 319596 284191 -1568 13092 -9810
47503 319602 284208 -1628 13104 -9801
47514 319643 284234 -1606 13093 -9801
47532 319681 284259 -1547 13145 -9788
47542 319659 284243 -1630 13122 -9803
47550 319620 284216 -1620 13102 -9818
47562 319615 284200 -1582 13096 -9819
47577 319607 284199 -1587 13079 -9803
47588 319573 284195 -1606 13075 -9792
47604 319544 284167 -1618 13079 -9782
47614 319499 284136 -1617 13107 -9780
47633 319496 284136 -1601 13126 -9792
47649 319463 284112 -1581 13132 -9800
47661 319426 284062 -1592 13126 -9795
47666 319345 283981 -1618 13093 -9793
47675 319294 283930 -1624 13083 -9804
47658 319123 283807 -1622 13095 -9829
47639 319010 283725 -1632 13084 -9846
47604 318941 283669 -1633 13076 -9845
47570 318883 283614 -1634 13074 -9842
47532 318859 283599 -1650 13089 -9849
47503 318858 283574 -1639 13101 -9859
47473 318841 283551 -1617 13108 -9846
47446 318778 283501 -1597 13143 -9795
47420 318754 283468 -1600 13119 -9791
47398 318734 283439 -1620 13097 -9815
47387 318753 283444 -1575 13110 -9821
47369 318723 283391 -1574 13114 -9855
47356 318691 283362 -1613 13105 -9859
47341 318663 283324 -1585 13060 -9847
47323 318615 283256 -1562 13032 -9846
47319 318663 283282 -1572 13008 -9841
47308 318660 283255 -1602 13010 -9838
47309 318773 283300 -1603 13038 -9822
47330 318937 283433 -1585 13034 -9862
47341 319002 283482 -1560 13049 -9917
47341 319028 283485 -1554 13092 -9870
47360 319152 283590 -1623 13078 -9868
47340 319056 283492 -1649 13048 -9901
47334 319012 283468 -1554 13015 -9890
47359 319149 283586 -1539 12972 -9910
47411 319370 283794 -1610 12888 -9975
47465 319514 283985 -1641 12816 -10015
47516 319642 284176 -1462 13068 -10018
47589 319853 284466 -1501 13004 -9962
47656 320029 284723 -1570 12982 -9918
47695 320057 284860 -1510 13048 -9926
47743 320150 285053 -1466 13119 -9873
47780 320205 285184 -1526 13205 -9812
47796 320155 285188 -1569 13277 -9820
47741 319857 284884 -1561 13332 -9857
47603 319079 284155 -1556 13422 -9900
47505 318516 283602 -1552 13323 -9847
47409 317824 282978 -1493 13240 -9780
47364 317448 282678 -1499 13179 -9610
47355 317291 282579 -1602 13166 -9526
47344 317111 282493 -1656 13170 -9495
47347 317030 282494 -1626 13192 -9437
47377 317197 282723 -1583 13035 -9459
47424 317500 283062 -1644 12923 -9425
47473 317844 283426 -1653 13305 -9397
47479 318010 283594 -1570 13672 -9311
47479 318199 283749 -1412 13739 -9100
47541 318712 284188 -1316 13779 -9131
47564 319002 284405 -1432 13881 -9274
47588 319326 284641 -1452 13925 -9350
47595 319463 284756 -1283 13678 -9439
47586 319477 284751 -1222 13391 -9527
47545 319283 284599 -1374 13148 -9442
47477 318991 284337 -1531 12894 -9349
47376 318572 283903 -1536 13022 -9266
47296 318239 283524 -1427 13465 -9050
47204 317716 282952 -1319 13470 -8960
47101 317013 282295 -1351 13339 -9098
47063 316684 282007 -1471 13572 -9243
47060 316567 281910 -1446 13632 -9459
47099 316732 282053 -1438 13492 -9720
47174 317093 282374 -1505 13416 -9799
47272 317582 282805 -1471 13336 -9677
47358 317947 283151 -1417 13312 -9563
47429 318201 283419 -1399 13421 -9486
47491 318349 283577 -1259 13458 -9217
47534 318415 283681 -1056 13457 -9102
47722 319161 284012 -1264 13177 -9709
47683 319096 283940 -1327 13193 -9717
47649 319082 283913 -1246 13156 -9722
47618 319058 283880 -1228 13139 -9679
47580 319035 283833 -1357 13107 -9727
47563 319072 283861 -1460 13132 -9804
47552 319129 283894 -1389 13165 -9779
47536 319141 283902 -1330 13153 -9775
47516 319148 283891 -1332 13204 -9744
47508 319215 283937 -1334 13179 -9736
47510 319252 283969 -1326 13122 -9761
47500 319243 283961 -1349 13066 -9771
47496 319261 283975 -1409 13109 -9755
47491 319269 283976 -1429 13150 -9773
47477 319230 283964 -1407 13147 -9799
47462 319199 283926 -1393 13146 -9753
47457 319196 283923 -1440 13130 -9727
47458 319215 283950 -1384 13215 -9715
47460 319230 283972 -1357 13219 -9726
47466 319269 284002 -1438 13191 -9763
47472 319277 284012 -1500 13174 -9767
47474 319289 284031 -1473 13161 -9762
47478 319280 284019 -1399 13131 -9776
47485 319254 283998 -1399 13128 -9774
47498 319243 284011 -1422 13137 -9769
47511 319234 284022 -1453 13143 -9779
47530 319246 284028 -1437 13163 -9763
47545 319242 284036 -1389 13196 -9750
47563 319273 284064 -1407 13214 -9750
47586 319310 284100 -1425 13186 -9750
47608 319334 284122 -1429 13164 -9753
47626 319332 284137 -1449 13155 -9770
47651 319354 284159 -1445 13132 -9775
47669 319358 284163 -1433 13115 -9764
47694 319380 284184 -1437 13112 -9774
47719 319408 284209 -1432 13132 -9775
47751 319468 284270 -1425 13154 -9763
47782 319524 284313 -1404 13176 -9729
47805 319530 284322 -1384 13189 -9714
47818 319475 284287 -1411 13181 -9720
47834 319433 284258 -1459 13175 -9711
47826 319275 284152 -1459 13166 -9724
47814 319188 284109 -1479 13177 -9727
47795 319133 284093 -1517 13194 -9720
47768 319097 284073 -1490 13179 -9703
47745 319089 284078 -1461 13193 -9646
47725 319088 284088 -1490 13206 -9649
47707 319079 284080 -1370 13226 -9669
47695 319098 284084 -1309 13199 -9695
47699 319166 284146 -1420 13206 -9734
47704 319243 284203 -1491 13196 -9744
47704 319281 284239 -1445 13177 -9735
47698 319302 284242 -1386 13178 -9723
47695 319307 284225 -1428 13152 -9718
47687 319277 284189 -1517 13109 -9723
47689 319303 284198 -1539 13123 -9721
47699 319350 284246 -1368 13251 -9699
47707 319404 284280 -1444 13230 -9706
47719 319441 284316 -1540 13213 -9722
47719 319460 284330 -1480 13210 -9700
47716 319480 284331 -1394 13179 -9698
47720 319520 284359 -1458 13161 -9727
47736 319578 284409 -1549 13156 -9747
47741 319581 284406 -1548 13160 -9755
47749 319602 284416 -1512 13166 -9766
47756 319613 284426 -1470 13176 -9725
47766 319627 284427 -1478 13169 -9722
47775 319626 284412 -1504 13175 -9747
47799 319691 284463 -1515 13177 -9752
47825 319763 284510 -1505 13168 -9769
47842 319780 284513 -1495 13161 -9798
47858 319802 284509 -1504 13143 -9792
47873 319810 284503 -1511 13102 -9772
47895 319809 284504 -1510 13094 -9779
47911 319828 284503 -1496 13130 -9775
47927 319826 284492 -1483 13165 -9754
47948 319835 284488 -1495 13169 -9758
47973 319887 284529 -1515 13152 -9780
48006 319937 284558 -1530 13154 -9782
48024 319950 284566 -1537 13168 -9775
48047 319952 284572 -1553 13158 -9773
48070 319975 284586 -1569 13131 -9769
48089 319975 284575 -1560 13129 -9782
48099 319944 284539 -1547 13140 -9794
48119 319933 284524 -1560 13169 -9791
48110 319805 284424 -1532 13190 -9776
48094 319689 284347 -1489 13150 -9758
48076 319649 284345 -1523 13117 -9720
48055 319605 284313 -1585 13123 -9733
48041 319616 284350 -1606 13139 -9779
48035 319668 284396 -1527 13134 -9772
48021 319698 284410 -1485 13131 -9793
48012 319691 284401 -1553 13140 -9819
48000 319685 284400 -1565 13105 -9796
47994 319695 284415 -1521 13090 -9767
47992 319709 284427 -1478 13127 -9753
47998 319764 284473 -1503 13133 -9763
47997 319769 284470 -1567 13109 -9779
47993 319746 284457 -1588 13107 -9783
47996 319774 284467 -1563 13119 -9794
48000 319798 284495 -1529 13139 -9767
48000 319821 284514 -1571 13156 -9786
48002 319839 284537 -1609 13153 -9788
48006 319873 284561 -1517 13136 -9748
48012 319908 284585 -1494 13119 -9754
48014 319930 284601 -1569 13140 -9699
48012 319943 284615 -1530 13120 -9722
48018 319973 284633 -1507 13117 -9731
48024 320013 284652 -1542 13116 -9754
48030 320044 284677 -1572 13130 -9771
48036 320047 284676 -1581 13146 -9769
48040 320038 284672 -1576 13149 -9762
48051 320033 284665 -1574 13159 -9758
48062 320044 284669 -1576 13147 -9757
48068 320025 284649 -1523 13170 -9726
48079 320022 284630 -1546 13156 -9737
48092 320013 284629 -1555 13132 -9766
48103 319995 284615 -1557 13103 -9781
48113 319980 284601 -1574 13095 -9768
48126 319979 284591 -1564 13112 -9771
48142 319969 284594 -1542 13134 -9790
48162 320003 284627 -1558 13128 -9785
48182 320014 284637 -1585 13110 -9776
48200 320026 284650 -1576 13189 -9752
48211 319991 284629 -1555 13201 -9746
48224 319957 284618 -1555 13147 -9761
48213 319832 284525 -1587 13146 -9737
48190 319730 284468 -1623 13141 -9744
48169 319685 284450 -1623 13125 -9785
48135 319629 284429 -1538 13107 -9789
48114 319611 284437 -1524 13108 -9828
48087 319603 284448 -1596 13118 -9830
48065 319619 284458 -1568 13112 -9795
48045 319623 284466 -1510 13127 -9760
48033 319629 284479 -1536 13117 -9738
48023 319644 284492 -1605 13082 -9753
48009 319625 284486 -1622 13083 -9767
48002 319656 284504 -1599 13112 -9785
47995 319647 284487 -1560 13132 -9802
47987 319631 284478 -1550 13144 -9758
47983 319636 284499 -1602 13146 -9739
47975 319628 284495 -1610 13146 -9734
47965 319619 284506 -1498 13140 -9721
47954 319600 284497 -1462 13171 -9724
47940 319598 284513 -1553 13185 -9729
47932 319613 284527 -1599 13150 -9757
47925 319623 284540 -1544 13144 -9758
47919 319617 284544 -1501 13144 -9748
47917 319635 284561 -1528 13132 -9758
47918 319666 284579 -1564 13134 -9765
47923 319676 284608 -1579 13155 -9757
47920 319696 284610 -1566 13162 -9757
47924 319695 284614 -1550 13160 -9760
47928 319709 284627 -1504 13157 -9714
47937 319725 284632 -1528 13148 -9731
47944 319721 284634 -1526 13160 -9745
47955 319710 284628 -1521 13150 -9743
47957 319668 284591 -1524 13148 -9734
47969 319645 284579 -1543 13157 -9740
47971 319605 284544 -1546 13175 -9746
47978 319569 284528 -1541 13177 -9750
47992 319557 284529 -1565 13153 -9746
48004 319557 284526 -1505 13181 -9745
48026 319566 284551 -1543 13198 -9752
48043 319555 284554 -1554 13202 -9759
48054 319542 284519 -1538 13176 -9757
48067 319509 284500 -1553 13171 -9712
48058 319407 284426 -1593 13171 -9710
48034 319305 284347 -1586 13154 -9732
47998 319241 284311 -1497 13146 -9744
47950 319152 284254 -1494 13165 -9783
47900 319099 284217 -1511 13193 -9738
47857 319077 284205 -1457 13163 -9720
47815 319047 284186 -1509 13135 -9729
47779 319024 284170 -1573 13099 -9748
47745 318990 284142 -1598 13063 -9765
47720 318993 284137 -1588 13075 -9779
47698 319001 284155 -1565 13114 -9803
47672 318970 284129 -1549 13129 -9811
47649 318957 284117 -1577 13128 -9808
47621 318883 284054 -1595 13154 -9773
47614 318901 284069 -1498 13160 -9745
47596 318904 284086 -1469 13144 -9765
47567 318850 284050 -1569 13142 -9795
47542 318818 284021 -1611 13127 -9820
47516 318786 284015 -1566 13106 -9832
47490 318748 283968 -1526 13087 -9840
47468 318730 283960 -1535 13088 -9843
47458 318765 284003 -1562 13095 -9864
47446 318771 283999 -1589 13095 -9873
47437 318797 284016 -1574 13105 -9856
47426 318787 284011 -1535 13102 -9828
47418 318764 283998 -1523 13073 -9827
47422 318819 284045 -1534 13052 -9857
47435 318897 284105 -1544 13031 -9895
47445 319009 284172 -1548 12996 -9915
47490 319243 284368 -1547 13004 -9914
47548 319581 284612 -1538 13051 -9938
47612 319904 284870 -1575 13087 -9943
47664 320143 285054 -1625 13127 -9899
47696 320297 285172 -1608 13101 -9853
47715 320373 285220 -1478 13105 -9680
47697 320225 285099 -1459 13134 -9535
47667 320060 284952 -1425 13338 -9401
47676 320038 284947 -1350 13533 -9392
47667 319931 284866 -1285 13543 -9399
47665 319854 284835 -1270 13548 -9292
47695 319950 284979 -1302 13583 -9275
47742 320100 285211 -1362 13592 -9478
47767 320222 285442 -1437 13493 -9767
47725 320010 285377 -1608 13101 -9853
47624 319596 285140 -1478 13105 -9680
47512 319200 284890 -1459 13134 -9535
47372 318779 284474 -1425 13338 -9401
47239 318275 284020 -1350 13533 -9392
47117 317708 283538 -1285 13543 -9399
47041 317222 283185 -1270 13548 -9292
47017 317018 283066 -1302 13583 -9275
47015 316948 283073 -1362 13592 -9478
47029 317018 283215 -1437 13493 -9767
47088 317359 283565 -1720 13154 -9804
47138 317684 283870 -1639 13203 -9606
47158 317856 284028 -1502 13113 -9474
47133 317857 284042 -1439 13210 -9415
47176 318261 284362 -1446 13545 -9303
47211 318668 284658 -1467 13774 -9225
47210 318867 284816 -1376 13869 -9288
47221 319148 285056 -1214 13872 -9376
47238 319394 285260 -1178 13723 -9311
47210 319347 285220 -1286 13529 -9220
47151 319123 285046 -1394 13326 -9125
47058 318677 284647 -1442 13150 -9059
46919 317963 283993 -1394 13247 -8911
46787 317242 283328 -1343 13471 -8684
46713 316750 282876 -1311 13495 -8731
46670 316375 282526 -1294 13540 -8878
46613 315846 282048 -1325 13693 -9022
46511 315107 281401 -1387 13721 -9320
46470 314764 281092 -1347 13670 -9632
46506 314847 281163 -1278 13609 -9775
46580 315166 281448 -1329 13457 -9709
46695 315697 281948 -1337 13284 -9552
46825 316315 282493 -1242 13227 -9321
46906 316677 282806 -1178 13397 -9155
46937 316763 282896 -1122 13638 -9311
46954 316770 282909 -1081 13586 -9546
46954 316697 282817 -1104 13339 -9528
46956 316664 282769 -1077 13281 -9472
46973 316707 282805 -1042 13566 -9569
46959 316638 282756 -1053 13711 -9592
46919 316568 282695 -1074 13586 -9571
46868 316562 282697 -1104 13408 -9645
46803 316538 282651 -1156 13207 -9731
46728 316482 282594 -1235 13065 -9777
46646 316426 282519 -1282 13034 -9816
46587 316440 282522 -1218 13074 -9795
46534 316448 282503 -1131 13089 -9747
46473 316411 282442 -1133 13137 -9743
46426 316393 282424 -1197 13180 -9752
46379 316374 282401 -1157 13115 -9754
46328 316287 282302 -1096 13110 -9752
46297 316319 282296 -1194 13157 -9759
46275 316306 282279 -1257 13144 -9786
46241 316262 282234 -1268 13098 -9808
46208 316209 282174 -1289 13081 -9795
46175 316189 282145 -1288 13089 -9798
46155 316224 282170 -1320 13065 -9837
46132 316250 282178 -1348 13042 -9873
46111 316259 282193 -1348 13037 -9890
46082 316232 282156 -1288 13054 -9917
46055 316202 282123 -1225 13086 -9853
46043 316227 282144 -1293 13088 -9884
46047 316312 282217 -1309 13069 -9921
46051 316356 282251 -1374 13043 -9951
46057 316394 282261 -1420 13067 -9943
46062 316425 282292 -1396 13066 -9933
46070 316481 282320 -1378 13043 -9932
46085 316530 282353 -1343 13036 -9951
46114 316619 282413 -1314 13005 -9963
46140 316709 282489 -1315 13068 -9913
46160 316761 282519 -1318 13084 -9899
46175 316781 282526 -1311 13076 -9911
46197 316802 282555 -1320 13059 -9902
46216 316844 282592 -1325 13055 -9881
46244 316919 282638 -1304 13042 -9885
46269 316960 282685 -1319 13026 -9881
46292 316981 282696 -1341 13043 -9860
46298 316938 282664 -1345 13056 -9873
46286 316817 282594 -1320 13058 -9867
46257 316696 282527 -1297 13094 -9829
46215 316629 282511 -1289 13091 -9844
46152 316566 282498 -1321 13066 -9871
46086 316516 282480 -1378 13071 -9872
46028 316487 282507 -1392 13091 -9854
45971 316488 282524 -1365 13093 -9854
45917 316448 282517 -1363 13106 -9824
45881 316474 282559 -1423 13109 -9825
45855 316495 282603 -1364 13097 -9852
45833 316549 282665 -1225 13092 -9845
45813 316554 282681 -1255 13113 -9851
45798 316601 282732 -1355 13126 -9854
45781 316572 282714 -1333 13088 -9860
45770 316546 282727 -1276 13074 -9856
45773 316611 282791 -1321 13075 -9847
45771 316651 282842 -1389 13043 -9851
45754 316645 282859 -1418 13037 -9862
45741 316657 282886 -1395 13082 -9877
45732 316685 282912 -1338 13110 -9884
45722 316674 282901 -1330 13113 -9837
45710 316676 282905 -1371 13143 -9820
45712 316705 282952 -1387 13191 -9810
45719 316750 282986 -1300 13165 -9778
45722 316775 283022 -1302 13133 -9802
45726 316784 283023 -1413 13145 -9835
45731 316782 283016 -1473 13139 -9835
45744 316797 283041 -1456 13121 -9820
45768 316842 283082 -1390 13113 -9799
45786 316847 283089 -1372 13116 -9778
45809 316870 283112 -1402 13124 -9768
45833 316899 283116 -1400 13170 -9750
45861 316949 283172 -1371 13203 -9747
45891 316975 283195 -1386 13186 -9759
45918 316993 283200 -1413 13164 -9749
45935 316967 283176 -1428 13145 -9741
45967 317000 283214 -1428 13139 -9729
45999 317042 283251 -1419 13133 -9748
46027 317058 283254 -1421 13114 -9784
46043 317033 283235 -1439 13113 -9796
46061 317025 283231 -1445 13117 -9802
46044 316916 283145 -1431 13131 -9771
46005 316805 283086 -1433 13129 -9782
45956 316743 283074 -1458 13129 -9783
45905 316727 283085 -1504 13153 -9792
45854 316713 283087 -1500 13158 -9805
45805 316695 283090 -1469 13133 -9802
45763 316691 283091 -1497 13132 -9748
45718 316648 283058 -1552 13126 -9738
45678 316591 283016 -1527 13120 -9786
45650 316556 283006 -1427 13143 -9813
45642 316588 283045 -1509 13126 -9822
45636 316648 283099 -1505 13086 -9819
45638 316674 283102 -1464 13074 -9798
45624 316600 283063 -1486 13082 -9782
45619 316601 283066 -1531 13065 -9789
45608 316592 283070 -1562 13045 -9812
45593 316565 283062 -1564 13052 -9844
45583 316544 283059 -1540 13060 -9855
45565 316510 283048 -1525 13069 -9817
45553 316471 283021 -1595 13148 -9802
45539 316421 282981 -1500 13120 -9768
45525 316350 282941 -1476 13103 -9786
45507 316271 282876 -1583 13104 -9803
45515 316254 282892 -1606 13091 -9814
45527 316279 282922 -1567 13084 -9819
45539 316266 282912 -1552 13082 -9833
45545 316217 282878 -1560 13086 -9838
45560 316215 282885 -1567 13103 -9833
45583 316233 282895 -1518 13145 -9768
45600 316236 282898 -1520 13132 -9748
45626 316252 282922 -1535 13126 -9791
45649 316259 282926 -1551 13115 -9847
45674 316264 282930 -1546 13100 -9854
45701 316295 282963 -1525 13094 -9857
45722 316315 282973 -1523 13093 -9844
45754 316349 282993 -1528 13080 -9816
45787 316388 283016 -1541 13073 -9816
45815 316403 283026 -1535 13077 -9822
45838 316417 283025 -1506 13092 -9830
45865 316416 283043 -1521 13094 -9845
45852 316324 282981 -1565 13097 -9856
45834 316332 283024 -1572 13103 -9838
45794 316312 283017 -1541 13078 -9838
45753 316299 283042 -1561 13071 -9810
45714 316321 283070 -1603 13100 -9767
45684 316363 283125 -1621 13105 -9810
45660 316397 283170 -1550 13109 -9837
45641 316443 283203 -1502 13133 -9835
45630 316483 283259 -1533 13157 -9832
45627 316542 283300 -1537 13144 -9796
45615 316574 283321 -1527 13108 -9774
45625 316660 283389 -1537 13099 -9765
45631 316673 283398 -1584 13082 -9778
45634 316684 283405 -1609 13072 -9792
45639 316696 283421 -1617 13093 -9786
45640 316707 283443 -1602 13132 -9782
45633 316721 283453 -1558 13163 -9758
45628 316702 283448 -1581 13162 -9779
45626 316713 283459 -1602 13176 -9770
45630 316741 283489 -1518 13165 -9732
45636 316770 283523 -1511 13128 -9754
45646 316786 283542 -1591 13134 -9776
45653 316807 283552 -1633 13127 -9787
45663 316804 283557 -1608 13108 -9788
45675 316826 283565 -1574 13114 -9784
45692 316834 283573 -1590 13114 -9781
45709 316858 283580 -1608 13119 -9786
45735 316874 283601 -1623 13120 -9790
45762 316907 283628 -1595 13150 -9764
45790 316934 283640 -1565 13167 -9741
45811 316919 283611 -1579 13136 -9759
45835 316903 283603 -1590 13119 -9773
45860 316902 283605 -1592 13102 -9776
45886 316901 283591 -1586 13093 -9780
45916 316920 283612 -1586 13090 -9778
45950 316946 283618 -1585 13105 -9761
45982 316954 283624 -1578 13101 -9762
46005 316907 283590 -1583 13091 -9777
46029 316900 283580 -1529 13133 -9755
46013 316750 283486 -1582 13146 -9778
45981 316644 283432 -1584 13164 -9791
45936 316552 283414 -1521 13140 -9773
45875 316453 283359 -1519 13115 -9728
45818 316395 283332 -1566 13133 -9706
45772 316375 283330 -1591 13146 -9738
45734 316360 283345 -1522 13143 -9757
45698 316326 283332 -1465 13144 -9769
45669 316306 283328 -1526 13175 -9750
45651 316299 283329 -1494 13154 -9742
45631 316264 283328 -1497 13116 -9756
45611 316234 283303 -1543 13095 -9758
45604 316216 283279 -1585 13081 -9765
45593 316150 283245 -1595 13087 -9776
45595 316159 283257 -1577 13121 -9789
45593 316148 283278 -1534 13147 -9790
45586 316119 283265 -1539 13153 -9787
45575 316091 283262 -1583 13162 -9758
45567 316070 283258 -1524 13165 -9711
45566 316085 283270 -1449 13147 -9723
45563 316071 283265 -1512 13151 -9761
45561 316030 283246 -1594 13143 -9771
45565 316008 283248 -1572 13128 -9770
45570 316012 283245 -1538 13126 -9787
45574 315964 283204 -1546 13122 -9793
45577 315902 283141 -1557 13131 -9776
45579 315842 283087 -1576 13126 -9758
45585 315785 283030 -1581 13118 -9749
45592 315718 282940 -1540 13151 -9730
45605 315665 282896 -1513 13161 -9721
45626 315633 282869 -1545 13125 -9760
45646 315617 282840 -1566 13117 -9799
45666 315601 282820 -1549 13128 -9808
45689 315603 282815 -1531 13097 -9812
45729 315715 282881 -1550 13073 -9828
45767 315814 282950 -1566 13081 -9817
45807 315918 282991 -1552 13065 -9831
45859 316091 283109 -1540 13051 -9870
45949 316420 283369 -1492 13079 -9839
46050 316782 283664 -1527 13080 -9858
46109 317005 283898 -1529 13051 -9894
46127 317165 284065 -1504 13089 -9927
46126 317326 284225 -1544 13290 -9881
46067 317272 284175 -1602 13387 -9815
46003 317198 284142 -1604 13285 -9795
45937 317122 284072 -1543 13198 -9721
45868 316967 283944 -1540 13088 -9656
45841 316989 284005 -1511 13180 -9393
45824 317022 284054 -1351 13259 -9390
45798 316957 284061 -1226 13369 -9451
45822 317170 284375 -1268 13470 -9418
45879 317495 284786 -1407 13620 -9389
45925 317710 285074 -1471 13605 -9368
45943 317682 285127 -1442 13511 -9387
45925 317524 285066 -1328 13524 -9451
45895 317387 284970 -1389 13428 -9556
45829 317134 284710 -1782 13306 -9657
45732 316727 284256 -1641 13258 -9444
45659 316343 283853 -1563 13217 -9290
45624 316092 283623 -1631 13224 -9278
45641 316021 283608 -1668 13315 -9293
45666 315930 283561 -1474 13573 -9187
46096 317290 284786 -1183 13354 -8844
46078 317076 284586 -1173 13487 -8967
46031 316730 284291 -1298 13783 -9221
45993 316408 283973 -1419 13721 -9452
45925 315890 283472 -1445 13445 -9659
45857 315360 282970 -1454 13401 -9680
45823 314926 282586 -1446 13565 -9576
45777 314337 282084 -1349 13495 -9480
45667 313498 281348 -1275 13308 -9237
45557 312879 280822 -1180 13397 -9141
45499 312660 280652 -1043 13585 -9369
45436 312456 280498 -1033 13449 -9476
45352 312221 280308 -1083 13365 -9445
45269 311989 280111 -1114 13631 -9494
45195 311759 279884 -1118 13670 -9594
45113 311514 279623 -1117 13358 -9655
45050 311353 279421 -1074 13211 -9623
44975 311162 279187 -1061 13165 -9666
44917 311039 279023 -1111 13022 -9752
44878 310995 278902 -1108 12926 -9747
44841 310945 278782 -1112 12932 -9788
44803 310916 278677 -1152 12970 -9915
44739 310766 278446 -1132 12991 -10007
44670 310613 278244 -1162 12949 -10045
44636 310586 278154 -1221 12920 -10161
44604 310552 278085 -1210 12854 -10148
44577 310537 278014 -1295 12849 -10166
44544 310459 277907 -1373 12910 -10179
44527 310467 277875 -1402 12897 -10216
44515 310503 277876 -1380 12838 -10242
44515 310544 277893 -1346 12759 -10232
44523 310588 277925 -1329 12740 -10260
44540 310650 277977 -1334 12797 -10271
44564 310733 278034 -1338 12835 -10256
44567 310712 277992 -1326 12817 -10280
44568 310680 277942 -1340 12769 -10291
44593 310748 277986 -1364 12755 -10254
44633 310856 278062 -1368 12737 -10236
44670 310915 278123 -1367 12702 -10230
44711 311015 278202 -1359 12725 -10224
44760 311153 278328 -1358 12763 -10216
44802 311252 278399 -1373 12773 -10200
44840 311324 278433 -1384 12795 -10187
44875 311401 278493 -1376 12811 -10200
44925 311563 278591 -1367 12802 -10235
44986 311703 278707 -1368 12782 -10246
45029 311791 278764 -1387 12784 -10223
45051 311792 278746 -1420 12817 -10217
45074 311810 278739 -1399 12823 -10206
45064 311719 278681 -1371 12812 -10180
45049 311692 278678 -1407 12805 -10151
45033 311742 278753 -1447 12797 -10146
45015 311814 278843 -1374 12823 -10155
44997 311907 278962 -1279 12851 -10142
44985 312014 279085 -1306 12885 -10146
44986 312172 279249 -1382 12880 -10158
45002 312350 279465 -1420 12822 -10156
45044 312582 279753 -1382 12811 -10139
45087 312797 280017 -1350 12834 -10119
45124 312948 280240 -1335 12843 -10106
45144 313033 280373 -1321 12854 -10102
45176 313137 280516 -1352 12881 -10109
45193 313171 280612 -1352 12884 -10138
45211 313219 280724 -1321 12900 -10119
45225 313263 280817 -1322 12926 -10098
45237 313318 280900 -1350 12924 -10097
45252 313378 281000 -1305 12929 -10064
45257 313420 281060 -1287 12936 -10057
45265 313456 281122 -1382 12934 -10054
45274 313484 281162 -1450 12926 -10057
45286 313498 281202 -1446 12910 -10057
45310 313586 281282 -1380 12913 -10042
45332 313645 281354 -1335 12942 -10018
45360 313719 281437 -1373 12953 -9992
45388 313785 281497 -1403 12984 -10025
45416 313843 281542 -1433 12953 -10022
45442 313870 281575 -1447 12943 -10026
45475 313925 281611 -1463 12937 -10037
45509 313976 281648 -1473 12937 -10026
45539 313997 281665 -1468 12932 -10019
45570 314025 281684 -1442 12932 -10017
45597 314038 281689 -1442 12928 -10011
45624 314055 281711 -1481 12921 -10013
45658 314095 281739 -1430 12988 -10000
45690 314114 281753 -1446 12994 -10022
45717 314138 281771 -1448 12964 -10026
45759 314210 281844 -1448 12945 -10023
45804 314285 281896 -1484 12973 -10012
45838 314336 281918 -1493 12988 -10012
45861 314301 281895 -1453 12962 -10021
45880 314279 281868 -1457 12958 -10012
45868 314162 281807 -1496 12970 -9984
45842 314098 281780 -1418 12976 -10013
45811 314072 281785 -1368 12980 -9995
45760 314006 281753 -1441 12970 -10021
45716 314001 281771 -1491 12963 -10029
45677 314019 281777 -1454 12967 -10006
45642 314001 281793 -1429 12957 -10001
45607 313990 281784 -1472 12928 -9990
45588 314025 281813 -1515 12895 -9982
45586 314100 281864 -1518 12924 -9981
45574 314120 281897 -1481 12981 -9990
45560 314117 281881 -1420 13008 -9991
45556 314097 281852 -1427 13012 -9980
45540 314068 281830 -1495 12985 -10008
45534 314061 281830 -1515 12980 -9998
45536 314081 281860 -1447 12981 -9966
45541 314130 281911 -1457 12968 -9979
45536 314141 281927 -1547 12975 -9983
45525 314134 281918 -1562 12955 -9998
45520 314137 281926 -1525 12931 -10011
45518 314144 281930 -1486 12946 -10003
45522 314170 281939 -1454 12990 -9990
45529 314199 281976 -1479 13003 -9996
45552 314281 282032 -1529 12972 -10004
45571 314345 282073 -1534 12968 -9997
45588 314358 282083 -1540 12972 -10003
45603 314383 282084 -1538 12956 -10013
45624 314396 282102 -1532 12933 -10016
45649 314433 282119 -1545 12932 -10009
45676 314449 282133 -1540 12938 -10011
45701 314485 282154 -1534 12933 -10010
45737 314552 282220 -1515 12954 -10009
45775 314606 282265 -1497 12978 -9996
45812 314668 282299 -1517 12980 -9990
45844 314697 282337 -1530 12969 -10016
45885 314769 282392 -1544 12957 -10019
45932 314873 282467 -1562 12970 -10005
45975 314928 282522 -1553 12997 -9990
45999 314923 282505 -1531 13000 -9969
46028 314953 282521 -1543 12969 -9963
46044 314904 282494 -1579 12962 -9923
46032 314821 282460 -1517 13016 -9966
46006 314792 282464 -1460 12998 -9969
45965 314722 282440 -1493 13000 -9983
45920 314693 282441 -1532 13011 -9972
45886 314696 282451 -1482 12996 -9957
45854 314699 282459 -1480 12973 -9941
45830 314699 282470 -1527 12965 -9935
45806 314669 282458 -1568 12967 -9942
45784 314673 282458 -1576 12970 -9936
45778 314673 282472 -1469 13063 -9928
45770 314672 282474 -1490 13051 -9914
45782 314719 282508 -1575 13044 -9926
45785 314695 282502 -1561 13063 -9900
45786 314696 282499 -1456 13047 -9868
45790 314697 282513 -1473 13024 -9894
45787 314690 282522 -1573 13036 -9930
45787 314700 282539 -1572 13029 -9941
45788 314726 282549 -1514 13011 -9928
45789 314711 282560 -1486 13043 -9916
45795 314730 282574 -1493 13052 -9907
45792 314729 282575 -1517 13033 -9915
45802 314744 282582 -1542 13043 -9915
45816 314775 282601 -1532 13055 -9893
45834 314803 282625 -1512 13045 -9879
45856 314823 282654 -1525 13034 -9881
45879 314868 282677 -1548 13026 -9878
45902 314912 282694 -1541 13031 -9884
45927 314925 282709 -1523 13031 -9905
45954 314969 282722 -1508 13025 -9907
45986 314998 282745 -1490 13048 -9887
46020 315050 282785 -1509 13052 -9885
46050 315062 282783 -1551 13050 -9905
46077 315077 282781 -1553 13037 -9913
46106 315099 282798 -1545 13028 -9916
46138 315143 282812 -1576 13051 -9915
46181 315191 282860 -1580 13076 -9910
46209 315209 282859 -1543 13059 -9903
46231 315178 282829 -1534 13049 -9886
46255 315177 282816 -1559 13051 -9864
46258 315088 282753 -1564 13069 -9864
46232 314971 282678 -1502 13083 -9881
46201 314919 282672 -1466 13057 -9894
46149 314840 282634 -1530 13044 -9911
46098 314784 282603 -1554 13037 -9895
46055 314761 282610 -1492 13028 -9872
46011 314733 282588 -1471 13020 -9875
45971 314697 282554 -1514 13007 -9879
45941 314659 282531 -1551 12994 -9894
45915 314634 282501 -1558 13012 -9900
45896 314627 282498 -1446 13087 -9928
45879 314575 282465 -1466 13075 -9914
45872 314570 282469 -1541 13074 -9908
45860 314490 282407 -1538 13063 -9901
45858 314459 282394 -1450 13050 -9884
45855 314426 282387 -1474 13058 -9889
45849 314387 282363 -1558 13032 -9907
45839 314332 282331 -1556 13013 -9921
45829 314298 282301 -1512 13014 -9914
45812 314231 282240 -1558 13012 -9900
45807 314191 282193 -1446 13087 -9928
45799 314160 282153 -1466 13075 -9914
45806 314148 282140 -1541 13074 -9908
45818 314212 282162 -1538 13063 -9901
45833 314224 282171 -1450 13050 -9884
45841 314192 282136 -1474 13058 -9889
45851 314189 282113 -1558 13032 -9907
45883 314252 282150 -1556 13013 -9921
45906 314278 282160 -1512 13014 -9914
45928 314277 282127 -1470 13058 -9889
45946 314244 282088 -1492 13035 -9904
45968 314236 282056 -1511 13027 -9928
45995 314237 282049 -1529 13033 -9953
46041 314329 282115 -1543 13033 -9967
46081 314388 282151 -1547 13011 -9958
46126 314479 282219 -1537 13003 -9947
46179 314583 282296 -1529 13008 -9956
46226 314667 282363 -1538 12983 -9956
46273 314746 282427 -1496 13014 -9922
46328 314904 282548 -1513 13016 -9939
46347 314949 282592 -1530 12995 -9946
46366 315102 282746 -1532 13013 -9959
46375 315254 282897 -1548 13037 -9968
46387 315490 283120 -1567 13056 -9950
46392 315713 283314 -1545 13059 -9945
46352 315683 283290 -1535 13021 -9967
46283 315482 283114 -1568 13036 -9922
46234 315356 282992 -1558 13080 -9880
46191 315240 282879 -1487 13138 -9829
46158 315150 282805 -1441 13200 -9773
46132 315078 282745 -1483 13242 -9790
46112 314990 282717 -1547 13245 -9818
46150 315204 282980 -1523 13153 -9847
46216 315524 283378 -1496 13049 -9730
46252 315637 283557 -1520 13048 -9514
46212 315369 283409 -1447 13134 -9388
46145 315055 283152 -1267 13233 -9392
46074 314778 282851 -1272 13367 -9487
46006 314467 282452 -1350 13493 -9544
45921 313833 281894 -1303 13511 -9421
45873 313293 281469 -1282 13505 -9314
45855 312930 281156 -1305 13541 -9405
45833 312581 280852 -1435 13497 -9640
45841 312416 280768 -1659 13243 -9847
45907 312538 280940 -1709 13091 -9833
45993 312845 281283 -1596 13050 -9663
46078 313223 281629 -1497 12996 -9560
46131 313442 281801 -1433 13246 -9472
46098 313297 281606 -1331 13604 -9375
46119 313376 281691 -1339 13582 -9497
46228 313870 282080 -1300 13663 -9500
46336 314435 282562 -1199 13774 -9465
46452 315041 283093 -1143 13582 -9548
46521 315315 283336 -1165 13279 -9685
46515 315161 283200 -1227 13068 -9577
46483 314866 282950 -1325 12859 -9399
46475 314676 282760 -1353 12973 -9292
46402 314075 282186 -1303 13497 -9141
46306 313293 281453 -1174 13486 -9144
46162 312244 280472 -1171 13581 -9193
45987 311147 279421 -1319 13519 -9521
45819 310355 278556 -1341 13368 -9844
45673 309788 277874 -1327 13361 -9722
45554 309435 277437 -1429 13349 -9506
45518 309405 277364 -1401 13271 -9496
45541 309581 277518 -1329 13238 -9389
45559 309747 277669 -1134 13218 -9270
45563 309819 277737 -985 13305 -9408
45554 309819 277742 -989 13464 -9657
45381 309415 276762 -1157 12862 -10044
45381 309414 276721 -1165 12829 -10062
45379 309405 276692 -1241 12848 -10063
45403 309496 276750 -1289 12881 -10076
45445 309648 276878 -1279 12919 -10097
45484 309765 276981 -1278 12894 -10133
45517 309865 277053 -1327 12848 -10181
45555 309964 277137 -1255 12822 -10229
45598 310077 277223 -1196 12834 -10251
45643 310211 277327 -1261 12854 -10233
45686 310311 277404 -1237 12862 -10215
45715 310367 277450 -1212 12866 -10215
45740 310386 277466 -1247 12836 -10214
45776 310467 277537 -1264 12787 -10211
45838 310642 277720 -1245 12772 -10206
45920 310907 277979 -1236 12790 -10187
46012 311184 278274 -1250 12781 -10192
46103 311473 278581 -1231 12768 -10223
46163 311631 278750 -1239 12768 -10220
46197 311626 278778 -1256 12765 -10195
46192 311514 278724 -1269 12830 -10163
46178 311430 278726 -1308 12879 -10150
46169 311430 278788 -1317 12881 -10140
46146 311411 278815 -1309 12885 -10106
46129 311439 278886 -1300 12870 -10103
46127 311528 278998 -1326 12849 -10119
46120 311561 279067 -1370 12856 -10131
46113 311622 279152 -1243 12914 -10136
46113 311677 279213 -1341 12907 -10129
46106 311700 279259 -1371 12880 -10108
46107 311757 279322 -1275 12904 -10079
46115 311830 279392 -1232 12934 -10055
46132 311918 279465 -1275 12889 -10051
46147 311966 279531 -1336 12822 -10053
46165 312022 279581 -1374 12830 -10061
46177 312074 279627 -1360 12894 -10072
46177 312097 279642 -1318 12979 -10018
46188 312148 279693 -1389 12991 -10011
46200 312201 279747 -1374 12984 -10016
46201 312229 279757 -1298 12952 -10040
46200 312228 279757 -1330 12922 -10050
46216 312282 279805 -1393 12949 -10018
46235 312342 279863 -1409 12976 -9999
46265 312426 279944 -1373 12962 -10010
46297 312516 280019 -1351 12923 -10026
46328 312594 280075 -1347 12962 -10035
46353 312645 280127 -1361 12997 -10041
46385 312709 280162 -1356 13007 -10033
46423 312791 280213 -1348 12959 -10014
46453 312846 280255 -1364 12909 -10014
46478 312877 280256 -1389 12916 -10027
46501 312886 280235 -1388 12913 -10035
46523 312891 280227 -1363 12906 -10033
46558 312948 280278 -1340 12937 -10025
46602 313024 280344 -1341 12947 -10017
46635 313081 280369 -1338 12939 -10020
46670 313124 280405 -1335 12949 -10025
46700 313152 280418 -1343 12966 -10013
46737 313210 280452 -1347 12984 -10014
46786 313309 280548 -1383 12979 -10040
46829 313371 280601 -1395 12963 -10053
46855 313378 280587 -1376 12947 -10041
46892 313417 280622 -1399 12952 -10014
46898 313327 280570 -1406 12980 -10019
46894 313285 280563 -1351 12969 -10026
46891 313282 280603 -1321 12957 -9981
46873 313260 280624 -1384 12944 -9963
46851 313296 280667 -1441 12923 -10011
46834 313323 280705 -1351 12943 -10031
46805 313288 280697 -1286 12960 -10044
46783 313268 280685 -1348 12974 -10045
46771 313296 280714 -1361 12971 -10025
46763 313321 280745 -1337 12932 -10040
46755 313338 280775 -1332 12908 -10047
46740 313316 280749 -1375 12906 -10035
46755 313420 280836 -1369 12939 -10001
46765 313452 280859 -1355 12928 -10017
46768 313492 280891 -1333 12934 -10037
46772 313523 280933 -1354 12950 -10030
46771 313540 280958 -1433 12940 -10034
46772 313560 280973 -1445 12943 -10037
46773 313589 281006 -1355 12950 -10033
46769 313606 281001 -1377 12941 -10048
46768 313623 281016 -1482 12934 -10044
46772 313659 281052 -1381 12953 -10023
46781 313709 281095 -1335 12934 -10006
46798 313781 281149 -1358 12937 -10014
46815 313847 281210 -1420 12950 -10029
46840 313939 281276 -1442 12958 -10035
46865 314024 281329 -1403 12964 -10027
46885 314084 281383 -1382 12975 -10010
46910 314129 281420 -1405 12962 -10010
46931 314153 281433 -1420 12946 -10020
46954 314211 281468 -1387 12957 -10001
46976 314233 281480 -1362 12952 -9995
47000 314257 281499 -1393 12940 -10008
47025 314293 281520 -1426 12941 -10017
47045 314306 281520 -1431 12949 -10031
47073 314337 281554 -1421 12963 -10035
47100 314386 281587 -1448 12970 -10031
47137 314457 281655 -1465 12962 -10026
47176 314525 281716 -1431 12958 -10030
47205 314574 281746 -1404 12988 -10025
47229 314579 281750 -1397 13026 -10009
47255 314595 281751 -1363 13020 -9986
47260 314509 281707 -1340 12994 -9976
47249 314439 281681 -1396 12993 -9939
47229 314407 281695 -1445 12990 -9931
47197 314356 281667 -1469 12993 -9978
47165 314334 281681 -1389 12996 -9975
47033 314388 281755 -1403 13046 -9917
47036 314422 281786 -1483 13048 -9914
47033 314425 281788 -1401 13048 -9906
47025 314415 281777 -1322 13020 -9903
47020 314404 281760 -1396 13028 -9884
47020 314431 281786 -1483 13041 -9896
47026 314456 281803 -1450 13028 -9925
47025 314458 281808 -1370 13016 -9927
47040 314516 281845 -1369 13006 -9924
47061 314585 281904 -1409 13015 -9944
47082 314663 281946 -1448 13031 -9959
47097 314697 281963 -1447 13032 -9944
47110 314733 281981 -1420 13041 -9930
47135 314799 282019 -1429 13048 -9933
47164 314846 282061 -1397 13054 -9920
47188 314897 282093 -1389 13046 -9920
47210 314939 282117 -1412 13029 -9920
47235 314972 282131 -1432 13008 -9926
47254 314993 282150 -1426 13007 -9929
47280 315020 282173 -1436 13019 -9929
47299 315052 282189 -1457 13029 -9929
47323 315095 282228 -1463 13040 -9922
47350 315117 282245 -1474 13046 -9922
47374 315138 282278 -1469 13071 -9902
47403 315196 282306 -1434 13080 -9887
47418 315169 282283 -1436 13057 -9890
47437 315153 282262 -1479 13050 -9904
47459 315164 282274 -1486 13060 -9931
47475 315105 282244 -1421 13045 -9921
47457 314981 282172 -1411 13033 -9862
47439 314938 282181 -1484 13040 -9842
47396 314852 282134 -1538 13037 -9877
47358 314825 282131 -1446 13042 -9905
47324 314815 282138 -1382 13101 -9917
47283 314778 282107 -1380 13087 -9894
47244 314720 282077 -1390 13046 -9907
47214 314652 282048 -1410 13016 -9911
47186 314607 282013 -1399 12993 -9900
47172 314618 282044 -1434 12994 -9893
47161 314633 282063 -1476 13026 -9887
47143 314596 282018 -1463 13056 -9907
47128 314586 282005 -1431 13064 -9941
47117 314538 281969 -1405 13070 -9916
47112 314545 281969 -1442 13106 -9869
47103 314532 281961 -1478 13104 -9836
47089 314507 281941 -1429 13073 -9836
47079 314500 281938 -1457 13058 -9884
47068 314502 281935 -1520 13037 -9905
47056 314494 281928 -1494 13040 -9895
47047 314475 281901 -1447 13053 -9880
47035 314457 281868 -1442 13042 -9879
47028 314456 281862 -1476 13039 -9890
47036 314474 281866 -1486 13052 -9891
47049 314516 281892 -1471 13073 -9861
47059 314514 281888 -1460 13089 -9829
47061 314516 281877 -1464 13083 -9843
47073 314538 281872 -1482 13068 -9870
47088 314543 281868 -1500 13042 -9885
47109 314556 281865 -1503 13028 -9900
47136 314603 281901 -1497 13025 -9905
47164 314652 281926 -1480 13032 -9900
47181 314630 281896 -1448 13028 -9897
47196 314612 281884 -1438 13008 -9909
47222 314659 281907 -1443 13088 -9936
47257 314736 281944 -1455 13060 -9936
47287 314771 281961 -1456 13031 -9927
47304 314739 281935 -1461 13017 -9923
47322 314731 281927 -1453 13025 -9925
47350 314760 281928 -1453 13030 -9936
47368 314746 281906 -1460 13026 -9940
47394 314757 281909 -1443 13022 -9924
47409 314739 281868 -1409 13007 -9923
47431 314707 281838 -1428 13062 -9856
47423 314595 281765 -1445 13047 -9903
47412 314543 281748 -1396 13026 -9949
47382 314478 281708 -1385 13034 -9980
47349 314440 281690 -1449 13052 -9983
47332 314486 281735 -1432 13034 -9957
47326 314585 281827 -1400 12999 -9960
47332 314753 281963 -1413 12957 -9986
47361 315009 282157 -1461 12923 -10044
47381 315239 282319 -1445 13006 -9990
47370 315341 282354 -1380 12865 -9934
47343 315406 282343 -1371 12801 -9883
47286 315298 282191 -1413 13169 -9638
47261 315262 282115 -1459 13496 -9460
47231 315150 282024 -1449 13459 -9521
47228 315180 282057 -1381 13462 -9559
47273 315415 282317 -1373 13539 -9594
47338 315763 282733 -1345 13617 -9678
47401 316017 283115 -1447 13262 -9888
47407 316003 283234 -1576 13065 -9790
47352 315707 283071 -1611 13132 -9501
47314 315565 283000 -1568 13197 -9287
47289 315508 282930 -1577 13101 -9324
47210 315185 282518 -1651 13201 -9382
47137 314778 282050 -1615 13570 -9345
47110 314439 281706 -1463 13815 -9292
47119 314193 281527 -1274 13905 -9337
47176 314155 281559 -1142 13889 -9458
47245 314191 281628 -1177 13629 -9470
47315 314283 281769 -1286 13382 -9444
47386 314425 281928 -1375 13148 -9271
47436 314554 282060 -1416 12879 -9229
47445 314543 282014 -1368 13023 -9235
47450 314600 282055 -1371 13506 -9045
47571 315147 282493 -1357 13598 -9069
47644 315492 282790 -1257 13453 -9187
47704 315850 283116 -1334 13599 -9295
47774 316194 283439 -1401 13689 -9505
47796 316206 283455 -1342 13594 -9687
47791 316074 283346 -1385 13455 -9665
47757 315817 283122 -1454 13315 -9543
47714 315508 282773 -1452 13254 -9499
47628 314908 282185 -1319 13295 -9396
47527 314278 281617 -1178 13500 -9280
47445 313701 281136 -1217 13566 -9276
47369 313235 280718 -1197 13449 -9375
47283 312736 280248 -1125 13345 -9520
47174 312213 279744 -1123 13274 -9616
47094 311876 279393 -1342 13594 -9687
47054 311748 279240 -1385 13455 -9665
47033 311709 279179 -1454 13315 -9543
47004 311619 279072 -1452 13254 -9499
46970 311508 278947 -1319 13295 -9396
46957 311472 278894 -1178 13500 -9280
46952 311464 278847 -1217 13566 -9276
46940 311428 278784 -1197 13449 -9375
46950 311456 278774 -1125 13345 -9520
46931 311371 278660 -1123 13274 -9616
46902 311298 278521 -1107 13255 -9714
46869 311198 278388 -1165 13182 -9813
46838 311134 278265 -1228 13089 -9895
46815 311077 278162 -1214 13016 -9925
46806 311068 278111 -1159 13004 -9948
46787 311001 278027 -1234 12998 -9993
46788 310991 277999 -1262 12990 -10020
46798 311034 277997 -1205 12969 -10024
46822 311135 278063 -1201 12885 -10030
46854 311226 278114 -1209 12877 -10038
46869 311261 278122 -1299 12876 -10092
46896 311326 278170 -1378 12842 -10126
46950 311484 278303 -1327 12848 -10140
46995 311604 278395 -1270 12841 -10178
47040 311694 278481 -1310 12806 -10214
47078 311773 278551 -1371 12798 -10220
47129 311893 278656 -1351 12808 -10211
47179 311993 278752 -1319 12817 -10204
47225 312066 278823 -1277 12828 -10215
47261 312093 278837 -1218 12828 -10233
47296 312119 278870 -1252 12840 -10191
47348 312226 278942 -1281 12810 -10185
47396 312295 279011 -1307 12789 -10191
47431 312317 279020 -1311 12806 -10185
47466 312350 279045 -1292 12820 -10172
47489 312332 279026 -1278 12847 -10159
47488 312240 278978 -1285 12857 -10155
47478 312200 278963 -1287 12819 -10152
47464 312169 278942 -1270 12814 -10144
47444 312141 278923 -1265 12847 -10141
47427 312140 278917 -1254 12867 -10122
47419 312208 278985 -1252 12843 -10108
47422 312277 279047 -1300 12832 -10101
47422 312323 279084 -1350 12838 -10111
47417 312339 279099 -1277 12844 -10113
47418 312355 279129 -1180 12849 -10109
47430 312417 279181 -1229 12845 -10145
47436 312445 279219 -1284 12854 -10159
47445 312462 279234 -1249 12851 -10140
47441 312424 279198 -1202 12891 -10114
47451 312447 279227 -1211 12912 -10106
47464 312469 279255 -1258 12882 -10115
47475 312500 279283 -1286 12875 -10125
47488 312544 279329 -1283 12878 -10125
47507 312609 279388 -1241 12886 -10120
47519 312661 279426 -1186 12900 -10108
47538 312729 279491 -1239 12914 -10102
47554 312815 279552 -1320 12912 -10081
47577 312879 279600 -1246 12894 -10058
47600 312961 279654 -1212 12924 -10047
47632 313051 279733 -1294 12941 -10054
47671 313162 279833 -1326 12924 -10077
47720 313301 279960 -1301 12934 -10080
47772 313417 280062 -1272 12920 -10069
47806 313493 280136 -1266 12909 -10054
47848 313575 280213 -1277 12935 -10050
47900 313694 280326 -1294 12942 -10057
47950 313786 280410 -1323 12930 -10065
47986 313857 280486 -1321 12926 -10057
48044 313998 280612 -1310 12928 -10063
48090 314105 280692 -1308 12936 -10075
48134 314197 280776 -1299 12930 -10076
48175 314262 280832 -1305 12908 -10070
48213 314343 280889 -1331 12892 -10065
48257 314434 280969 -1350 12893 -10074
48307 314543 281059 -1343 12895 -10079
48346 314607 281110 -1355 12903 -10082
48382 314667 281149 -1372 12901 -10080
48416 314715 281181 -1375 12900 -10076
48425 314633 281114 -1368 12924 -10083
48417 314527 281050 -1343 12960 -10083
48401 314488 281037 -1323 12954 -10076
48386 314474 281035 -1352 12924 -10085
48373 314501 281052 -1428 12930 -10095
48364 314564 281107 -1458 12928 -10082
48371 314662 281173 -1428 12902 -10062
48363 314703 281210 -1418 12880 -10022
48352 314704 281200 -1460 12892 -10016
48346 314731 281204 -1481 12913 -10054
48354 314807 281284 -1399 12905 -10065
48351 314808 281277 -1342 12944 -10066
48350 314824 281276 -1375 12962 -10083
48340 314783 281231 -1380 12925 -10085
48356 314833 281277 -1340 12906 -10060
48371 314913 281342 -1333 12889 -10047
48371 314917 281337 -1392 12880 -10062
48374 314928 281342 -1445 12877 -10073
48371 314923 281348 -1458 12885 -10057
48372 314941 281354 -1453 12906 -10055
48376 314958 281370 -1445 12918 -10078
48386 314993 281404 -1453 12957 -10050
48404 315070 281456 -1433 12929 -10056
48426 315184 281545 -1350 12909 -10061
48444 315278 281606 -1406 12909 -10088
48468 315344 281667 -1499 12900 -10097
48490 315417 281720 -1487 12888 -10099
48509 315454 281743 -1412 12880 -10084
48525 315492 281778 -1375 12879 -10073
48551 315547 281801 -1410 12883 -10082
48569 315594 281840 -1449 12904 -10080
48592 315650 281889 -1439 12910 -10076
48612 315686 281904 -1407 12920 -10069
48631 315704 281922 -1405 12910 -10072
48653 315728 281943 -1442 12899 -10065
48676 315768 281962 -1471 12907 -10034
48713 315875 282041 -1443 12912 -10031
48745 315928 282097 -1406 12918 -10031
48768 315938 282095 -1426 12924 -10031
48788 315932 282082 -1406 12947 -10024
48801 315900 282071 -1389 12946 -10019
48795 315791 281982 -1421 12946 -10016
48792 315765 281983 -1458 12961 -10029
48774 315710 281957 -1439 12962 -10041
48755 315671 281928 -1415 12929 -10029
48740 315666 281953 -1450 12907 -10001
48737 315721 281977 -1475 12925 -9987
48736 315758 282014 -1505 12949 -10015
48724 315766 282011 -1451 12950 -10018
48721 315769 282011 -1357 12965 -10027
48722 315789 282038 -1415 12983 -10049
48723 315806 282061 -1472 12970 -10033
48725 315820 282070 -1450 12943 -10022
48730 315821 282060 -1430 12926 -10011
48727 315777 282002 -1453 12920 -10016
48733 315783 282009 -1500 12912 -10011
48739 315815 282036 -1509 12919 -9991
48745 315828 282062 -1497 12954 -10005
48753 315856 282067 -1474 12997 -10014
48760 315870 282092 -1454 13010 -9977
48769 315888 282110 -1504 13019 -9965
48781 315909 282126 -1489 13005 -9969
48792 315960 282161 -1421 12972 -9954
48799 315954 282145 -1484 12987 -9966
48804 315942 282137 -1571 12996 -9991
48808 315936 282126 -1541 12984 -9987
48812 315888 282060 -1485 12990 -9973
48815 315852 282029 -1502 12990 -9959
48816 315810 281974 -1537 12986 -9952
48830 315806 281967 -1479 13054 -9926
48855 315839 281991 -1501 13033 -9907
48886 315891 282016 -1497 13009 -9896
48916 315961 282067 -1500 12995 -9903
48945 316028 282107 -1497 12999 -9925
48971 316094 282145 -1481 13006 -9941
49002 316171 282205 -1470 12997 -9939
49040 316265 282271 -1448 13001 -9946
49067 316311 282290 -1434 13010 -9948
49083 316311 282285 -1408 13044 -9914
49108 316330 282300 -1422 13049 -9928
49106 316242 282223 -1468 13061 -9942
49087 316110 282140 -1481 13068 -9945
49074 316061 282115 -1442 13046 -9938
49053 315999 282089 -1439 13033 -9908
49030 315982 282087 -1471 13041 -9877
49012 315966 282091 -1490 13040 -9902
48992 315929 282053 -1430 13049 -9927
48970 315879 282027 -1326 13091 -9919
48955 315847 281997 -1412 13067 -9915
48940 315806 281985 -1392 13035 -9893
48932 315780 281963 -1367 13020 -9877
48918 315720 281927 -1395 13008 -9874
48913 315697 281918 -1441 13008 -9881
48905 315640 281858 -1460 13021 -9887
48903 315621 281831 -1452 13034 -9905
48906 315622 281820 -1420 13057 -9930
48903 315608 281773 -1366 13092 -9881
48898 315572 281730 -1385 13097 -9858
48887 315516 281682 -1439 13085 -9873
48888 315525 281686 -1349 13064 -9852
48897 315577 281725 -1342 13053 -9869
48903 315639 281762 -1466 13062 -9897
48914 315678 281791 -1504 13062 -9903
48920 315699 281797 -1451 13060 -9890
48932 315733 281833 -1414 13045 -9908
48942 315752 281826 -1421 13042 -9928
48944 315740 281808 -1411 13060 -9911
48950 315728 281794 -1409 13083 -9895
48951 315700 281764 -1412 13083 -9895
48965 315739 281762 -1418 13065 -9900
48980 315758 281769 -1424 13054 -9891
48992 315766 281767 -1443 13032 -9892
48998 315712 281707 -1453 13011 -9911
48997 315644 281633 -1440 12997 -9925
48990 315567 281559 -1430 12989 -9921
48994 315519 281518 -1432 12999 -9928
49003 315516 281507 -1438 13013 -9942
49012 315478 281473 -1408 13038 -9922
49011 315430 281411 -1395 13033 -9923
49009 315357 281333 -1423 13001 -9938
49025 315391 281344 -1432 12981 -9928
49025 315318 281285 -1443 12984 -9944
49007 315194 281203 -1437 13037 -9968
48988 315176 281201 -1410 13032 -9962
48979 315247 281258 -1390 12977 -9957
49004 315491 281448 -1394 12967 -9942
49045 315829 281715 -1415 12986 -9954
49093 316237 282008 -1291 13045 -9979
49132 316547 282235 -1344 13056 -10030
49140 316690 282315 -1368 13079 -10026
49127 316714 282308 -1316 13024 -10028
49087 316618 282198 -1308 12981 -9999
49046 316491 282084 -1355 12958 -9930
49033 316508 282115 -1375 12966 -9817
49043 316609 282200 -1383 13032 -9702
49062 316700 282377 -1412 13097 -9671
49159 317206 282958 -1292 13354 -9612
49230 317592 283397 -1307 13564 -9589
49198 317411 283358 -1386 13595 -9555
49122 317043 283121 -1278 13595 -9534
49020 316596 282735 -1249 13574 -9636
48916 316226 282358 -1424 13345 -9752
48813 315848 281935 -1598 13143 -9773
48741 315477 281572 -1626 13087 -9636
48660 314911 281098 -1542 13065 -9408
48645 314661 280912 -1315 13270 -9197
48622 314369 280708 -1372 13532 -9248
48630 314239 280674 -1359 13673 -9422
48684 314388 280868 -1257 13779 -9550
48752 314626 281146 -1192 13839 -9561
48809 314842 281387 -1186 13758 -9473
48840 314982 281519 -1184 13504 -9475
48836 315015 281504 -1167 13269 -9569
48826 315071 281503 -1209 13165 -9610
48894 315456 281807 -1283 13019 -9475
48956 315748 282040 -1277 12934 -9349
48993 315979 282247 -1193 13186 -9304
49053 316340 282591 -1209 13571 -9251
49089 316557 282806 -1203 13588 -9270
49059 316363 282668 -1101 13474 -9253
49006 316086 282418 -1132 13510 -9195
48915 315600 281965 -1252 13508 -9349
48810 315038 281418 -1315 13492 -9586
48672 314272 280682 -1322 13501 -9645
48522 313434 279892 -1365 13356 -9513
48390 312744 279212 -1333 13239 -9370
48241 312073 278518 -1227 13285 -9279
48117 311614 278056 -1107 13346 -9200
48055 311468 277890 -995 13465 -9348
48065 311659 278069 -979 13518 -9492
48124 312025 278446 -984 13482 -9569
48183 312386 278804 -989 13481 -9714
48204 312575 278985 -1052 13442 -9828
48205 312652 279088 -1081 13280 -9912
48181 312663 279102 -1034 13105 -9977
48151 312592 279007 -1201 12966 -10027
48089 312412 278805 -1192 12991 -10008
48038 312266 278642 -1120 12992 -9951
48009 312222 278570 -1142 12935 -9941
47973 312181 278480 -1090 12898 -9926
47933 312086 278360 -1103 12925 -9933
