2025-10-16 03:04:39    绿光---红外光---红光---X轴---Y轴---Z轴
21316 105843 134857 12111 9861 3493
21305 105836 134850 12107 9858 3487
21296 105827 134850 12102 9865 3479
21288 105820 134844 12098 9881 3493
21284 105818 134846 12103 9899 3507
21283 105815 134853 12102 9913 3510
21279 105819 134858 12096 9914 3508
21279 105820 134862 12098 9926 3515
21279 105822 134865 12102 9931 3532
21276 105818 134863 12069 9860 3537
21273 105814 134857 12073 9856 3531
21268 105813 134862 12082 9874 3537
21266 105811 134862 12092 9896 3555
21262 105805 134862 12093 9917 3554
21261 105799 134856 12088 9936 3534
21256 105801 134854 12086 9942 3539
21256 105802 134860 12087 9949 3553
21253 105800 134862 12079 9941 3570
21255 105804 134863 12048 9900 3591
21255 105799 134860 12020 9860 3611
21256 105803 134862 12028 9858 3626
21258 105808 134868 12052 9877 3625
21259 105810 134870 12069 9888 3610
21261 105816 134876 12085 9899 3584
21266 105819 134872 12097 9906 3571
21267 105819 134874 12101 9907 3561
21270 105821 134871 12102 9911 3542
21267 105825 134872 12100 9917 3526
21273 105830 134885 12086 9912 3533
21273 105834 134883 12071 9886 3554
21279 105834 134879 12066 9875 3565
21279 105838 134882 12071 9893 3571
21279 105830 134888 12079 9899 3566
21273 105818 134889 12084 9899 3555
21264 105801 134886 12087 9897 3547
21250 105783 134882 12086 9892 3547
21239 105768 134883 12090 9887 3539
21231 105767 134890 12096 9889 3528
21225 105766 134896 12087 9892 3526
21220 105762 134895 12058 9897 3556
21217 105761 134896 12073 9941 3556
21216 105767 134908 12077 9970 3545
21217 105775 134926 12079 9978 3545
21216 105774 134924 12080 9971 3551
21215 105774 134926 12076 9962 3541
21217 105777 134933 12066 9942 3534
21216 105778 134930 12058 9929 3537
21214 105777 134934 12053 9935 3545
21214 105775 134942 12046 9928 3564
21213 105774 134941 12045 9924 3566
21221 105799 134959 12060 9926 3577
21223 105804 134962 12063 9930 3569
21226 105806 134957 12062 9923 3570
21226 105800 134953 12065 9919 3567
21231 105810 134961 12069 9923 3557
21233 105813 134961 12074 9924 3553
21235 105815 134960 12075 9917 3558
21236 105813 134947 12063 9904 3563
21236 105802 134942 12046 9881 3556
21233 105793 134947 12043 9879 3548
21222 105772 134933 12062 9907 3549
21211 105756 134935 12076 9918 3552
21201 105746 134936 12077 9903 3553
21192 105739 134935 12072 9888 3550
21186 105728 134929 12071 9900 3563
21180 105733 134930 12086 9918 3576
21179 105733 134929 12096 9928 3570
21178 105729 134931 12096 9933 3561
21179 105738 134944 12083 9905 3556
21178 105739 134938 12073 9886 3556
21179 105746 134946 12070 9887 3555
21182 105746 134943 12060 9876 3556
21182 105744 134942 12057 9876 3558
21181 105745 134946 12057 9881 3560
21183 105745 134946 12064 9897 3564
21182 105742 134952 12075 9916 3561
21182 105741 134957 12080 9929 3559
21184 105745 134966 12087 9945 3569
21183 105745 134972 12046 9907 3583
21184 105744 134969 12044 9909 3585
21187 105744 134969 12051 9921 3579
21188 105748 134967 12058 9931 3576
21194 105756 134977 12063 9935 3579
21194 105759 134968 12069 9944 3579
21198 105763 134976 12066 9957 3576
21197 105767 134974 12065 9965 3577
21200 105768 134971 12070 9967 3577
21202 105771 134973 12034 9940 3600
21206 105774 134970 12035 9941 3602
21207 105777 134965 12042 9939 3594
21212 105782 134973 12048 9935 3588
21218 105785 134970 12055 9937 3582
21219 105784 134959 12057 9944 3577
21220 105786 134947 12061 9948 3570
21223 105780 134947 12069 9954 3566
21221 105767 134941 12076 9963 3574
21214 105751 134937 12075 9945 3578
21205 105733 134931 12062 9904 3567
21194 105719 134925 12053 9895 3566
21183 105712 134919 12059 9917 3578
21177 105708 134921 12075 9942 3586
21172 105702 134915 12092 9966 3577
21170 105700 134908 12096 9974 3564
21168 105701 134913 12092 9965 3563
21171 105710 134924 12086 9951 3569
21172 105712 134927 12079 9934 3566
21169 105708 134915 12066 9899 3555
21171 105712 134917 12046 9848 3551
21175 105716 134916 12042 9829 3558
21174 105716 134910 12064 9854 3567
21170 105708 134910 12080 9879 3571
21170 105706 134911 12081 9901 3561
21174 105709 134919 12084 9910 3555
21174 105714 134918 12086 9908 3573
21174 105717 134922 12079 9901 3586
21175 105711 134921 12077 9899 3591
21179 105722 134920 12078 9905 3597
21180 105719 134922 12029 9868 3599
21184 105727 134922 12056 9881 3593
21183 105727 134918 12070 9890 3587
21186 105727 134906 12075 9902 3582
21187 105729 134909 12082 9912 3572
21193 105735 134910 12089 9911 3570
21196 105735 134914 12091 9911 3572
21196 105738 134904 12089 9900 3574
21200 105740 134899 12080 9891 3574
21199 105740 134885 12057 9847 3562
21202 105739 134890 12068 9871 3564
21207 105749 134883 12079 9895 3560
21209 105750 134880 12081 9905 3562
21213 105750 134871 12080 9907 3559
21216 105744 134864 12081 9915 3559
21218 105732 134869 12088 9925 3548
21216 105720 134869 12092 9920 3543
21208 105704 134867 12084 9902 3548
21197 105691 134857 12081 9892 3560
21190 105683 134856 12089 9908 3557
21186 105678 134863 12088 9927 3549
21183 105675 134859 12089 9937 3549
21179 105675 134855 12092 9935 3552
21178 105671 134848 12084 9915 3552
21180 105677 134855 12078 9900 3554
21183 105687 134863 12070 9891 3549
21183 105684 134859 12068 9894 3542
21186 105689 134865 12075 9907 3544
21189 105691 134860 12081 9897 3555
21188 105685 134858 12084 9893 3560
21187 105687 134859 12084 9911 3555
21187 105684 134853 12091 9920 3560
21190 105682 134861 12095 9923 3564
21193 105685 134863 12088 9923 3560
21195 105690 134869 12080 9920 3558
21198 105692 134874 12075 9913 3557
21200 105695 134878 12080 9905 3562
21204 105698 134883 12087 9895 3560
21209 105706 134887 12070 9871 3554
21212 105716 134895 12059 9864 3549
21216 105718 134903 12071 9888 3549
21222 105725 134910 12083 9905 3548
21229 105735 134921 12088 9902 3549
21233 105743 134916 12080 9892 3552
21239 105748 134926 12073 9891 3556
21246 105752 134929 12072 9902 3553
21250 105758 134930 12077 9901 3551
21252 105759 134932 12080 9893 3550
21258 105764 134933 12055 9859 3533
21265 105773 134936 12066 9878 3547
21269 105779 134933 12072 9895 3555
21272 105780 134926 12073 9902 3561
21276 105775 134923 12075 9909 3554
21276 105766 134929 12065 9919 3544
21275 105752 134923 12054 9918 3540
21268 105740 134923 12058 9920 3544
21262 105727 134921 12075 9937 3551
21259 105728 134931 12063 9939 3518
21257 105731 134933 12067 9943 3507
21256 105730 134936 12076 9951 3507
21256 105730 134941 12074 9940 3512
21258 105735 134939 12063 9932 3515
21261 105741 134953 12049 9927 3515
21264 105744 134956 12051 9938 3519
21264 105743 134946 12065 9969 3527
21267 105743 134950 12074 9979 3537
21269 105745 134948 12065 9963 3536
21270 105744 134951 12050 9932 3552
21270 105745 134949 12048 9923 3568
21274 105746 134950 12052 9934 3562
21275 105745 134952 12049 9925 3563
21278 105747 134954 12043 9922 3561
21281 105752 134960 12046 9929 3551
21284 105756 134962 12057 9943 3548
21287 105756 134960 12067 9956 3547
21287 105755 134957 12070 9964 3541
21290 105759 134956 12069 9969 3534
21294 105763 134960 12057 9962 3528
21298 105769 134960 12053 9964 3530
21304 105770 134962 12061 9976 3546
21306 105777 134963 12061 9975 3562
21312 105786 134971 12059 9972 3561
21316 105784 134972 12056 9964 3557
21320 105791 134974 12061 9954 3558
21328 105803 134978 12068 9958 3552
21335 105808 134987 12068 9968 3545
21338 105813 134984 12069 9977 3545
21338 105813 134972 12053 9926 3536
21342 105805 134979 12051 9920 3528
21346 105800 134980 12053 9922 3535
21341 105790 134978 12063 9936 3553
21337 105777 134980 12079 9957 3553
21331 105770 134972 12085 9977 3536
21331 105769 134979 12086 9979 3524
21330 105771 134980 12082 9962 3529
21330 105776 134984 12073 9942 3543
21327 105772 134983 12023 9887 3554
21331 105774 134986 12026 9891 3552
21335 105780 134996 12050 9917 3560
21335 105782 134985 12068 9940 3562
21336 105782 134983 12071 9955 3561
21339 105787 134988 12073 9961 3565
21342 105790 134986 12080 9955 3567
21342 105789 134986 12079 9953 3573
21345 105782 134988 12075 9942 3580
21346 105784 134988 12049 9894 3587
21347 105787 134989 12052 9910 3576
21352 105788 134985 12068 9925 3562
21352 105790 134983 12075 9926 3555
21355 105794 134983 12071 9923 3555
21356 105795 134981 12075 9931 3553
21363 105802 134986 12083 9941 3564
21366 105806 134988 12087 9937 3574
21370 105807 134998 12087 9938 3567
21371 105816 134995 12078 9935 3571
21376 105824 134999 12057 9917 3572
21383 105832 135004 12057 9917 3553
21385 105838 135008 12072 9935 3542
21391 105845 135006 12073 9943 3549
21395 105850 135004 12074 9955 3554
21399 105859 135004 12076 9967 3551
21403 105866 135006 12076 9974 3556
21406 105871 134998 12080 9966 3560
21408 105877 134991 12078 9948 3560
21411 105878 134983 12074 9933 3563
21412 105878 134986 12062 9921 3560
21407 105868 134986 12073 9963 3570
21403 105863 134983 12071 9979 3570
21395 105855 134973 12064 9970 3576
21388 105847 134960 12060 9957 3588
21380 105838 134945 12052 9943 3591
21371 105833 134922 12043 9925 3587
21364 105816 134892 12044 9924 3590
21359 105802 134871 12059 9934 3582
21355 105787 134847 12056 9929 3594
21347 105762 134807 12060 9945 3591
21331 105722 134736 12058 9963 3593
21316 105678 134663 12058 9967 3606
21307 105645 134604 12054 9959 3616
21295 105623 134560 12052 9955 3628
21285 105616 134525 12059 9950 3634
21284 105642 134531 12063 9948 3629
21276 105649 134512 12061 9954 3648
21273 105648 134492 12055 9875 3633
21274 105669 134510 12075 9866 3598
21274 105692 134516 12092 9861 3581
21273 105703 134508 12081 9841 3592
21265 105699 134480 12067 9832 3612
21254 105672 134427 12079 9841 3632
21241 105642 134359 12093 9857 3646
21217 105576 134250 12095 9851 3649
21185 105505 134114 12099 9835 3654
21159 105453 133993 12103 9799 3678
21137 105415 133901 12097 9759 3724
21112 105370 133796 12095 9746 3755
21090 105324 133702 12100 9733 3756
21071 105289 133625 12109 9711 3752
21057 105258 133555 12128 9692 3726
21045 105227 133503 12143 9650 3696
21038 105213 133463 12140 9600 3685
21035 105216 133450 12140 9588 3707
21033 105235 133460 12140 9594 3753
21043 105262 133509 12137 9609 3783
21022 105374 133603 12151 9631 3769
20982 105256 133425 12157 9659 3746
20959 105201 133339 12145 9680 3750
20947 105183 133284 12119 9685 3819
20933 105151 133238 12063 9666 3971
20928 105132 133216 12041 9643 3954
20929 105130 133231 12092 9660 3802
20932 105128 133249 12141 9689 3757
20938 105142 133271 12157 9697 3764
20937 105150 133283 12151 9678 3765
20946 105169 133325 12208 9567 3764
20958 105190 133380 12218 9527 3757
20972 105204 133420 12192 9502 3765
20986 105222 133465 12163 9487 3782
21006 105245 133529 12156 9486 3772
21023 105253 133580 12163 9475 3730
21048 105283 133667 12184 9471 3686
21078 105319 133758 12199 9479 3679
21110 105354 133856 12189 9495 3695
21141 105392 133953 12191 9517 3702
21165 105424 134032 12199 9541 3700
21186 105443 134083 12192 9565 3693
21210 105478 134163 12173 9573 3686
21230 105514 134238 12149 9584 3691
21251 105549 134295 12140 9610 3695
21266 105567 134330 12149 9654 3687
21279 105577 134362 12152 9710 3682
21287 105576 134395 12142 9758 3683
21293 105580 134420 12131 9780 3672
21294 105582 134452 12109 9767 3663
21295 105593 134475 12102 9744 3668
21298 105591 134500 12122 9750 3659
21295 105602 134516 12131 9763 3634
21293 105603 134524 12123 9750 3615
21290 105603 134525 12112 9740 3616
21293 105604 134533 12109 9753 3630
21291 105604 134535 12106 9772 3637
21292 105610 134546 12106 9795 3638
21292 105610 134545 12114 9799 3629
21297 105620 134566 12107 9775 3618
21304 105626 134578 12088 9758 3609
21303 105630 134581 12083 9763 3593
21304 105632 134597 12085 9787 3583
21306 105629 134600 12090 9805 3585
21307 105626 134603 12103 9829 3578
21309 105634 134619 12112 9855 3579
21311 105644 134628 12113 9859 3570
21311 105643 134633 12108 9862 3560
21314 105649 134639 12105 9873 3573
21318 105650 134651 12107 9875 3576
21316 105661 134653 12085 9848 3591
21323 105663 134656 12086 9856 3585
21328 105674 134666 12092 9851 3582
21331 105681 134675 12098 9845 3584
21337 105692 134687 12097 9846 3579
21339 105698 134697 12105 9859 3580
21343 105707 134706 12118 9881 3581
21348 105716 134716 12119 9883 3574
21353 105725 134727 12113 9865 3569
21357 105733 134727 12091 9800 3557
21364 105739 134736 12094 9795 3558
21366 105750 134739 12098 9798 3556
21371 105758 134754 12099 9808 3553
21377 105769 134766 12096 9818 3561
21380 105776 134764 12093 9830 3574
21383 105784 134773 12092 9844 3573
21392 105796 134789 12100 9855 3569
21396 105799 134787 12101 9865 3577
21398 105805 134791 12070 9840 3585
21399 105802 134788 12069 9849 3594
21349 105744 134787 12075 9899 3613
21345 105743 134784 12075 9893 3622
21342 105739 134775 12070 9875 3612
21341 105740 134779 12063 9869 3600
21340 105740 134774 12065 9870 3596
21337 105739 134769 12075 9878 3605
21334 105735 134762 12081 9896 3610
21332 105734 134760 12085 9897 3591
21329 105735 134764 12065 9883 3580
21328 105728 134763 12053 9887 3604
21327 105734 134764 12061 9904 3629
21327 105735 134766 12059 9912 3638
21329 105739 134768 12058 9914 3637
21327 105740 134769 12060 9897 3633
21327 105745 134767 12061 9881 3625
21328 105747 134767 12065 9879 3618
21331 105753 134769 12075 9885 3621
21332 105756 134773 12083 9897 3615
21334 105754 134769 12069 9876 3607
21336 105760 134767 12060 9853 3615
21338 105763 134771 12070 9856 3621
21341 105764 134770 12075 9863 3622
21341 105767 134771 12077 9875 3626
21345 105773 134771 12082 9879 3618
21348 105784 134774 12086 9865 3611
21351 105788 134775 12080 9859 3618
21354 105795 134780 12075 9871 3616
21356 105796 134784 12076 9883 3613
21358 105803 134787 12063 9878 3616
21362 105811 134793 12074 9878 3614
21365 105816 134796 12077 9892 3618
21368 105815 134788 12072 9899 3618
21368 105821 134785 12077 9898 3620
21370 105816 134781 12081 9903 3617
21371 105812 134784 12079 9908 3613
21364 105797 134779 12075 9915 3622
21356 105783 134770 12069 9924 3629
21342 105767 134760 12055 9910 3612
21332 105753 134750 12030 9877 3590
21323 105750 134747 12024 9886 3596
21318 105747 134740 12046 9924 3624
21315 105741 134735 12061 9955 3633
21310 105742 134731 12062 9974 3631
21305 105743 134732 12064 9973 3623
21306 105744 134740 12068 9959 3609
21303 105743 134729 12064 9935 3601
21302 105743 134732 12059 9915 3599
21300 105745 134729 12048 9902 3591
21300 105741 134727 12023 9888 3585
21297 105739 134721 12022 9884 3600
21297 105736 134725 12049 9900 3615
21296 105738 134735 12067 9920 3606
21296 105739 134736 12076 9927 3603
21294 105733 134729 12078 9921 3616
21291 105729 134732 12069 9915 3637
21290 105726 134725 12060 9911 3647
21288 105734 134732 12053 9905 3643
21290 105738 134738 12048 9901 3640
21292 105742 134734 12035 9869 3626
21293 105747 134740 12048 9883 3616
21296 105750 134743 12063 9886 3613
21298 105756 134751 12075 9888 3610
21300 105766 134757 12077 9888 3617
21302 105768 134758 12070 9886 3622
21302 105766 134756 12067 9881 3617
21304 105770 134758 12072 9884 3619
21307 105774 134755 12070 9888 3622
21308 105783 134755 12041 9855 3612
21314 105792 134765 12049 9878 3608
21316 105791 134766 12061 9898 3610
21320 105797 134776 12069 9894 3617
21323 105802 134778 12072 9886 3621
21326 105804 134778 12070 9887 3621
21327 105809 134774 12072 9892 3624
21329 105804 134767 12075 9901 3620
21331 105797 134775 12077 9903 3619
21328 105783 134770 12070 9894 3615
21316 105763 134754 12061 9869 3596
21300 105745 134747 12056 9864 3589
21289 105738 134744 12057 9892 3596
21282 105728 134742 12068 9914 3603
21275 105727 134730 12076 9942 3608
21268 105724 134729 12080 9960 3607
21267 105723 134729 12078 9953 3604
21268 105727 134736 12071 9936 3605
21266 105729 134740 12065 9912 3605
21264 105728 134739 12052 9877 3601
21265 105731 134745 12035 9846 3593
21264 105732 134746 12039 9834 3591
21264 105732 134745 12059 9851 3594
21264 105727 134740 12078 9880 3598
21261 105726 134741 12080 9892 3596
21258 105724 134745 12077 9891 3587
21256 105720 134746 12077 9885 3588
21253 105717 134743 12075 9879 3600
21253 105722 134743 12076 9877 3602
21251 105719 134743 12064 9881 3602
21250 105724 134732 12044 9864 3611
21251 105719 134731 12061 9881 3610
21251 105719 134726 12070 9886 3610
21250 105713 134722 12076 9900 3599
21251 105716 134717 12084 9901 3592
21251 105714 134710 12088 9882 3602
21250 105712 134701 12082 9870 3604
21251 105708 134693 12078 9865 3598
21251 105708 134686 12081 9868 3598
21252 105709 134688 12076 9836 3581
21256 105713 134688 12075 9853 3580
21260 105717 134692 12076 9864 3576
21262 105721 134694 12077 9872 3578
21263 105725 134689 12083 9879 3590
21267 105728 134688 12086 9875 3597
21270 105736 134691 12083 9870 3592
21271 105741 134687 12083 9876 3586
21272 105740 134677 12083 9878 3589
21273 105737 134669 12082 9866 3610
21274 105732 134672 12084 9870 3599
21273 105726 134684 12081 9868 3580
21263 105701 134673 12073 9869 3575
21250 105677 134658 12076 9894 3591
21235 105661 134652 12082 9929 3607
21222 105652 134642 12082 9955 3612
21213 105647 134638 12083 9957 3618
21208 105643 134632 12083 9955 3626
21203 105641 134627 12069 9926 3628
21199 105638 134624 12046 9873 3628
21198 105637 134634 12036 9859 3614
21196 105640 134630 12039 9865 3602
21190 105637 134617 12046 9883 3610
21190 105631 134609 12061 9912 3612
21185 105623 134597 12077 9928 3602
21175 105615 134570 12086 9931 3594
21168 105604 134550 12086 9926 3600
21157 105587 134528 12079 9914 3613
21150 105580 134507 12066 9903 3622
21141 105567 134489 12033 9886 3625
21133 105557 134459 12023 9879 3627
21124 105544 134432 12047 9891 3626
21114 105538 134403 12061 9897 3629
21107 105521 134376 12072 9907 3621
20985 105361 133898 12095 9813 3657
20989 105378 133906 12098 9818 3669
20987 105383 133891 12103 9814 3670
20983 105378 133889 12107 9794 3670
20979 105374 133865 12116 9736 3660
20970 105347 133813 12109 9725 3667
20954 105315 133745 12122 9703 3639
20935 105268 133669 12131 9682 3609
20914 105212 133585 12122 9687 3606
20887 105149 133490 12115 9710 3647
20850 105079 133392 12116 9744 3719
20829 105034 133347 12118 9768 3764
20822 105020 133359 12112 9768 3778
20823 105032 133405 12096 9728 3793
20817 105037 133427 12084 9676 3816
20822 105068 133471 12090 9634 3799
20834 105126 133555 12109 9604 3736
20843 105164 133611 12120 9592 3712
20835 105171 133596 12120 9601 3725
20812 105139 133512 12120 9623 3727
20820 105153 133532 12129 9647 3727
20826 105179 133549 12125 9670 3769
20800 105128 133457 12083 9657 3937
20791 105103 133432 12066 9642 3943
20784 105071 133395 12109 9630 3795
20756 104995 133284 12133 9616 3765
20730 104931 133189 12124 9623 3759
20716 104911 133144 12124 9647 3757
20699 104869 133080 12137 9660 3763
20684 104826 133019 12152 9654 3796
20677 104806 132999 12155 9635 3801
20673 104797 132987 12149 9597 3786
20672 104792 132974 12145 9566 3807
20675 104797 132991 12150 9527 3810
20677 104799 132996 12184 9463 3710
20685 104809 133019 12176 9449 3685
20695 104832 133051 12172 9442 3686
20705 104847 133088 12172 9464 3695
20720 104865 133128 12175 9495 3699
20735 104874 133178 12170 9524 3723
20745 104886 133214 12157 9542 3760
20762 104901 133251 12142 9550 3780
20775 104914 133292 12138 9558 3777
20792 104927 133336 12134 9596 3762
20813 104949 133390 12133 9626 3736
20828 104970 133431 12127 9663 3727
20842 104980 133468 12124 9703 3717
20855 104990 133498 12121 9707 3697
20863 104991 133530 12118 9681 3674
20863 104971 133534 12133 9686 3670
20858 104953 133548 12144 9710 3670
20852 104935 133561 12131 9730 3657
20849 104928 133572 12119 9730 3630
20841 104922 133580 12117 9705 3608
20835 104916 133584 12117 9684 3606
20831 104909 133590 12113 9669 3593
20828 104905 133586 12115 9663 3565
20827 104906 133592 12123 9675 3537
20827 104905 133598 12132 9706 3515
20825 104906 133601 12151 9747 3494
20825 104902 133601 12164 9765 3473
20825 104905 133609 12160 9779 3458
20829 104903 133618 12153 9790 3453
20829 104904 133622 12148 9759 3465
20824 104903 133619 12141 9754 3476
20822 104900 133625 12132 9785 3471
20821 104899 133632 12127 9790 3482
20822 104899 133636 12127 9797 3495
20821 104896 133641 12128 9804 3488
20818 104892 133628 12133 9802 3472
20819 104895 133631 12142 9796 3468
20820 104895 133633 12143 9786 3480
20822 104899 133637 12140 9780 3488
20825 104899 133649 12138 9759 3476
20830 104908 133663 12136 9739 3465
20835 104919 133682 12135 9741 3476
20837 104924 133687 12132 9744 3490
20841 104926 133693 12127 9756 3497
20846 104938 133699 12123 9773 3496
20850 104938 133705 12118 9775 3500
20854 104943 133715 12118 9784 3508
20860 104955 133725 12124 9799 3509
20862 104961 133728 12129 9801 3507
20866 104966 133733 12123 9771 3496
20873 104973 133748 12130 9773 3503
20877 104978 133758 12136 9780 3502
20878 104980 133751 12140 9786 3495
20881 104978 133750 12139 9777 3490
20881 104971 133757 12138 9779 3505
20873 104950 133755 12140 9800 3524
20863 104932 133751 12141 9803 3529
20852 104917 133748 12137 9808 3530
20844 104904 133747 12144 9777 3511
20836 104899 133747 12140 9752 3515
20833 104903 133755 12130 9737 3506
20829 104902 133759 12125 9735 3493
20831 104904 133768 12124 9742 3492
20828 104908 133776 12131 9762 3496
20827 104915 133782 12144 9785 3495
20823 104913 133778 12148 9778 3488
20821 104917 133775 12144 9775 3490
20821 104923 133776 12143 9773 3505
20819 104924 133774 12137 9752 3513
20816 104923 133767 12126 9748 3512
20810 104922 133756 12121 9761 3520
20804 104925 133753 12120 9765 3536
20802 104931 133751 12120 9770 3555
20802 104935 133754 12125 9778 3553
20799 104937 133758 12130 9780 3537
20798 104947 133756 12134 9780 3533
20800 104954 133763 12135 9776 3537
20800 104967 133769 12132 9767 3534
20802 104974 133781 12124 9748 3522
20804 104982 133780 12120 9729 3521
20805 104991 133787 12122 9714 3534
20807 105000 133791 12121 9707 3538
20808 105004 133792 12122 9718 3532
20809 105013 133792 12123 9736 3528
20810 105017 133790 12120 9754 3533
20812 105022 133785 12122 9772 3533
20813 105025 133793 12128 9782 3537
20819 105035 133792 12131 9777 3540
20821 105041 133792 12129 9751 3505
20823 105043 133796 12134 9762 3509
20827 105054 133804 12137 9768 3503
20831 105056 133805 12135 9765 3494
20832 105057 133809 12130 9749 3491
20838 105063 133814 12130 9760 3510
20841 105056 133818 12138 9797 3541
20838 105038 133818 12144 9836 3544
20828 105015 133805 12140 9852 3529
20818 105000 133804 12132 9834 3519
20812 104988 133804 12124 9811 3521
20803 104982 133807 12118 9794 3521
20797 104981 133811 12114 9776 3507
20794 104979 133815 12110 9768 3499
20790 104972 133806 12110 9779 3497
20789 104966 133805 12119 9794 3502
20791 104967 133810 12128 9805 3511
20789 104960 133802 12134 9822 3512
20786 104952 133796 12132 9831 3513
20785 104948 133791 12127 9799 3507
20785 104930 133778 12119 9807 3517
20779 104913 133770 12113 9817 3523
20778 104907 133757 12110 9826 3524
20775 104891 133749 12108 9827 3535
20774 104887 133748 12105 9830 3544
20771 104876 133741 12109 9842 3547
20770 104871 133732 12118 9835 3543
20768 104863 133718 12122 9816 3544
20761 104843 133699 12128 9788 3544
20754 104804 133645 12135 9769 3530
20741 104744 133566 12135 9766 3522
20721 104667 133469 12131 9766 3513
20706 104604 133387 12124 9776 3516
20700 104564 133326 12122 9785 3531
20696 104536 133285 12122 9781 3527
20690 104517 133256 12122 9788 3522
20690 104504 133239 12125 9779 3524
20696 104511 133237 12129 9755 3519
20699 104519 133249 12133 9752 3509
20707 104531 133257 12134 9745 3505
20713 104549 133273 12134 9745 3509
20720 104564 133289 12128 9743 3518
20727 104583 133307 12120 9740 3524
20732 104591 133310 12118 9737 3510
20729 104582 133297 12115 9744 3504
20728 104561 133271 12119 9772 3521
20726 104543 133260 12127 9799 3531
20721 104514 133243 12132 9816 3530
20711 104482 133222 12138 9821 3531
20698 104467 133208 12120 9801 3524
20694 104457 133201 12096 9774 3522
20689 104452 133205 12092 9759 3530
20688 104452 133213 12093 9744 3529
20686 104452 133215 12102 9755 3527
20687 104457 133225 12107 9791 3535
20691 104463 133241 12115 9836 3537
20690 104466 133243 12128 9855 3517
20688 104465 133241 12130 9837 3499
20691 104464 133241 12129 9824 3506
20690 104463 133236 12096 9800 3514
20689 104460 133235 12102 9809 3520
20689 104459 133234 12105 9817 3524
20688 104451 133226 12105 9820 3528
20686 104445 133229 12106 9825 3524
20687 104446 133235 12111 9830 3525
20688 104443 133226 12113 9834 3529
20689 104441 133223 12112 9826 3530
20687 104444 133223 12114 9821 3534
20689 104441 133223 12114 9788 3533
20689 104442 133222 12118 9793 3533
20692 104445 133217 12118 9795 3537
20694 104444 133215 12118 9794 3534
20694 104443 133214 12120 9807 3525
20701 104449 133217 12120 9814 3523
20702 104454 133221 12124 9809 3525
20707 104458 133221 12124 9797 3528
20711 104461 133226 12122 9793 3538
20713 104468 133228 12118 9787 3535
20720 104472 133240 12118 9768 3530
20720 104475 133228 12130 9768 3536
20724 104475 133233 12137 9784 3539
20728 104481 133236 12132 9760 3530
20734 104489 133240 12128 9743 3521
20735 104493 133238 12128 9765 3533
20740 104491 133240 12133 9794 3555
20744 104487 133242 12136 9823 3568
20742 104475 133247 12134 9824 3567
20738 104456 133245 12126 9816 3569
20732 104441 133245 12113 9786 3562
20726 104433 133246 12107 9743 3552
20722 104429 133249 12108 9742 3557
20718 104428 133250 12110 9760 3554
20716 104426 133244 12112 9775 3550
20713 104420 133244 12117 9798 3557
20712 104422 133248 12127 9814 3556
20717 104429 133264 12129 9826 3542
20716 104431 133263 12122 9833 3535
20715 104429 133255 12119 9832 3549
20713 104430 133255 12113 9786 3562
20716 104432 133267 12107 9743 3552
20717 104427 133264 12108 9742 3557
20717 104426 133263 12110 9760 3554
20719 104421 133255 12112 9775 3550
20715 104420 133263 12117 9798 3557
20717 104416 133263 12127 9814 3556
20714 104414 133256 12129 9826 3542
20715 104414 133259 12122 9833 3535
20716 104412 133252 12119 9832 3549
20717 104414 133255 12074 9821 3562
20718 104409 133247 12086 9829 3564
20719 104416 133246 12090 9836 3567
20720 104415 133243 12094 9842 3572
20723 104417 133240 12103 9856 3562
20725 104421 133239 12107 9853 3553
20728 104424 133232 12108 9850 3548
20724 104420 133224 12112 9849 3549
20730 104424 133225 12115 9840 3553
20733 104422 133220 12109 9821 3555
20732 104425 133218 12103 9809 3559
20724 104411 133180 12106 9816 3555
20718 104391 133130 12105 9817 3555
20713 104379 133088 12106 9806 3557
20705 104369 133053 12110 9795 3554
20693 104355 133004 12110 9785 3560
20687 104347 132973 12110 9769 3564
20672 104304 132912 12114 9758 3565
20665 104290 132890 12121 9748 3564
20666 104304 132924 12113 9741 3564
20655 104282 132916 12103 9746 3590
20649 104268 132911 12110 9749 3601
20645 104267 132920 12127 9747 3586
20635 104238 132891 12131 9729 3568
20619 104187 132822 12120 9706 3573
20601 104139 132754 12113 9713 3611
20584 104091 132678 12110 9747 3673
20562 104046 132599 12118 9775 3709
20545 104010 132534 12138 9768 3667
20531 103982 132475 12146 9730 3635
20512 103944 132412 12127 9660 3645
20496 103903 132354 12115 9620 3648
20491 103872 132329 12124 9610 3634
20489 103853 132317 12132 9619 3618
20490 103852 132334 12134 9655 3623
20497 103859 132364 12140 9679 3652
20502 103872 132385 12146 9681 3682
20509 103901 132434 12143 9675 3683
20528 103945 132519 12137 9688 3691
20539 103973 132562 12124 9688 3733
20527 103958 132515 12064 9635 3820
20511 103933 132448 12092 9644 3812
20535 103991 132530 12110 9639 3766
20529 104006 132507 12123 9635 3728
20511 103974 132435 12138 9641 3726
20515 103986 132445 12133 9631 3746
20517 103983 132432 12128 9623 3752
20493 103932 132329 12130 9634 3734
20476 103887 132248 12124 9648 3743
20468 103874 132211 12051 9644 3946
20459 103854 132159 12064 9620 3841
20445 103828 132102 12109 9608 3770
20441 103817 132087 12120 9622 3793
20441 103814 132080 12124 9631 3778
20442 103813 132080 12140 9624 3740
20439 103821 132081 12146 9632 3741
20442 103819 132077 12147 9624 3772
20450 103826 132103 12146 9587 3776
20450 103822 132127 12145 9531 3777
20448 103812 132146 12163 9500 3767
20453 103810 132187 12182 9473 3716
20454 103807 132206 12190 9449 3671
20452 103799 132216 12179 9436 3659
20449 103800 132222 12174 9459 3673
20454 103803 132247 12195 9494 3688
20451 103795 132255 12204 9515 3704
20454 103789 132262 12184 9524 3724
20456 103783 132273 12168 9527 3724
20458 103785 132280 12158 9515 3704
20458 103782 132282 12152 9498 3692
20462 103779 132291 12147 9500 3682
20465 103775 132299 12141 9523 3654
20467 103772 132300 12145 9553 3629
20465 103774 132305 12161 9590 3616
20471 103777 132324 12172 9625 3619
20475 103778 132337 12166 9650 3614
20477 103774 132350 12153 9666 3601
20482 103782 132367 12140 9669 3602
20488 103786 132387 12141 9657 3602
20493 103791 132411 12142 9647 3591
20501 103803 132439 12135 9652 3582
20509 103811 132466 12135 9654 3564
20519 103818 132493 12141 9653 3544
20527 103820 132516 12154 9650 3536
20534 103829 132532 12168 9653 3518
20540 103834 132549 12177 9657 3499
20552 103847 132574 12178 9662 3496
20557 103846 132590 12177 9658 3495
20563 103845 132600 12189 9633 3437
20570 103846 132604 12188 9639 3416
20574 103841 132609 12184 9647 3406
20578 103842 132614 12179 9658 3404
20582 103848 132617 12174 9676 3403
20587 103848 132617 12171 9697 3398
20593 103855 132629 12173 9706 3382
20597 103861 132639 12174 9713 3371
20602 103865 132637 12176 9716 3372
20602 103863 132630 12199 9698 3338
20605 103862 132633 12187 9694 3346
20602 103840 132625 12181 9699 3363
20594 103819 132620 12188 9699 3369
20585 103798 132606 12191 9674 3358
20578 103781 132587 12178 9658 3345
20569 103764 132581 12175 9672 3361
20559 103751 132565 12185 9695 3389
20552 103743 132555 12189 9703 3407
20549 103738 132550 12190 9703 3407
20546 103729 132551 12193 9708 3390
20543 103721 132547 12185 9705 3384
20537 103711 132533 12174 9685 3403
20531 103710 132519 12166 9656 3420
20530 103706 132516 12158 9649 3420
20530 103701 132512 12163 9659 3405
20526 103698 132512 12172 9678 3388
20527 103688 132515 12183 9711 3373
20526 103684 132519 12189 9722 3379
20525 103685 132516 12188 9710 3403
20524 103685 132519 12193 9697 3415
20524 103683 132522 12186 9681 3441
20525 103682 132525 12167 9680 3466
20523 103683 132528 12156 9692 3465
20522 103681 132530 12153 9693 3457
20524 103688 132531 12158 9687 3449
20527 103692 132546 12169 9692 3448
20531 103699 132553 12178 9699 3442
20533 103703 132566 12177 9703 3442
20539 103712 132565 12166 9705 3454
20540 103713 132566 12166 9680 3446
20543 103717 132574 12166 9689 3458
20544 103720 132570 12162 9690 3459
20547 103724 132574 12152 9688 3459
20549 103728 132582 12149 9702 3471
20554 103735 132583 12148 9711 3479
20555 103736 132585 12148 9723 3484
20558 103743 132581 12151 9729 3488
20559 103743 132580 12156 9723 3479
20563 103748 132584 12167 9706 3471
20564 103750 132587 12165 9707 3472
20563 103755 132575 12159 9701 3476
20563 103756 132572 12160 9701 3482
20568 103751 132581 12165 9707 3480
20565 103745 132575 12164 9721 3471
20560 103728 132580 12155 9725 3453
20553 103713 132574 12144 9715 3453
20546 103701 132568 12146 9724 3476
20540 103698 132572 12170 9730 3491
20533 103693 132571 12165 9729 3480
20526 103686 132564 12160 9721 3473
20522 103686 132565 12151 9712 3490
20523 103687 132571 12138 9698 3504
20522 103688 132575 12130 9687 3489
20519 103689 132568 12128 9685 3477
20514 103688 132557 12134 9696 3487
20511 103684 132553 12142 9710 3491
20509 103679 132550 12155 9715 3485
20508 103677 132546 12159 9711 3473
20507 103671 132539 12153 9717 3470
20502 103670 132543 12149 9724 3494
20500 103668 132546 12147 9720 3519
20499 103665 132547 12138 9728 3517
20497 103670 132545 12130 9734 3516
20497 103673 132548 12126 9729 3521
20495 103675 132547 12128 9734 3513
20494 103675 132544 12133 9738 3515
20492 103679 132538 12136 9740 3505
20489 103681 132529 12132 9747 3486
20490 103687 132529 12140 9759 3496
20487 103695 132523 12142 9752 3496
20487 103701 132521 12136 9740 3500
20488 103708 132516 12133 9727 3503
20487 103709 132508 12138 9730 3499
20490 103715 132507 12142 9734 3490
20486 103716 132502 12142 9744 3490
20485 103715 132487 12142 9757 3491
20484 103718 132476 12144 9743 3484
20482 103720 132464 12147 9724 3484
20484 103737 132466 12148 9719 3486
20483 103738 132465 12153 9718 3491
20483 103749 132457 12156 9717 3492
20482 103754 132448 12154 9716 3491
20485 103758 132444 12152 9726 3487
20482 103761 132449 12146 9718 3478
20477 103751 132438 12140 9692 3477
20468 103742 132427 12138 9704 3495
20461 103727 132424 12165 9756 3496
20449 103719 132412 12161 9774 3492
20443 103718 132410 12158 9766 3497
20436 103710 132407 12156 9753 3500
20433 103707 132400 12148 9721 3506
20429 103710 132396 12143 9693 3505
20432 103710 132400 12144 9694 3502
20430 103701 132401 12145 9689 3515
20427 103700 132393 12147 9692 3528
20426 103698 132384 12163 9703 3513
20424 103694 132383 12163 9708 3491
20421 103690 132376 12154 9708 3488
20420 103683 132367 12159 9698 3508
20416 103678 132363 12154 9701 3522
20417 103676 132367 12150 9712 3519
20415 103676 132365 12147 9712 3523
20413 103672 132363 12143 9725 3530
20410 103672 132359 12142 9733 3536
20410 103668 132348 12147 9720 3532
20409 103662 132346 12151 9706 3514
20410 103661 132338 12166 9693 3483
20411 103661 132339 12176 9690 3472
20411 103659 132342 12167 9711 3497
20412 103661 132343 12155 9722 3507
20414 103664 132344 12145 9711 3494
20415 103671 132339 12147 9709 3487
20416 103672 132343 12149 9716 3487
20419 103675 132347 12154 9724 3479
20423 103684 132348 12160 9728 3481
20427 103690 132355 12157 9731 3501
20432 103694 132354 12163 9700 3500
20432 103697 132359 12162 9700 3502
20440 103704 132372 12161 9700 3504
20444 103714 132379 12162 9708 3501
20446 103718 132381 12167 9711 3501
20449 103717 132374 12173 9703 3496
20454 103714 132374 12168 9694 3479
20453 103711 132388 12153 9687 3469
20450 103694 132384 12146 9700 3484
20445 103676 132385 12159 9713 3500
20437 103666 132375 12172 9721 3500
20430 103656 132375 12165 9740 3502
20426 103649 132370 12154 9747 3509
20419 103640 132366 12147 9744 3519
20415 103642 132364 12143 9727 3515
20411 103637 132360 12141 9702 3502
20410 103635 132356 12137 9685 3493
20409 103633 132365 12138 9681 3492
20408 103633 132361 12150 9693 3497
20406 103631 132359 12172 9708 3495
20409 103635 132362 12187 9721 3482
20408 103635 132355 12180 9725 3480
20404 103633 132359 12168 9729 3504
20405 103626 132351 12161 9730 3525
20404 103624 132354 12149 9728 3529
20401 103622 132354 12138 9739 3531
20401 103617 132351 12136 9745 3535
20399 103616 132348 12138 9743 3531
20397 103618 132340 12140 9744 3523
20395 103618 132336 12144 9741 3512
20392 103618 132332 12153 9720 3497
20390 103618 132319 12155 9708 3498
20390 103620 132314 12155 9719 3515
20387 103618 132298 12157 9723 3530
20387 103620 132289 12159 9713 3534
20387 103625 132285 12161 9706 3526
20386 103630 132278 12153 9705 3524
20386 103630 132268 12147 9714 3523
20388 103634 132266 12151 9714 3524
20387 103640 132256 12152 9705 3530
20386 103648 132251 12162 9695 3524
20385 103643 132244 12174 9675 3513
20384 103645 132225 12174 9661 3522
20376 103629 132186 12166 9655 3537
20366 103612 132133 12155 9666 3542
20356 103596 132081 12159 9684 3548
20347 103580 132047 12166 9681 3559
20338 103564 132027 12161 9636 3562
20327 103545 132002 12157 9601 3552
20309 103516 131954 12164 9621 3565
20288 103493 131907 12207 9628 3592
20284 103511 131922 12202 9624 3601
20277 103513 131921 12180 9634 3625
20271 103507 131921 12161 9615 3646
20274 103522 131948 12163 9576 3629
20276 103520 131953 12160 9544 3609
20267 103492 131924 12155 9508 3614
20251 103466 131885 12174 9490 3612
20237 103437 131824 12210 9505 3589
20219 103397 131749 12260 9531 3558
20207 103373 131700 12246 9521 3577
20194 103355 131655 12221 9536 3630
20178 103319 131588 12202 9541 3651
20168 103295 131559 12190 9523 3645
20170 103290 131578 12180 9523 3661
20174 103287 131602 12170 9515 3682
20172 103283 131607 12174 9499 3672
20175 103286 131629 12199 9488 3646
20189 103320 131690 12218 9482 3653
20199 103344 131741 12225 9493 3675
20206 103341 131749 12233 9510 3671
20193 103320 131702 12230 9522 3651
20174 103284 131623 12220 9529 3630
20187 103307 131665 12192 9522 3656
20193 103333 131675 12131 9505 3814
20176 103300 131600 12099 9494 3863
20175 103291 131578 12137 9499 3730
20173 103281 131556 12171 9517 3689
20160 103248 131502 12175 9543 3712
20158 103245 131485 12190 9576 3727
20157 103250 131474 12222 9563 3715
20146 103222 131421 12244 9522 3693
20146 103212 131411 12222 9481 3678
20146 103206 131405 12201 9441 3688
20145 103197 131392 12190 9405 3666
20147 103194 131404 12187 9387 3634
20152 103199 131431 12206 9391 3645
20157 103193 131472 12222 9413 3655
20165 103198 131516 12232 9438 3653
20166 103193 131541 12229 9464 3655
20162 103194 131553 12221 9494 3643
20161 103190 131566 12221 9505 3634
20160 103196 131582 12205 9497 3641
20160 103190 131582 12184 9488 3648
20161 103186 131592 12166 9484 3642
20164 103193 131604 12153 9504 3636
20167 103193 131611 12157 9547 3634
20166 103194 131609 12167 9581 3642
20168 103199 131610 12178 9602 3642
20170 103202 131615 12186 9595 3649
20167 103205 131610 12183 9595 3640
20163 103199 131596 12175 9591 3628
20162 103196 131600 12166 9578 3625
20166 103199 131612 12159 9565 3624
20172 103213 131642 12157 9555 3615
20169 103203 131638 12168 9545 3592
20170 103211 131649 12198 9532 3570
20175 103222 131658 12222 9524 3571
20175 103219 131651 12238 9526 3566
20177 103229 131652 12249 9518 3543
20181 103240 131664 12242 9511 3538
20181 103250 131664 12231 9503 3536
20185 103263 131679 12224 9489 3539
20189 103288 131708 12214 9483 3547
20197 103313 131737 12207 9478 3543
20209 103348 131772 12212 9477 3539
20219 103380 131807 12215 9485 3546
20231 103414 131837 12213 9496 3542
20239 103447 131878 12236 9496 3527
20251 103482 131914 12247 9499 3516
20264 103522 131963 12232 9498 3513
20277 103554 132007 12229 9496 3519
20289 103596 132046 12232 9506 3511
20302 103637 132099 12232 9499 3487
20314 103677 132140 12234 9467 3456
20325 103707 132178 12241 9456 3446
20327 103709 132197 12260 9478 3465
20328 103724 132227 12269 9499 3484
20325 103722 132233 12281 9492 3482
20319 103727 132248 12276 9467 3467
20316 103732 132259 12274 9449 3461
20310 103729 132259 12260 9427 3458
20307 103735 132272 12246 9406 3453
20306 103744 132277 12245 9398 3452
20304 103749 132281 12261 9405 3445
20304 103757 132290 12284 9420 3449
20305 103769 132299 12294 9428 3451
20303 103775 132305 12317 9433 3420
20307 103785 132314 12317 9422 3433
20309 103787 132327 12294 9427 3442
20308 103789 132323 12269 9436 3446
20305 103788 132324 12263 9439 3449
20306 103787 132330 12272 9437 3444
20304 103787 132334 12276 9430 3442
20305 103788 132344 12277 9428 3455
20304 103789 132342 12287 9420 3461
20305 103790 132342 12300 9414 3448
20305 103786 132344 12328 9414 3432
20309 103783 132348 12336 9418 3440
20312 103790 132362 12313 9415 3450
20317 103801 132372 12297 9407 3436
20319 103804 132373 12291 9404 3422
20322 103808 132374 12294 9398 3418
20325 103817 132379 12304 9382 3416
20327 103826 132386 12305 9383 3413
20330 103834 132397 12303 9404 3407
20333 103844 132405 12304 9412 3400
20337 103851 132412 12323 9411 3390
20341 103863 132418 12331 9408 3391
20345 103868 132431 12318 9403 3402
20350 103879 132439 12318 9391 3405
20356 103886 132446 12322 9385 3409
20362 103891 132456 12317 9384 3416
20362 103896 132452 12301 9385 3423
20369 103898 132460 12300 9396 3432
20373 103905 132471 12309 9404 3432
20373 103908 132467 12299 9396 3425
20377 103906 132464 12310 9415 3398
20382 103906 132466 12329 9446 3410
20385 103898 132478 12326 9473 3420
20383 103887 132468 12316 9465 3434
20377 103864 132464 12307 9454 3447
20371 103849 132457 12287 9442 3444
20363 103834 132450 12269 9407 3445
20357 103824 132444 12255 9379 3448
20350 103815 132436 12249 9380 3450
20347 103803 132425 12317 9422 3437
20343 103802 132425 12340 9441 3438
20347 103801 132430 12323 9446 3434
20345 103801 132434 12301 9449 3438
20342 103801 132430 12299 9438 3453
20339 103794 132418 12289 9425 3470
20339 103791 132426 12268 9427 3473
20338 103788 132421 12254 9436 3470
20338 103783 132420 12246 9439 3474
20339 103780 132419 12264 9439 3474
20336 103780 132419 12290 9448 3459
20337 103775 132413 12298 9454 3451
20337 103776 132414 12297 9460 3455
20337 103774 132414 12287 9464 3456
20335 103774 132403 12276 9447 3468
20334 103773 132405 12265 9443 3474
20334 103770 132401 12261 9447 3468
20336 103768 132400 12271 9448 3457
20340 103771 132402 12277 9449 3452
20339 103774 132401 12280 9435 3452
20341 103775 132399 12297 9431 3431
20343 103777 132399 12305 9430 3419
20344 103782 132393 12304 9430 3430
20345 103782 132394 12301 9428 3439
20349 103789 132391 12298 9419 3436
20348 103791 132394 12297 9415 3440
20352 103795 132394 12300 9418 3456
20355 103795 132389 12297 9425 3457
20359 103799 132393 12295 9429 3452
20362 103804 132391 12301 9436 3445
20364 103807 132388 12317 9432 3440
20366 103809 132392 12303 9410 3445
20369 103817 132384 12260 9409 3461
20369 103819 132378 12247 9435 3492
20373 103816 132375 12261 9454 3523
20375 103809 132380 12273 9474 3525
20373 103802 132385 12279 9493 3511
20368 103781 132379 12279 9492 3495
20360 103772 132369 12270 9470 3494
20353 103762 132360 12259 9444 3498
20349 103751 132355 12317 9432 3440
20343 103744 132350 12303 9410 3445
20340 103751 132344 12260 9409 3461
20336 103743 132343 12247 9435 3492
20336 103742 132342 12261 9454 3523
20333 103738 132340 12273 9474 3525
20331 103738 132325 12279 9493 3511
20327 103735 132312 12279 9492 3495
20326 103736 132319 12270 9470 3494
20327 103733 132320 12259 9444 3498
20326 103730 132315 12267 9395 3472
20325 103722 132317 12265 9404 3474
20327 103720 132317 12269 9434 3481
20327 103718 132318 12282 9456 3487
20327 103719 132319 12273 9472 3475
20326 103719 132314 12259 9468 3478
20324 103722 132311 12262 9453 3502
20322 103723 132309 12252 9454 3513
20325 103733 132315 12235 9448 3501
20326 103737 132316 12244 9442 3483
20327 103745 132319 12261 9460 3479
20328 103753 132320 12262 9481 3486
20331 103757 132318 12263 9482 3484
20333 103756 132312 12266 9480 3470
20333 103758 132316 12272 9484 3452
20335 103761 132312 12278 9477 3439
20336 103766 132311 12274 9471 3447
20339 103766 132307 12268 9473 3451
20343 103768 132305 12261 9475 3445
20344 103774 132309 12266 9474 3448
20345 103771 132303 12281 9481 3451
20348 103777 132302 12280 9480 3454
20350 103779 132302 12272 9477 3464
20352 103783 132304 12270 9490 3470
20356 103790 132300 12270 9485 3463
20359 103794 132306 12269 9474 3459
20361 103800 132307 12269 9480 3461
20364 103803 132304 12269 9483 3464
20368 103800 132310 12260 9474 3463
20367 103787 132303 12255 9456 3465
20360 103760 132286 12270 9461 3456
20351 103735 132269 12275 9477 3451
20342 103718 132261 12265 9475 3466
20335 103700 132250 12266 9469 3487
20330 103694 132255 12249 9461 3501
20326 103690 132239 12217 9458 3502
20321 103682 132238 12204 9466 3507
20321 103685 132248 12223 9485 3519
20320 103685 132253 12246 9509 3528
20318 103682 132252 12253 9515 3535
20314 103676 132238 12263 9505 3528
20311 103678 132238 12266 9486 3505
20313 103676 132239 12255 9455 3493
20312 103675 132239 12251 9440 3484
20312 103671 132242 12237 9444 3471
20311 103662 132250 12230 9451 3469
20312 103667 132257 12248 9464 3462
20313 103668 132270 12276 9495 3456
20312 103669 132276 12290 9527 3464
20311 103666 132277 12272 9535 3472
20308 103660 132267 12235 9536 3502
20308 103667 132270 12224 9529 3515
20312 103662 132272 12208 9536 3523
20310 103666 132278 12207 9546 3529
20315 103672 132282 12204 9546 3539
20317 103675 132286 12206 9547 3531
20319 103674 132291 12218 9538 3512
20323 103680 132290 12226 9517 3502
20323 103684 132293 12228 9513 3501
20323 103687 132293 12228 9522 3512
20325 103688 132295 12235 9527 3522
20327 103692 132294 12231 9534 3525
20330 103698 132301 12218 9541 3526
20330 103700 132297 12214 9533 3527
20336 103703 132305 12206 9530 3525
20338 103703 132309 12203 9535 3524
20341 103708 132308 12205 9535 3530
20341 103712 132308 12207 9530 3530
20344 103718 132316 12207 9516 3523
20345 103717 132314 12209 9506 3523
20347 103724 132310 12234 9505 3520
20348 103725 132310 12244 9504 3523
20356 103724 132319 12231 9512 3534
20356 103716 132325 12232 9514 3532
20351 103697 132318 12239 9508 3523
20341 103671 132311 12235 9505 3524
20334 103659 132303 12231 9498 3541
20326 103656 132306 12231 9492 3538
20319 103654 132306 12227 9480 3529
20312 103655 132295 12214 9449 3523
20303 103646 132268 12262 9474 3543
20286 103617 132216 12273 9498 3546
20271 103604 132186 12267 9510 3534
20260 103599 132154 12260 9517 3530
20250 103591 132139 12245 9513 3534
20245 103568 132123 12238 9484 3537
20235 103522 132077 12232 9465 3545
20218 103470 131998 12225 9463 3553
20192 103402 131897 12228 9470 3562
20164 103339 131784 12248 9477 3575
20142 103303 131711 12285 9460 3572
20119 103279 131642 12317 9445 3542
20099 103239 131575 12298 9441 3543
20086 103210 131542 12246 9423 3569
20089 103196 131555 12226 9417 3582
20091 103195 131570 12236 9425 3582
20093 103202 131586 12254 9447 3577
20093 103206 131592 12258 9467 3588
20101 103236 131643 12247 9469 3620
20112 103260 131688 12231 9460 3639
20115 103255 131682 12225 9454 3650
20098 103219 131609 12216 9455 3670
20079 103192 131541 12199 9441 3675
20096 103222 131600 12211 9437 3655
20086 103217 131552 12246 9431 3616
20072 103193 131510 12270 9438 3587
20081 103195 131525 12263 9450 3598
20075 103175 131490 12252 9449 3608
20058 103134 131414 12256 9449 3602
20052 103121 131388 12246 9446 3610
20044 103103 131353 12225 9440 3680
20034 103086 131311 12185 9421 3799
20029 103068 131280 12188 9394 3738
20031 103054 131289 12234 9393 3640
20039 103047 131319 12241 9424 3665
20034 103024 131321 12248 9424 3680
20027 102988 131309 12273 9404 3671
20024 102957 131314 12285 9407 3661
20025 102941 131342 12295 9412 3666
20028 102942 131387 12295 9392 3660
20029 102939 131404 12263 9312 3615
20029 102924 131408 12255 9301 3634
20030 102908 131418 12280 9315 3627
20029 102892 131418 12308 9337 3615
20027 102877 131417 12309 9333 3623
20028 102864 131409 12288 9330 3637
20026 102853 131405 12268 9326 3640
20026 102843 131403 12260 9309 3621
20031 102840 131417 12253 9302 3602
20031 102839 131417 12236 9337 3609
20030 102829 131418 12228 9361 3617
20031 102820 131416 12234 9404 3625
20034 102817 131429 12246 9435 3611
20033 102811 131434 12245 9465 3597
20034 102804 131444 12240 9491 3592
20036 102799 131450 12232 9488 3593
20040 102799 131452 12224 9501 3587
20046 102798 131464 12217 9519 3582
20050 102793 131473 12217 9543 3576
20054 102796 131478 12205 9533 3564
20057 102797 131494 12200 9526 3555
20063 102802 131500 12201 9531 3542
20072 102808 131525 12204 9529 3535
20080 102815 131537 12208 9538 3529
20084 102816 131541 12214 9542 3524
20091 102820 131555 12218 9541 3525
20097 102825 131567 12222 9529 3521
20101 102829 131573 12220 9512 3510
20106 102834 131579 12221 9516 3519
20113 102842 131586 12222 9526 3524
20116 102845 131589 12219 9527 3521
20121 102852 131596 12222 9525 3526
20126 102854 131606 12219 9533 3529
20128 102858 131605 12215 9548 3528
20131 102856 131602 12214 9550 3529
20135 102853 131606 12211 9545 3522
20137 102837 131607 12206 9544 3517
20132 102822 131605 12206 9549 3524
20124 102803 131595 12226 9541 3531
20118 102783 131594 12197 9509 3534
20106 102770 131585 12174 9507 3556
20100 102764 131581 12179 9535 3578
20097 102755 131582 12195 9570 3581
20093 102752 131579 12209 9592 3566
20089 102753 131580 12221 9588 3551
20091 102747 131580 12220 9568 3541
20091 102750 131589 12213 9542 3533
20088 102750 131590 12236 9502 3500
20087 102749 131589 12231 9484 3483
20092 102750 131609 12229 9496 3474
20094 102751 131610 12230 9514 3485
20096 102749 131616 12239 9546 3497
20098 102750 131629 12231 9563 3498
20098 102752 131637 12216 9565 3502
20101 102753 131646 12212 9564 3518
20103 102761 131657 12200 9553 3526
20107 102763 131666 12192 9556 3518
20109 102763 131678 12195 9578 3510
20111 102772 131685 12198 9584 3512
20116 102773 131692 12196 9589 3520
20121 102780 131703 12193 9598 3524
20128 102784 131718 12190 9595 3523
20132 102793 131726 12193 9585 3524
20139 102797 131735 12202 9585 3517
20141 102801 131750 12205 9585 3511
20148 102808 131755 12199 9588 3521
20155 102818 131771 12190 9595 3528
20162 102823 131788 12197 9573 3512
20169 102833 131802 12191 9585 3514
20176 102839 131814 12182 9586 3525
20185 102844 131831 12171 9589 3537
20193 102852 131839 12169 9604 3538
20201 102861 131852 12170 9618 3537
20202 102871 131858 12171 9627 3535
20210 102879 131871 12170 9640 3532
20216 102888 131885 12171 9649 3540
20223 102892 131887 12200 9626 3530
20229 102899 131892 12193 9633 3536
20234 102900 131900 12175 9651 3552
20239 102900 131917 12167 9649 3558
20242 102890 131912 12162 9628 3556
20234 102871 131908 12150 9607 3550
20228 102851 131904 12150 9605 3551
20224 102846 131908 12159 9640 3555
20218 102849 131918 12164 9677 3549
20217 102846 131916 12173 9691 3541
20212 102843 131913 12183 9678 3537
20208 102838 131911 12176 9657 3543
20212 102839 131917 12158 9637 3553
20209 102841 131920 12149 9619 3556
20209 102840 131921 12144 9608 3561
20205 102835 131915 12139 9598 3565
20206 102843 131923 12144 9615 3562
20208 102845 131926 12161 9649 3561
20211 102850 131927 12168 9646 3555
20209 102845 131928 12161 9627 3551
20211 102844 131922 12171 9625 3552
20209 102844 131922 12178 9625 3554
20208 102844 131916 12167 9630 3555
20207 102844 131920 12160 9637 3553
20208 102843 131915 12161 9653 3557
20211 102845 131919 12160 9667 3570
20209 102850 131912 12158 9663 3569
20212 102856 131914 12159 9661 3564
20215 102860 131919 12160 9662 3564
20214 102860 131910 12163 9658 3548
20217 102862 131899 12176 9645 3542
20219 102870 131902 12180 9626 3550
20221 102874 131897 12166 9614 3548
20225 102881 131897 12158 9603 3539
20227 102885 131900 12154 9601 3541
20230 102892 131899 12162 9601 3560
20232 102898 131900 12174 9593 3575
20234 102907 131891 12178 9587 3579
20236 102909 131887 12175 9584 3583
20240 102915 131886 12169 9575 3586
20244 102922 131886 12196 9570 3589
20246 102930 131889 12195 9559 3591
20251 102932 131885 12190 9552 3601
20255 102932 131879 12192 9537 3598
20258 102927 131883 12191 9530 3579
20256 102912 131871 12177 9518 3561
20252 102897 131862 12168 9524 3563
20245 102885 131854 12177 9568 3587
20243 102884 131861 12189 9610 3598
20241 102884 131861 12191 9631 3589
20238 102887 131859 12196 9625 3575
20239 102888 131861 12190 9610 3570
20242 102891 131867 12176 9582 3565
20245 102897 131874 12178 9547 3548
20248 102902 131883 12179 9521 3539
20251 102903 131887 12178 9518 3544
20255 102910 131892 12184 9536 3544
20256 102917 131898 12197 9569 3541
20260 102921 131901 12206 9595 3529
20260 102924 131903 12199 9596 3524
20262 102922 131900 12189 9584 3546
20264 102931 131904 12174 9579 3569
20268 102934 131905 12164 9580 3576
20271 102936 131912 12162 9582 3571
20273 102940 131914 12154 9598 3572
20275 102942 131911 12145 9621 3575
20279 102946 131921 12149 9631 3584
20280 102948 131925 12156 9620 3590
20285 102956 131929 12160 9624 3583
20290 102967 131938 12163 9638 3580
20296 102974 131940 12166 9609 3590
20300 102979 131944 12163 9612 3584
20306 102990 131947 12159 9612 3569
20310 102997 131948 12158 9598 3559
20318 103006 131951 12160 9592 3560
20320 103009 131954 12163 9598 3566
20323 103018 131958 12161 9605 3564
20327 103020 131956 12161 9599 3562
20334 103028 131964 12163 9585 3567
20338 103038 131973 12193 9570 3558
20344 103040 131966 12192 9572 3562
20348 103045 131967 12188 9572 3569
20350 103049 131960 12183 9555 3571
20355 103047 131959 12181 9531 3564
20359 103040 131958 12175 9527 3553
20353 103019 131946 12170 9545 3569
20348 103007 131939 12179 9571 3585
20343 103007 131931 12184 9594 3584
20341 103004 131928 12202 9601 3575
20339 103007 131931 12193 9563 3579
20337 103007 131931 12169 9540 3582
20339 103017 131927 12156 9524 3579
20337 103010 131931 12152 9513 3585
20340 103015 131933 12152 9531 3593
20341 103024 131937 12158 9556 3599
20342 103026 131928 12176 9571 3596
20347 103031 131936 12187 9572 3582
20348 103040 131936 12185 9568 3570
20347 103040 131937 12192 9565 3584
20348 103043 131939 12191 9564 3604
20353 103050 131941 12174 9549 3610
20355 103051 131943 12165 9556 3616
20357 103056 131944 12164 9588 3619
20357 103058 131950 12166 9596 3619
20363 103068 131952 12167 9602 3622
20368 103082 131953 12168 9602 3617
20369 103085 131958 12171 9596 3603
20373 103089 131960 12176 9598 3600
20376 103098 131961 12193 9580 3593
20380 103102 131967 12185 9576 3598
20384 103113 131973 12178 9576 3605
20387 103120 131972 12174 9570 3615
20393 103136 131975 12177 9575 3607
20397 103138 131977 12177 9588 3601
20403 103143 131982 12179 9596 3604
20408 103153 131984 12185 9603 3596
20413 103160 131991 12187 9597 3597
20418 103167 131990 12198 9576 3610
20421 103178 131989 12209 9564 3612
20427 103185 131992 12195 9554 3613
20432 103193 131991 12188 9552 3609
20430 103200 131983 12193 9553 3607
20433 103206 131975 12194 9539 3611
20435 103202 131964 12193 9516 3608
20436 103198 131949 12182 9491 3604
20437 103184 131932 12179 9496 3614
20432 103168 131916 12190 9531 3629
20420 103140 131869 12239 9565 3657
20406 103113 131830 12224 9533 3670
20394 103092 131790 12194 9499 3683
20381 103075 131748 12182 9479 3683
20367 103056 131697 12182 9454 3680
20355 103032 131645 12192 9439 3682
20342 103013 131603 12202 9442 3692
20340 103013 131586 12209 9455 3697
20333 102999 131555 12221 9457 3684
20323 102988 131525 12229 9468 3663
20317 102973 131492 12236 9482 3660
20309 102956 131453 12245 9468 3683
20296 102937 131401 12243 9446 3696
20287 102928 131362 12235 9431 3710
20272 102909 131305 12227 9424 3734
20261 102886 131254 12211 9409 3733
20256 102875 131230 12190 9395 3750
20258 102868 131233 12183 9387 3771
20265 102876 131265 12189 9373 3770
20274 102885 131288 12195 9373 3745
20278 102898 131313 12230 9386 3706
20291 102920 131355 12261 9390 3696
20303 102943 131390 12256 9389 3703
20308 102952 131411 12248 9394 3705
20311 102953 131404 12243 9405 3717
20310 102961 131399 12224 9409 3733
20300 102951 131343 12201 9411 3736
20305 102971 131346 12184 9427 3760
20310 103002 131362 12158 9433 3858
20301 102984 131309 12161 9429 3843
20303 102979 131296 12219 9438 3763
20304 102975 131277 12214 9415 3773
20296 102943 131216 12232 9387 3770
20286 102926 131169 12244 9359 3754
20282 102920 131147 12254 9354 3745
20278 102907 131113 12257 9352 3729
20274 102894 131078 12243 9327 3721
20274 102889 131069 12224 9300 3723
20275 102875 131069 12206 9299 3727
20284 102863 131082 12265 9361 3758
20286 102852 131097 12271 9384 3748
20284 102837 131103 12248 9398 3736
20286 102826 131122 12228 9406 3748
20289 102824 131139 12212 9395 3748
20288 102813 131145 12207 9378 3751
20293 102813 131164 12197 9375 3742
20293 102805 131172 12185 9377 3708
20294 102801 131166 12187 9386 3692
20294 102795 131171 12199 9417 3700
20297 102793 131182 12216 9461 3729
20299 102796 131192 12203 9510 3742
20303 102787 131190 12175 9545 3743
20306 102783 131192 12163 9550 3745
20308 102773 131186 12153 9541 3725
20308 102765 131185 12144 9529 3700
20316 102766 131196 12143 9535 3687
20320 102764 131209 12153 9555 3676
