2025-10-16 03:03:25    绿光---红外光---红光---X轴---Y轴---Z轴
21397 106021 134817 11505 10069 4682
21402 106030 134818 11504 10056 4704
21406 106035 134823 11500 10058 4730
21409 106041 134823 11479 10076 4722
21413 106044 134827 11470 10088 4714
21416 106049 134834 11493 10091 4717
21420 106047 134832 11506 10076 4707
21420 106050 134825 11502 10064 4688
21423 106052 134815 11514 10068 4694
21424 106044 134822 11538 10071 4716
21418 106023 134817 11545 10071 4733
21413 106006 134817 11538 10047 4737
21402 105994 134817 11533 10027 4727
21393 105983 134815 11544 10024 4712
21385 105976 134804 11547 10022 4696
21375 105968 134798 11526 10028 4682
21371 105966 134794 11511 10032 4668
21367 105962 134787 11525 10048 4676
21364 105966 134793 11562 10067 4691
21365 105968 134803 11570 10072 4687
21365 105967 134800 11533 10055 4677
21364 105970 134799 11512 10009 4743
21365 105975 134809 11517 10018 4764
21367 105973 134812 11523 10028 4752
21364 105974 134802 11519 10035 4734
21363 105971 134807 11507 10030 4730
21363 105974 134810 11511 10026 4729
21365 105974 134817 11515 10028 4726
21365 105975 134816 11518 10043 4734
21362 105978 134817 11519 10058 4740
21363 105975 134816 11517 10052 4741
21365 105978 134815 11520 10048 4759
21368 105980 134814 11518 10059 4751
21368 105980 134810 11512 10064 4724
21369 105986 134808 11506 10062 4710
21372 105990 134807 11494 10058 4703
21373 105988 134802 11475 10055 4707
21374 105993 134808 11464 10060 4721
21377 105997 134807 11464 10075 4720
21381 106000 134807 11468 10088 4706
21383 106003 134806 11486 10077 4715
21387 106009 134814 11500 10061 4733
21393 106017 134811 11497 10061 4740
21395 106015 134816 11502 10070 4732
21401 106028 134826 11521 10080 4711
21405 106035 134829 11529 10074 4680
21407 106038 134822 11508 10062 4651
21410 106034 134816 11498 10067 4660
21413 106034 134832 11531 10084 4680
21413 106023 134835 11553 10100 4671
21408 106002 134834 11539 10103 4657
21396 105990 134823 11516 10078 4666
21389 105984 134832 11496 10056 4690
21381 105981 134832 11477 10048 4695
21374 105975 134831 11466 10052 4667
21371 105972 134825 11455 10061 4655
21366 105969 134819 11464 10067 4660
21364 105971 134819 11498 10078 4673
21363 105969 134822 11526 10076 4686
21360 105968 134811 11532 10071 4663
21351 105958 134781 11521 10073 4657
21348 105954 134776 11515 10055 4705
21344 105944 134757 11515 10080 4682
21336 105930 134722 11518 10085 4673
21328 105916 134697 11522 10069 4662
21325 105907 134683 11522 10045 4650
21321 105905 134674 11523 10039 4636
21318 105897 134667 11523 10053 4631
21315 105893 134664 11522 10061 4639
21313 105892 134661 11538 10070 4659
21313 105893 134658 11514 10052 4726
21316 105893 134661 11507 10055 4723
21320 105897 134660 11506 10056 4709
21322 105899 134666 11511 10052 4697
21325 105902 134664 11524 10056 4700
21326 105905 134664 11531 10052 4699
21329 105913 134670 11531 10055 4681
21331 105914 134670 11530 10062 4647
21337 105924 134679 11543 10063 4626
21342 105927 134683 11553 10059 4641
21344 105934 134681 11552 10045 4649
21350 105936 134691 11553 10043 4645
21355 105941 134689 11555 10048 4643
21357 105944 134686 11550 10053 4637
21359 105953 134686 11543 10066 4641
21365 105952 134693 11555 10072 4638
21371 105966 134705 11564 10076 4627
21377 105979 134713 11536 10072 4620
21380 105979 134714 11492 10070 4642
21383 105984 134709 11487 10082 4694
21385 105985 134709 11511 10089 4721
21390 105977 134714 11527 10101 4713
21388 105964 134717 11530 10109 4708
21382 105949 134714 11507 10102 4715
21373 105941 134719 11477 10083 4724
21367 105934 134719 11465 10068 4711
21361 105936 134725 11462 10060 4687
21359 105936 134725 11461 10056 4678
21359 105941 134734 11464 10056 4671
21356 105936 134727 11477 10066 4675
21354 105933 134729 11491 10051 4695
21354 105939 134729 11503 10046 4714
21353 105935 134719 11499 10074 4736
21353 105929 134713 11491 10090 4749
21357 105934 134719 11492 10099 4732
21356 105934 134718 11492 10100 4710
21356 105928 134712 11486 10102 4724
21350 105921 134701 11468 10105 4740
21351 105922 134706 11457 10101 4732
21351 105923 134707 11467 10097 4717
21349 105918 134703 11491 10051 4695
21350 105919 134703 11503 10046 4714
21351 105921 134703 11499 10074 4736
21355 105922 134699 11491 10090 4749
21353 105921 134693 11492 10099 4732
21351 105921 134686 11492 10100 4710
21353 105918 134684 11486 10102 4724
21352 105920 134673 11468 10105 4740
21353 105918 134664 11457 10101 4732
21352 105919 134651 11467 10097 4717
21355 105917 134652 11496 10072 4724
21356 105917 134640 11510 10075 4717
21358 105920 134634 11516 10089 4695
21356 105916 134624 11519 10097 4678
21361 105917 134627 11514 10092 4669
21368 105928 134633 11497 10079 4664
21372 105935 134642 11502 10068 4663
21377 105942 134644 11511 10061 4657
21382 105947 134646 11514 10059 4659
21378 105945 134634 11530 10050 4679
21383 105949 134623 11530 10047 4689
21388 105948 134632 11522 10052 4684
21391 105945 134643 11525 10047 4679
21388 105935 134646 11539 10051 4675
21382 105921 134645 11564 10055 4668
21371 105910 134637 11582 10055 4670
21367 105908 134643 11585 10060 4669
21365 105913 134650 11561 10047 4652
21366 105912 134655 11511 10032 4645
21360 105918 134663 11480 10035 4663
21360 105917 134663 11492 10042 4681
21363 105925 134675 11509 10072 4682
21366 105931 134677 11519 10100 4679
21365 105932 134679 11511 10107 4683
21369 105941 134687 11484 10101 4708
21374 105942 134690 11459 10089 4731
21375 105944 134690 11439 10089 4722
21373 105942 134690 11426 10089 4700
21375 105948 134697 11426 10089 4699
21377 105948 134700 11445 10096 4720
21378 105952 134703 11463 10084 4743
21377 105948 134705 11461 10073 4733
21379 105951 134709 11463 10101 4707
21380 105955 134711 11465 10119 4715
21383 105963 134711 11454 10119 4717
21383 105959 134709 11440 10113 4701
21386 105966 134704 11432 10109 4689
21389 105972 134712 11432 10107 4688
21391 105972 134712 11438 10103 4685
21394 105978 134715 11443 10107 4661
21398 105985 134715 11444 10101 4656
21402 105987 134711 11446 10098 4669
21403 105995 134703 11452 10115 4669
21406 105992 134695 11450 10123 4670
21406 105995 134691 11450 10119 4659
21407 105987 134685 11463 10114 4654
21413 105995 134688 11465 10117 4660
21418 106000 134686 11462 10120 4657
21420 106013 134697 11472 10117 4635
21427 106014 134698 11480 10104 4612
21431 106023 134700 11506 10073 4623
21433 106021 134688 11519 10079 4630
21435 106017 134683 11522 10085 4622
21437 106018 134693 11515 10078 4607
21435 106004 134695 11512 10071 4613
21423 105985 134686 11521 10058 4626
21414 105966 134672 11527 10056 4618
21406 105963 134670 11533 10065 4619
21401 105956 134668 11524 10065 4612
21393 105954 134670 11502 10057 4610
21389 105944 134662 11484 10051 4646
21386 105947 134656 11490 10067 4677
21384 105948 134658 11506 10101 4678
21384 105955 134670 11506 10122 4667
21384 105958 134666 11492 10125 4660
21380 105956 134661 11475 10119 4670
21382 105959 134664 11473 10098 4677
21383 105958 134660 11473 10071 4660
21382 105956 134655 11467 10061 4641
21380 105953 134652 11476 10063 4638
21379 105950 134652 11487 10054 4652
21380 105951 134659 11507 10061 4651
21379 105954 134656 11535 10085 4629
21379 105953 134664 11541 10102 4617
21379 105953 134660 11529 10111 4632
21376 105954 134649 11509 10108 4651
21374 105956 134645 11501 10108 4664
21376 105952 134638 11516 10108 4669
21376 105954 134635 11526 10109 4663
21376 105958 134634 11516 10111 4662
21380 105963 134636 11519 10067 4655
21382 105967 134634 11525 10082 4645
21385 105972 134635 11538 10089 4624
21388 105974 134635 11549 10087 4613
21392 105977 134632 11545 10076 4614
21394 105979 134625 11536 10075 4614
21395 105981 134618 11531 10079 4618
21396 105982 134619 11530 10085 4631
21399 105989 134614 11531 10087 4627
21401 105991 134618 11534 10061 4639
21407 105996 134619 11531 10078 4644
21411 106006 134628 11525 10089 4634
21416 106015 134631 11526 10088 4634
21419 106016 134626 11524 10092 4650
21419 106016 134617 11529 10098 4663
21421 106017 134603 11545 10087 4663
21423 106014 134606 11543 10070 4663
21418 105999 134601 11531 10064 4662
21408 105982 134591 11528 10047 4672
21398 105962 134578 11538 10034 4675
21389 105948 134576 11541 10040 4652
21385 105948 134587 11532 10046 4624
21379 105947 134587 11526 10055 4621
21373 105942 134584 11531 10071 4653
21373 105941 134584 11554 10091 4679
21367 105943 134581 11567 10108 4687
21366 105946 134588 11568 10106 4698
21364 105944 134587 11549 10093 4719
21364 105944 134579 11529 10070 4731
21366 105947 134584 11516 10040 4718
21368 105953 134589 11507 10030 4678
21368 105950 134592 11504 10042 4655
21369 105953 134589 11506 10048 4649
21368 105949 134595 11532 10065 4649
21367 105946 134597 11563 10087 4657
21364 105947 134592 11570 10101 4649
21364 105948 134592 11560 10101 4659
21360 105949 134583 11546 10084 4692
21359 105943 134572 11525 10069 4717
21354 105940 134552 11509 10026 4719
21386 105993 134586 11524 10054 4705
21394 106002 134600 11530 10068 4696
21398 106010 134601 11537 10067 4691
21400 106014 134605 11537 10056 4673
21406 106025 134617 11527 10057 4665
21410 106033 134610 11517 10058 4665
21413 106034 134610 11533 10060 4651
21417 106036 134611 11539 10050 4669
21424 106045 134627 11520 10057 4693
21422 106035 134634 11520 10064 4723
21420 106026 134635 11504 10057 4761
21413 106012 134639 11460 10040 4780
21404 106002 134631 11430 10038 4788
21398 105998 134630 11438 10057 4806
21389 105988 134627 11456 10080 4808
21385 105985 134621 11470 10105 4787
21384 105987 134626 11486 10113 4780
21387 105990 134639 11467 10092 4795
21393 106006 134661 11425 10085 4807
21396 106010 134663 11400 10085 4791
21399 106013 134670 11383 10076 4785
21397 106012 134667 11372 10072 4784
21399 106014 134665 11393 10079 4766
21396 106009 134663 11439 10099 4755
21398 106007 134663 11478 10117 4732
21395 106004 134665 11498 10136 4708
21401 106015 134676 11521 10143 4720
21401 106013 134679 11518 10109 4741
21400 106017 134679 11478 10076 4751
21398 106015 134675 11446 10066 4743
21399 106016 134672 11458 10062 4729
21400 106020 134667 11484 10068 4715
21404 106023 134673 11501 10074 4696
21405 106028 134682 11527 10081 4679
21408 106035 134682 11538 10083 4674
21411 106039 134682 11529 10085 4669
21414 106048 134689 11511 10080 4682
21419 106058 134696 11476 10065 4736
21424 106064 134697 11480 10070 4708
21425 106065 134693 11494 10067 4693
21464 106103 134728 11502 10076 4638
21456 106086 134717 11491 10071 4620
21447 106076 134716 11475 10074 4636
21439 106069 134725 11479 10093 4674
21434 106071 134735 11500 10114 4682
21429 106074 134731 11503 10121 4672
21426 106072 134740 11482 10113 4668
21423 106072 134743 11468 10117 4675
21426 106077 134750 11480 10118 4667
21428 106085 134764 11491 10099 4638
21425 106090 134762 11487 10087 4612
21424 106087 134752 11481 10099 4598
21429 106093 134764 11483 10108 4606
21430 106097 134767 11493 10118 4620
21431 106102 134774 11496 10130 4619
21431 106099 134776 11481 10137 4634
21431 106097 134776 11467 10119 4672
21432 106100 134781 11451 10098 4698
21433 106103 134785 11427 10112 4705
21432 106098 134778 11421 10121 4705
21432 106103 134773 11423 10122 4701
21433 106102 134774 11419 10121 4694
21433 106104 134781 11425 10110 4688
21434 106106 134779 11443 10105 4675
21438 106109 134783 11458 10112 4657
21437 106115 134782 11465 10120 4652
21441 106116 134774 11489 10078 4668
21444 106121 134777 11506 10081 4642
21446 106124 134778 11512 10092 4628
21451 106123 134776 11518 10101 4608
21453 106131 134769 11517 10103 4602
21456 106124 134768 11516 10111 4610
21456 106135 134766 11522 10120 4626
21459 106136 134769 11513 10118 4629
21463 106142 134773 11496 10111 4621
21468 106147 134773 11493 10070 4644
21471 106153 134774 11498 10083 4652
21472 106159 134778 11501 10084 4654
21480 106165 134783 11511 10088 4648
21482 106168 134776 11502 10092 4643
21482 106168 134769 11496 10095 4648
21486 106164 134761 11509 10110 4647
21487 106162 134775 11503 10112 4636
21481 106143 134772 11472 10105 4623
21476 106128 134770 11461 10096 4663
21464 106112 134760 11494 10102 4662
21456 106108 134762 11515 10116 4641
21449 106104 134756 11519 10122 4628
21441 106095 134756 11500 10114 4637
21440 106096 134752 11480 10102 4648
21437 106097 134755 11465 10085 4633
21436 106098 134762 11448 10079 4615
21435 106101 134769 11447 10081 4618
21433 106100 134765 11464 10081 4631
21430 106099 134757 11501 10080 4641
21432 106101 134765 11528 10092 4629
21432 106102 134763 11514 10112 4617
21430 106096 134756 11490 10115 4630
21427 106093 134756 11481 10109 4642
21424 106090 134757 11474 10111 4646
21427 106095 134762 11466 10114 4643
21427 106097 134767 11464 10108 4642
21427 106096 134773 11469 10101 4651
21428 106102 134773 11478 10105 4646
21429 106104 134773 11484 10096 4637
21427 106101 134770 11495 10087 4615
21428 106107 134774 11509 10106 4597
21433 106112 134781 11504 10115 4614
21436 106119 134786 11494 10112 4628
21442 106128 134795 11479 10108 4638
21442 106132 134799 11463 10100 4640
21446 106138 134795 11460 10100 4643
21449 106144 134800 11450 10103 4657
21453 106149 134805 11435 10110 4667
21456 106155 134806 11462 10091 4674
21461 106159 134810 11469 10104 4675
21467 106163 134814 11470 10114 4655
21467 106166 134809 11482 10118 4650
21471 106172 134814 11485 10116 4661
21475 106177 134816 11476 10120 4659
21476 106180 134812 11465 10129 4661
21481 106187 134823 11462 10133 4668
21488 106198 134829 11459 10125 4669
21491 106201 134830 11468 10111 4708
21493 106205 134824 11454 10102 4689
21495 106203 134816 11425 10091 4676
21501 106197 134832 11405 10098 4684
21497 106190 134831 11422 10121 4699
21488 106168 134826 11464 10145 4700
21478 106160 134819 11487 10153 4681
21470 106147 134822 11474 10141 4669
21464 106145 134822 11458 10129 4670
21460 106146 134819 11449 10113 4670
21454 106137 134809 11443 10077 4667
21449 106132 134803 11422 10060 4661
21445 106127 134797 11414 10077 4652
21443 106133 134793 11436 10092 4652
21439 106125 134782 11472 10100 4656
21437 106118 134767 11484 10112 4648
21437 106119 134764 11480 10121 4639
21436 106117 134760 11488 10120 4648
21436 106115 134756 11480 10123 4661
21434 106112 134757 11460 10116 4673
21433 106110 134756 11449 10095 4695
21431 106110 134755 11446 10103 4700
21429 106103 134756 11432 10122 4682
21429 106110 134756 11430 10120 4670
21427 106107 134751 11442 10119 4659
21427 106109 134755 11453 10125 4650
21430 106108 134758 11461 10133 4656
21432 106117 134763 11460 10134 4670
21434 106120 134771 11460 10130 4678
21438 106127 134773 11454 10122 4679
21444 106132 134782 11444 10079 4678
21448 106140 134787 11437 10096 4685
21451 106148 134798 11427 10109 4699
21454 106155 134799 11418 10111 4694
21457 106159 134803 11412 10106 4694
21462 106164 134802 11419 10110 4698
21466 106169 134809 11432 10120 4700
21469 106173 134807 11435 10127 4703
21471 106177 134806 11431 10136 4699
21473 106183 134804 11431 10118 4717
21476 106187 134808 11417 10127 4697
21481 106194 134814 11427 10134 4665
21483 106193 134812 11444 10128 4643
21486 106195 134809 11446 10114 4639
21486 106199 134799 11432 10115 4647
21486 106199 134797 11447 10126 4663
21488 106192 134807 11485 10140 4692
21483 106177 134806 11497 10160 4695
21472 106157 134789 11479 10152 4699
21460 106143 134776 11436 10117 4708
21452 106133 134767 11404 10098 4693
21447 106133 134763 11408 10096 4679
21442 106130 134760 11408 10098 4665
21438 106123 134749 11403 10106 4651
21438 106122 134755 11411 10115 4646
21438 106124 134758 11440 10118 4648
21436 106125 134758 11472 10123 4628
21436 106132 134760 11438 10127 4683
21439 106142 134755 11451 10121 4685
21442 106143 134767 11456 10086 4703
21442 106146 134764 11454 10107 4687
21443 106141 134769 11456 10126 4676
21446 106152 134765 11454 10134 4684
21450 106160 134766 11438 10128 4691
21452 106162 134766 11419 10122 4687
21455 106161 134761 11414 10114 4690
21458 106160 134757 11421 10113 4689
21462 106167 134760 11433 10125 4677
21465 106174 134769 11483 10106 4657
21466 106178 134771 11506 10124 4617
21470 106177 134765 11523 10138 4598
21472 106180 134760 11530 10144 4591
21479 106188 134776 11527 10148 4578
21482 106192 134774 11498 10140 4571
21485 106197 134771 11452 10133 4577
21487 106199 134764 11437 10143 4596
21490 106197 134758 11450 10163 4623
21493 106195 134774 11461 10150 4650
21488 106182 134772 11450 10158 4642
21482 106163 134770 11439 10151 4638
21471 106152 134770 11436 10132 4623
21464 106146 134770 11440 10123 4590
21458 106143 134771 11446 10118 4569
21453 106140 134769 11450 10115 4563
21446 106132 134763 11459 10123 4577
21444 106131 134758 11481 10131 4585
21442 106132 134760 11493 10141 4585
21446 106142 134773 11477 10148 4605
21446 106146 134776 11469 10155 4633
21442 106143 134771 11462 10162 4655
21445 106149 134781 11436 10152 4658
21446 106148 134778 11432 10147 4635
21445 106151 134780 11443 10152 4623
21440 106143 134771 11450 10146 4632
21439 106139 134769 11462 10143 4628
21439 106140 134772 11463 10150 4620
21439 106146 134776 11471 10145 4614
21439 106145 134777 11483 10126 4617
21438 106149 134783 11492 10116 4623
21441 106154 134782 11500 10119 4616
21441 106154 134786 11506 10123 4611
21443 106155 134788 11501 10126 4611
21445 106163 134784 11491 10119 4618
21446 106165 134792 11482 10115 4613
21448 106169 134797 11482 10118 4599
21454 106176 134802 11497 10122 4595
21457 106176 134806 11505 10128 4590
21462 106184 134807 11483 10126 4617
21464 106193 134816 11492 10116 4623
21470 106199 134821 11500 10119 4616
21471 106202 134820 11506 10123 4611
21474 106205 134818 11501 10126 4611
21478 106212 134820 11491 10119 4618
21486 106223 134830 11482 10115 4613
21489 106229 134844 11482 10118 4599
21491 106235 134846 11497 10122 4595
21497 106244 134848 11505 10128 4590
21505 106252 134858 11508 10099 4603
21506 106257 134857 11508 10118 4572
21509 106255 134854 11508 10132 4568
21510 106255 134851 11511 10134 4573
21513 106256 134860 11508 10135 4583
21512 106244 134864 11498 10134 4584
21505 106229 134856 11496 10135 4566
21497 106210 134854 11501 10146 4573
21486 106203 134852 11499 10157 4586
21479 106201 134857 11488 10149 4587
21472 106193 134848 11465 10137 4580
21464 106190 134846 11453 10141 4580
21462 106186 134845 11467 10154 4598
21460 106183 134851 11481 10165 4615
21460 106189 134853 11480 10168 4614
21458 106190 134862 11470 10164 4604
21454 106187 134844 11468 10152 4606
21454 106188 134848 11472 10133 4607
21455 106194 134854 11479 10110 4583
21452 106186 134845 11469 10079 4564
21449 106184 134844 11447 10059 4566
21449 106180 134846 11460 10073 4579
21449 106179 134847 11501 10100 4584
21448 106181 134850 11523 10113 4587
21445 106179 134843 11503 10117 4597
21444 106177 134847 11466 10114 4608
21444 106182 134844 11457 10112 4625
21444 106180 134838 11465 10114 4641
21445 106187 134842 11461 10116 4660
21448 106185 134847 11451 10118 4671
21450 106188 134849 11453 10105 4684
21451 106194 134857 11465 10094 4685
21454 106198 134862 11474 10100 4663
21458 106204 134867 11485 10103 4648
21460 106210 134872 11493 10103 4654
21463 106213 134871 11504 10103 4662
21467 106218 134873 11503 10100 4668
21475 106224 134880 11499 10094 4674
21473 106229 134878 11495 10090 4671
21477 106233 134886 11490 10092 4668
21482 106240 134893 11484 10074 4672
21482 106241 134882 11481 10093 4673
21486 106246 134896 11477 10104 4675
21492 106257 134900 11468 10111 4671
21493 106255 134895 11446 10117 4689
21497 106260 134891 11439 10117 4707
21502 106261 134890 11442 10115 4707
21505 106266 134910 11450 10109 4710
21502 106255 134912 11467 10112 4698
21494 106231 134901 11477 10090 4681
21483 106215 134895 11485 10098 4660
21475 106212 134894 11467 10101 4635
21467 106200 134894 11446 10106 4637
21460 106199 134890 11441 10119 4670
21457 106196 134889 11474 10144 4697
21452 106194 134887 11508 10165 4701
21454 106195 134894 11517 10171 4709
21455 106201 134901 11505 10171 4703
21452 106200 134898 11470 10149 4698
21450 106195 134896 11441 10122 4697
21438 106187 134882 11425 10091 4736
21439 106184 134881 11429 10112 4711
21441 106186 134884 11440 10124 4693
21445 106191 134891 11451 10133 4683
21446 106197 134891 11448 10136 4672
21447 106202 134896 11450 10139 4679
21449 106201 134895 11461 10133 4696
21451 106202 134893 11459 10123 4698
21451 106208 134889 11443 10115 4692
21454 106209 134887 11439 10072 4686
21457 106213 134890 11443 10096 4677
21460 106218 134888 11446 10109 4674
21463 106222 134887 11442 10118 4678
21467 106223 134891 11441 10122 4665
21470 106231 134896 11445 10127 4644
21470 106235 134888 11448 10135 4650
21473 106235 134886 11457 10129 4657
21474 106231 134881 11469 10125 4653
21477 106232 134892 11490 10108 4667
21475 106224 134894 11494 10117 4673
21466 106199 134883 11495 10114 4654
21454 106187 134874 11485 10100 4630
21445 106173 134864 11472 10085 4634
21436 106170 134866 11467 10084 4662
21430 106165 134865 11481 10105 4684
21424 106162 134858 11501 10131 4674
21419 106158 134855 11511 10145 4643
21420 106159 134855 11495 10127 4644
21419 106164 134858 11460 10093 4666
21417 106158 134853 11442 10078 4664
21414 106155 134844 11447 10073 4649
21414 106153 134844 11456 10076 4642
21412 106152 134840 11466 10084 4648
21411 106150 134842 11493 10098 4668
21410 106151 134833 11527 10110 4685
21410 106150 134843 11543 10104 4667
21408 106146 134839 11535 10092 4655
21409 106143 134840 11515 10070 4680
21407 106145 134840 11511 10040 4697
21406 106145 134838 11517 10032 4684
21406 106145 134835 11525 10042 4667
21405 106144 134827 11534 10044 4657
21403 106145 134826 11530 10050 4650
21406 106148 134826 11528 10066 4649
21411 106155 134835 11545 10078 4640
21411 106156 134831 11560 10089 4628
21413 106158 134833 11558 10086 4635
21415 106164 134838 11548 10077 4663
21418 106167 134830 11538 10049 4689
21420 106168 134826 11533 10027 4686
21420 106172 134826 11529 10033 4671
21424 106171 134826 11533 10039 4664
21425 106179 134823 11550 10049 4654
21429 106181 134828 11562 10055 4635
21433 106185 134829 11565 10061 4618
21435 106191 134830 11569 10065 4614
21440 106197 134835 11564 10056 4620
21443 106203 134838 11560 10055 4628
21445 106206 134837 11570 10021 4670
21447 106204 134833 11575 10047 4660
21394 106132 134831 11530 10058 4668
21394 106129 134833 11523 10055 4656
21392 106138 134838 11519 10053 4645
21386 106130 134826 11511 10048 4643
21385 106131 134829 11510 10048 4645
21385 106132 134826 11517 10058 4652
21383 106129 134825 11535 10069 4660
21383 106125 134828 11543 10056 4655
21382 106124 134831 11531 10043 4655
21381 106126 134835 11533 10055 4672
21379 106126 134837 11522 10061 4682
21379 106126 134842 11502 10058 4673
21378 106129 134841 11496 10059 4672
21376 106127 134839 11484 10066 4668
21379 106129 134840 11496 10081 4673
21379 106131 134838 11526 10089 4683
21379 106134 134838 11538 10080 4670
21381 106135 134846 11536 10067 4656
21385 106142 134849 11533 10066 4657
21388 106143 134849 11535 10076 4665
21392 106143 134843 11541 10084 4674
21394 106149 134855 11533 10092 4685
21401 106161 134856 11523 10097 4686
21402 106158 134856 11519 10094 4668
21403 106166 134860 11496 10089 4650
21408 106171 134869 11483 10088 4646
21412 106177 134871 11486 10088 4647
21415 106184 134878 11489 10071 4659
21422 106191 134886 11490 10085 4646
21428 106194 134886 11496 10100 4636
21429 106196 134883 11512 10101 4637
21432 106200 134890 11519 10093 4634
21436 106210 134899 11515 10098 4635
21442 106213 134900 11518 10105 4635
21445 106216 134894 11517 10111 4630
21443 106219 134886 11505 10115 4627
21452 106215 134908 11493 10113 4639
21449 106204 134907 11483 10102 4644
21444 106189 134902 11475 10084 4624
21429 106172 134895 11454 10077 4617
21421 106166 134891 11432 10094 4642
21414 106158 134895 11453 10113 4682
21409 106157 134894 11482 10126 4690
21405 106155 134890 11490 10139 4672
21402 106153 134897 11490 10144 4658
21403 106158 134904 11480 10131 4669
21404 106160 134920 11455 10057 4670
21401 106167 134924 11445 10053 4641
21401 106167 134920 11448 10069 4617
21402 106169 134922 11474 10087 4615
21401 106169 134924 11502 10111 4633
21404 106165 134925 11509 10124 4650
21402 106165 134930 11485 10122 4654
21404 106170 134939 11454 10113 4663
21404 106169 134940 11439 10108 4692
21403 106173 134949 11431 10107 4699
21402 106172 134946 11436 10097 4689
21403 106174 134948 11448 10098 4678
21405 106173 134950 11457 10108 4661
21405 106175 134943 11472 10118 4646
21407 106180 134945 11483 10123 4635
21409 106183 134955 11484 10121 4633
21414 106187 134958 11480 10132 4630
21415 106191 134966 11473 10144 4636
21418 106197 134967 11464 10145 4658
21420 106199 134970 11462 10138 4670
21423 106200 134964 11463 10103 4676
21424 106204 134960 11465 10085 4670
21429 106210 134963 11473 10101 4643
21431 106213 134965 11485 10119 4624
21434 106211 134960 11480 10126 4619
21437 106216 134966 11459 10117 4637
21441 106220 134965 11453 10119 4648
21444 106221 134967 11454 10126 4655
21449 106230 134976 11462 10127 4651
21452 106232 134973 11473 10124 4638
21455 106236 134971 11480 10090 4662
21456 106232 134958 11483 10108 4656
21459 106233 134968 11494 10123 4646
21462 106229 134978 11491 10115 4627
21457 106217 134975 11457 10096 4616
21448 106200 134967 11433 10096 4642
21442 106191 134961 11456 10117 4683
21432 106185 134964 11485 10136 4698
21426 106182 134962 11490 10145 4689
21424 106181 134958 11480 10116 4697
21418 106177 134953 11470 10099 4682
21416 106172 134949 11464 10093 4663
21419 106176 134960 11456 10088 4643
21418 106179 134965 11453 10096 4635
21413 106169 134943 11464 10107 4658
21412 106163 134929 11487 10124 4684
21412 106158 134926 11495 10134 4681
21409 106155 134920 11478 10125 4661
21409 106153 134919 11469 10108 4657
21408 106146 134906 11466 10081 4683
21406 106145 134905 11451 10074 4695
21408 106143 134910 11438 10088 4688
21405 106140 134907 11441 10101 4682
21405 106139 134903 11448 10114 4680
21405 106139 134903 11447 10121 4692
21407 106142 134907 11443 10126 4692
21407 106146 134911 11443 10129 4674
21411 106148 134915 11444 10128 4661
21414 106154 134915 11449 10128 4665
21419 106159 134920 11459 10111 4673
21423 106167 134924 11464 10094 4667
21426 106173 134922 11463 10103 4654
21428 106172 134923 11461 10112 4640
21431 106179 134925 11451 10118 4623
21431 106176 134923 11442 10116 4622
21435 106182 134918 11445 10110 4631
21439 106186 134926 11446 10124 4632
21444 106194 134934 11458 10133 4629
21449 106199 134935 11468 10135 4619
21450 106209 134943 11466 10100 4630
21456 106216 134949 11465 10104 4627
21460 106220 134954 11462 10109 4619
21463 106220 134947 11444 10125 4630
21462 106224 134934 11445 10142 4647
21468 106221 134934 11461 10151 4646
21472 106222 134954 11450 10145 4637
21469 106216 134952 11411 10130 4643
21462 106197 134937 11398 10131 4667
21452 106184 134936 11441 10133 4724
21444 106173 134936 11445 10139 4714
21437 106169 134936 11438 10148 4705
21430 106160 134936 11428 10148 4708
21426 106157 134934 11422 10138 4703
21423 106158 134936 11417 10121 4682
21423 106159 134934 11412 10104 4664
21424 106163 134940 11413 10104 4663
21425 106166 134948 11422 10120 4676
21425 106163 134937 11453 10128 4698
21424 106162 134938 11473 10126 4709
21421 106160 134943 11470 10130 4689
21421 106160 134937 11467 10129 4680
21421 106156 134935 11460 10118 4698
21422 106163 134942 11437 10114 4702
21423 106166 134953 11413 10115 4683
21423 106168 134957 11402 10117 4674
21426 106172 134965 11422 10122 4677
21424 106173 134966 11458 10113 4669
21427 106175 134966 11478 10094 4642
21428 106174 134970 11491 10063 4615
21429 106175 134971 11516 10055 4596
21432 106179 134969 11546 10066 4588
21433 106182 134973 11557 10069 4590
21437 106185 134973 11549 10071 4601
21437 106191 134972 11532 10064 4610
21440 106191 134972 11533 10065 4612
21446 106199 134977 11537 10068 4625
21449 106205 134983 11523 10071 4629
21453 106208 134981 11517 10075 4630
21457 106210 134986 11517 10050 4641
21460 106216 134984 11518 10046 4648
21462 106219 134985 11528 10074 4654
21468 106225 134989 11541 10083 4645
21469 106228 134990 11529 10086 4642
21473 106235 134989 11508 10087 4654
21479 106237 134992 11512 10091 4641
21482 106242 134988 11527 10100 4626
21486 106242 134994 11540 10104 4633
21490 106250 135003 11542 10098 4633
21495 106260 135005 11515 10078 4666
21498 106260 135000 11523 10095 4662
21500 106261 134996 11507 10113 4650
21503 106258 135009 11469 10121 4644
21504 106254 135010 11456 10127 4652
21496 106234 135012 11488 10134 4664
21489 106221 135005 11522 10136 4643
21482 106217 135008 11521 10134 4611
21476 106210 135016 11510 10126 4596
21470 106205 135012 11510 10094 4611
21467 106202 135005 11516 10065 4630
21463 106202 135012 11513 10058 4611
21461 106202 135012 11502 10062 4596
21460 106204 135019 11495 10080 4607
21462 106209 135026 11497 10110 4616
21459 106204 135017 11515 10134 4620
21458 106205 135017 11525 10148 4608
21461 106208 135026 11528 10149 4581
21464 106212 135031 11524 10138 4587
21461 106207 135028 11474 10081 4659
21462 106207 135031 11466 10091 4635
21461 106205 135033 11464 10108 4633
21462 106210 135038 11474 10118 4640
21462 106209 135043 11490 10119 4649
21464 106212 135046 11496 10122 4661
21464 106212 135051 11499 10125 4646
21466 106217 135052 11508 10123 4618
21466 106214 135046 11517 10121 4613
21469 106216 135049 11511 10102 4630
21472 106223 135053 11504 10078 4636
21476 106227 135048 11493 10083 4627
21477 106229 135056 11493 10095 4615
21483 106236 135061 11501 10102 4608
21486 106242 135069 11496 10107 4618
21492 106250 135072 11494 10099 4623
21495 106254 135071 11490 10094 4618
21500 106259 135077 11492 10103 4613
21503 106267 135084 11493 10107 4625
21509 106273 135088 11487 10098 4632
21511 106278 135092 11488 10087 4626
21516 106280 135090 11492 10102 4614
21518 106287 135095 11501 10122 4598
21522 106292 135092 11511 10125 4592
21525 106295 135100 11505 10132 4585
21531 106301 135101 11499 10136 4593
21534 106309 135102 11495 10130 4605
21539 106309 135101 11488 10120 4601
21542 106307 135100 11459 10108 4595
21546 106312 135110 11425 10106 4606
21542 106300 135111 11434 10099 4645
21535 106280 135108 11470 10106 4661
21528 106272 135104 11504 10142 4644
21519 106262 135094 11514 10162 4636
21512 106255 135088 11499 10153 4631
21508 106249 135091 11475 10131 4627
21502 106249 135086 11466 10112 4621
21501 106243 135089 11456 10091 4621
21500 106247 135098 11447 10079 4613
21502 106253 135097 11457 10086 4606
21499 106246 135084 11499 10078 4641
21497 106245 135080 11511 10101 4621
21500 106253 135088 11488 10111 4620
21503 106251 135088 11465 10111 4651
21504 106249 135090 11444 10113 4671
21500 106249 135089 11422 10110 4674
21498 106250 135090 11419 10110 4661
21497 106251 135095 11424 10113 4660
21497 106246 135094 11430 10122 4672
21497 106248 135094 11435 10107 4694
21497 106247 135095 11442 10115 4687
21501 106247 135095 11446 10123 4679
21501 106251 135092 11454 10121 4678
21504 106255 135089 11453 10115 4681
21505 106252 135089 11442 10105 4668
21506 106257 135088 11450 10098 4657
21506 106260 135089 11459 10108 4654
21511 106268 135089 11444 10120 4649
21511 106267 135089 11432 10119 4659
21516 106270 135091 11446 10106 4662
21516 106271 135080 11461 10113 4658
21517 106271 135079 11459 10133 4650
21523 106277 135081 11454 10139 4648
21527 106281 135084 11440 10138 4657
21530 106287 135089 11442 10134 4654
21535 106294 135089 11455 10128 4639
21541 106299 135095 11458 10131 4641
21545 106301 135100 11467 10133 4649
21546 106303 135089 11471 10128 4649
21546 106305 135087 11454 10100 4663
21547 106298 135078 11410 10080 4666
21551 106301 135083 11383 10091 4675
21549 106291 135079 11408 10117 4700
21543 106274 135075 11437 10139 4707
21534 106256 135069 11449 10144 4698
21527 106248 135068 11452 10150 4677
21519 106241 135062 11440 10150 4670
21512 106236 135058 11430 10139 4674
21505 106237 135057 11416 10126 4661
21504 106232 135050 11398 10092 4686
21503 106232 135050 11418 10118 4699
21503 106237 135060 11436 10143 4699
21503 106243 135062 11434 10154 4675
21501 106243 135067 11429 10158 4658
21503 106251 135065 11424 10167 4667
21504 106249 135067 11415 10174 4689
21503 106246 135061 11407 10172 4702
21502 106243 135058 11397 10158 4686
21501 106241 135057 11382 10122 4675
21500 106242 135058 11391 10134 4673
21501 106240 135059 11404 10141 4667
21501 106244 135063 11412 10138 4654
21499 106249 135066 11425 10143 4644
21501 106245 135069 11439 10148 4642
21501 106243 135064 11437 10145 4653
21503 106246 135062 11429 10137 4656
21506 106252 135062 11421 10134 4646
21509 106255 135067 11418 10119 4650
21507 106254 135070 11411 10123 4660
21508 106259 135058 11405 10133 4649
21513 106264 135067 11401 10138 4637
21517 106266 135066 11398 10148 4647
21518 106275 135067 11387 10155 4663
21521 106275 135064 11382 10159 4664
21526 106282 135067 11389 10163 4664
21529 106284 135069 11403 10164 4667
21532 106290 135071 11415 10155 4666
21534 106293 135070 11406 10139 4685
21537 106302 135069 11405 10141 4692
21542 106307 135076 11409 10150 4678
21543 106309 135073 11409 10146 4662
21548 106313 135072 11393 10149 4646
21549 106316 135065 11378 10162 4671
21552 106318 135066 11394 10176 4699
21552 106308 135071 11396 10179 4698
21549 106294 135069 11386 10178 4685
21540 106272 135062 11376 10176 4675
21530 106258 135056 11406 10139 4685
21522 106255 135054 11405 10141 4692
21515 106246 135055 11409 10150 4678
21508 106242 135047 11409 10146 4662
21504 106242 135049 11393 10149 4646
21502 106241 135054 11378 10162 4671
21500 106246 135063 11394 10176 4699
21499 106243 135063 11396 10179 4698
21498 106245 135060 11386 10178 4685
21492 106240 135051 11376 10176 4675
21493 106240 135049 11375 10138 4699
21492 106237 135049 11357 10134 4672
21491 106241 135051 11349 10128 4659
21490 106237 135054 11365 10135 4652
21492 106240 135063 11381 10156 4644
21492 106238 135062 11405 10168 4641
21492 106243 135067 11417 10169 4637
21490 106243 135070 11403 10173 4644
21490 106244 135073 11384 10167 4667
21490 106242 135075 11374 10153 4693
21493 106245 135067 11366 10149 4703
21492 106249 135073 11346 10152 4686
21496 106255 135074 11348 10155 4682
21498 106257 135082 11368 10159 4677
21500 106264 135088 11380 10161 4655
21501 106268 135091 11381 10155 4638
21506 106271 135091 11386 10151 4636
21509 106271 135087 11395 10157 4657
21509 106270 135088 11400 10162 4678
21513 106278 135084 11369 10131 4700
21512 106279 135087 11351 10131 4710
21520 106289 135092 11340 10149 4715
21524 106293 135094 11350 10159 4690
21525 106296 135094 11361 10158 4661
21534 106305 135108 11363 10158 4657
21535 106310 135105 11359 10159 4672
21537 106314 135097 11351 10155 4682
21536 106310 135089 11346 10151 4677
21539 106304 135094 11357 10146 4691
21539 106295 135093 11370 10127 4702
21533 106288 135095 11370 10123 4681
21524 106267 135087 11371 10139 4667
21517 106260 135088 11380 10162 4659
21506 106253 135090 11387 10174 4651
21502 106246 135091 11372 10165 4647
21497 106246 135083 11343 10155 4650
21495 106237 135078 11339 10160 4667
21490 106236 135082 11359 10177 4688
21489 106240 135087 11368 10189 4700
21487 106244 135094 11368 10176 4715
21483 106248 135099 11308 10156 4755
21481 106245 135092 11285 10166 4758
21483 106245 135092 11283 10170 4756
21482 106249 135093 11291 10170 4741
21483 106252 135098 11302 10170 4727
21484 106251 135096 11309 10169 4713
21488 106259 135099 11312 10168 4699
21490 106257 135099 11317 10167 4690
21491 106259 135098 11325 10163 4708
21497 106268 135098 11335 10157 4744
21497 106267 135092 11336 10158 4743
21496 106271 135094 11318 10163 4738
21501 106272 135097 11300 10164 4732
21504 106280 135108 11304 10164 4709
21508 106283 135104 11320 10169 4712
21513 106294 135110 11327 10171 4726
21514 106293 135104 11326 10172 4718
21516 106290 135107 11328 10173 4706
21518 106287 135108 11338 10167 4704
21510 106266 135098 11343 10149 4716
21501 106249 135088 11333 10147 4722
21491 106240 135085 11334 10161 4694
21482 106236 135092 11341 10163 4665
21476 106230 135092 11332 10163 4647
21472 106233 135088 11320 10177 4661
21470 106231 135090 11328 10192 4707
21470 106231 135094 11341 10213 4721
21469 106233 135098 11345 10229 4722
21471 106239 135104 11333 10222 4723
21469 106237 135094 11313 10197 4739
21469 106234 135093 11287 10176 4738
21467 106238 135093 11274 10168 4707
21466 106235 135093 11269 10165 4696
21465 106233 135088 11263 10171 4702
21464 106236 135090 11284 10182 4710
21464 106234 135093 11316 10196 4725
21466 106237 135104 11323 10205 4735
21464 106237 135105 11306 10202 4735
21464 106236 135099 11299 10193 4747
21462 106236 135097 11303 10169 4786
21465 106236 135095 11295 10175 4781
21465 106235 135091 11281 10183 4777
21468 106244 135093 11279 10201 4771
21469 106239 135096 11286 10207 4757
21469 106252 135095 11295 10203 4752
21473 106254 135099 11307 10198 4749
21476 106255 135099 11316 10196 4739
21478 106258 135105 11322 10201 4748
21484 106264 135105 11313 10167 4764
21486 106267 135108 11303 10167 4739
21489 106271 135104 11301 10177 4729
21492 106279 135108 11302 10182 4723
21498 106287 135118 11300 10186 4720
21501 106288 135113 11305 10187 4713
21503 106292 135107 11302 10189 4700
21505 106293 135103 11288 10192 4708
21506 106291 135101 11284 10189 4708
21508 106288 135112 11289 10180 4695
21504 106272 135104 11305 10180 4702
21494 106254 135095 11322 10199 4706
21484 106243 135094 11324 10211 4694
21475 106238 135087 11310 10202 4692
21469 106228 135086 11285 10198 4718
21464 106229 135093 11285 10207 4753
21461 106224 135092 11303 10216 4763
21455 106216 135087 11313 10219 4760
21453 106217 135080 11303 10210 4758
21453 106222 135087 11283 10191 4752
21452 106222 135088 11286 10170 4766
21447 106215 135078 11285 10154 4755
21448 106217 135073 11272 10145 4722
21447 106218 135072 11272 10150 4717
21448 106217 135073 11280 10162 4729
21445 106215 135066 11306 10173 4731
21444 106214 135069 11334 10184 4720
21443 106210 135073 11329 10185 4734
21444 106213 135075 11312 10181 4749
21441 106213 135069 11311 10180 4757
21444 106209 135072 11310 10153 4793
21441 106211 135064 11299 10162 4779
21444 106216 135064 11299 10172 4775
21445 106214 135068 11311 10179 4767
21446 106217 135066 11317 10184 4763
21447 106218 135068 11321 10193 4754
21451 106222 135070 11336 10200 4737
21456 106230 135069 11350 10204 4723
21457 106236 135070 11348 10204 4721
21460 106237 135069 11342 10160 4767
21467 106242 135077 11339 10155 4755
21468 106245 135074 11342 10162 4741
21468 106252 135081 11338 10167 4716
21474 106256 135083 11328 10171 4697
21477 106259 135081 11326 10170 4696
21482 106266 135083 11322 10172 4701
21487 106271 135091 11319 10180 4709
21490 106277 135089 11324 10186 4712
21492 106280 135087 11335 10184 4712
21493 106272 135081 11336 10168 4717
21494 106268 135091 11336 10161 4723
21490 106248 135085 11339 10170 4709
21479 106237 135078 11344 10174 4679
21471 106223 135074 11335 10172 4665
21464 106216 135077 11309 10180 4671
21457 106211 135070 11305 10204 4695
21450 106207 135071 11327 10223 4727
21448 106204 135067 11330 10226 4740
21447 106201 135067 11303 10208 4760
21447 106207 135077 11288 10188 4787
21450 106212 135085 11289 10180 4784
21444 106212 135086 11285 10168 4772
21444 106207 135070 11276 10162 4748
21447 106212 135083 11270 10169 4731
21445 106208 135078 11281 10180 4731
21445 106208 135078 11313 10181 4736
21444 106203 135078 11331 10182 4742
21445 106203 135086 11317 10184 4742
21446 106208 135089 11304 10184 4763
21444 106206 135089 11306 10169 4800
21448 106209 135091 11300 10156 4809
21449 106210 135091 11287 10170 4788
21450 106214 135094 11284 10189 4773
21449 106213 135092 11286 10200 4770
21453 106218 135100 11292 10205 4755
21455 106222 135104 11304 10208 4746
21460 106230 135109 11315 10210 4739
21466 106232 135117 11312 10208 4724
21470 106239 135119 11307 10201 4713
21470 106242 135118 11320 10176 4726
21474 106243 135125 11327 10165 4738
21480 106253 135127 11324 10174 4726
21519 106295 135158 11283 10207 4708
21519 106281 135156 11282 10207 4708
21510 106269 135149 11268 10205 4690
21503 106255 135147 11246 10194 4679
21497 106252 135149 11227 10194 4688
21489 106241 135140 11244 10205 4713
21486 106241 135140 11281 10214 4737
21484 106239 135136 11293 10220 4746
21483 106241 135142 11281 10219 4734
21484 106242 135151 11264 10210 4720
21485 106248 135154 11252 10197 4706
21487 106247 135152 11247 10191 4704
21486 106251 135147 11232 10186 4704
21486 106248 135151 11220 10186 4697
21487 106249 135149 11241 10198 4700
21487 106246 135149 11277 10211 4707
21486 106244 135152 11290 10213 4702
21488 106246 135154 11273 10215 4707
21488 106245 135158 11271 10217 4728
21487 106247 135159 11272 10209 4739
21490 106241 135159 11256 10206 4734
21489 106246 135155 11246 10209 4731
21489 106241 135151 11241 10210 4748
21490 106244 135142 11247 10214 4757
21492 106251 135156 11253 10213 4750
21494 106256 135155 11259 10204 4730
21497 106261 135156 11273 10202 4732
21501 106266 135159 11277 10182 4775
21505 106270 135166 11256 10192 4757
21508 106272 135166 11241 10194 4753
21512 106273 135161 11242 10188 4753
21513 106276 135162 11250 10187 4755
21517 106282 135164 11252 10199 4757
21519 106284 135163 11253 10207 4757
21524 106293 135170 11254 10206 4753
21531 106299 135178 11264 10206 4742
21533 106304 135175 11275 10202 4753
21535 106303 135174 11282 10199 4763
21535 106305 135164 11286 10201 4751
21539 106298 135162 11286 10203 4752
21540 106288 135164 11292 10213 4761
21533 106274 135156 11292 10219 4742
21524 106257 135150 11276 10214 4712
21517 106246 135150 11249 10209 4714
21512 106246 135156 11241 10217 4736
21506 106240 135152 11268 10226 4760
21504 106237 135148 11291 10237 4771
21502 106238 135148 11292 10246 4769
21501 106242 135152 11278 10237 4759
21503 106246 135162 11262 10217 4761
21503 106248 135163 11252 10197 4774
21501 106247 135157 11242 10183 4748
21501 106246 135162 11244 10179 4722
21504 106247 135161 11253 10187 4729
21506 106248 135157 11272 10202 4744
21503 106248 135151 11291 10206 4758
21501 106242 135155 11289 10205 4758
21503 106247 135156 11286 10200 4756
21506 106245 135161 11278 10204 4769
21501 106247 135166 11262 10215 4778
21502 106247 135164 11242 10216 4771
21501 106249 135157 11230 10217 4758
21503 106246 135148 11236 10219 4764
21502 106253 135152 11249 10222 4772
21506 106249 135155 11260 10229 4752
21510 106255 135162 11269 10230 4735
21517 106267 135165 11276 10229 4736
21517 106270 135172 11288 10208 4782
21522 106275 135172 11269 10204 4763
21524 106277 135173 11253 10206 4748
21529 106281 135170 11255 10202 4732
21527 106279 135167 11269 10198 4724
21532 106282 135163 11275 10195 4733
21534 106286 135166 11276 10198 4740
21538 106291 135168 11277 10206 4737
21541 106290 135163 11276 10209 4732
21545 106302 135178 11276 10199 4756
21547 106299 135172 11278 10189 4771
21549 106297 135166 11284 10187 4742
21550 106295 135155 11282 10193 4725
21553 106293 135151 11277 10200 4724
21554 106282 135149 11280 10205 4728
21548 106264 135147 11294 10214 4712
21539 106246 135130 11300 10203 4690
21532 106238 135133 11284 10193 4685
21526 106229 135134 11271 10202 4708
21517 106223 135141 11286 10205 4784
21512 106219 135132 11286 10203 4763
21511 106215 135133 11286 10202 4732
21508 106221 135133 11277 10197 4743
21504 106216 135134 11270 10188 4748
21504 106218 135139 11260 10180 4729
21502 106218 135136 11250 10178 4707
21499 106212 135124 11254 10186 4709
21500 106215 135133 11273 10193 4730
21501 106214 135132 11296 10203 4748
21499 106214 135132 11305 10200 4759
21496 106210 135129 11291 10190 4740
21496 106206 135127 11269 10188 4755
21496 106202 135133 11260 10199 4793
21492 106209 135137 11248 10208 4791
21495 106206 135136 11234 10207 4788
21494 106207 135134 11235 10207 4789
21496 106215 135135 11242 10201 4787
21497 106214 135135 11253 10197 4788
21500 106213 135137 11273 10196 4791
21502 106222 135144 11291 10186 4800
21504 106226 135146 11300 10184 4790
21507 106232 135150 11303 10195 4764
21512 106232 135148 11309 10200 4751
21515 106237 135151 11301 10196 4755
21514 106239 135147 11290 10187 4754
21519 106241 135153 11285 10188 4746
21522 106251 135158 11277 10192 4752
21528 106257 135168 11271 10191 4745
21531 106262 135167 11262 10194 4733
21536 106271 135176 11270 10191 4755
21540 106274 135175 11284 10202 4751
21545 106277 135176 11286 10213 4726
21548 106285 135186 11282 10216 4708
21550 106290 135187 11283 10210 4708
21553 106291 135181 11276 10203 4704
21553 106290 135174 11268 10197 4708
21556 106284 135179 11278 10202 4709
21557 106275 135185 11276 10204 4698
21549 106262 135178 11258 10189 4697
21540 106242 135168 11241 10178 4735
21529 106228 135163 11230 10202 4788
21526 106226 135170 11245 10235 4808
21520 106223 135177 11261 10254 4796
21516 106221 135172 11256 10258 4786
21511 106218 135170 11230 10249 4783
21511 106223 135184 11202 10239 4771
21512 106227 135190 11193 10225 4760
21510 106229 135197 11198 10210 4749
21507 106224 135187 11203 10197 4740
21506 106219 135186 11224 10198 4744
21506 106227 135188 11255 10216 4749
21506 106223 135192 11281 10235 4753
21506 106221 135189 11281 10241 4728
21507 106217 135193 11257 10239 4721
21505 106218 135196 11238 10237 4744
21505 106225 135206 11222 10227 4751
21506 106227 135212 11210 10222 4748
21506 106232 135215 11207 10222 4742
21506 106231 135214 11209 10225 4750
21504 106231 135211 11219 10224 4771
21505 106238 135213 11232 10223 4761
21512 106239 135221 11240 10229 4741
21512 106236 135214 11229 10232 4743
21513 106245 135228 11221 10229 4750
21517 106247 135231 11225 10223 4756
21518 106250 135228 11216 10216 4759
21521 106256 135230 11213 10211 4760
21525 106257 135234 11226 10210 4750
21526 106263 135233 11227 10208 4736
21529 106264 135235 11230 10181 4755
21532 106267 135237 11228 10199 4756
21533 106271 135232 11232 10212 4761
21538 106276 135239 11234 10209 4765
21541 106285 135242 11229 10202 4767
21543 106290 135241 11226 10202 4758
21547 106286 135239 11219 10206 4757
21548 106291 135229 11220 10212 4774
21551 106289 135239 11233 10203 4770
21550 106277 135233 11228 10182 4768
21540 106255 135225 11220 10189 4761
21530 106238 135222 11245 10208 4780
21523 106228 135224 11281 10233 4785
21515 106223 135224 11293 10251 4772
21512 106224 135220 11282 10247 4764
21507 106223 135217 11249 10230 4753
21505 106223 135221 11217 10213 4740
21503 106223 135223 11217 10204 4740
21501 106224 135232 11237 10190 4748
21501 106227 135235 11261 10185 4756
21498 106225 135229 11276 10198 4756
21497 106224 135229 11285 10224 4745
21499 106230 135228 11304 10238 4722
21499 106227 135230 11297 10231 4702
21500 106224 135226 11274 10229 4716
21500 106226 135230 11255 10230 4733
21500 106234 135241 11231 10232 4749
21499 106228 135243 11219 10235 4750
21499 106231 135241 11215 10234 4743
21497 106228 135241 11224 10230 4762
21497 106227 135232 11235 10239 4775
21498 106233 135238 11235 10253 4761
21499 106230 135236 11245 10251 4737
21502 106235 135241 11259 10239 4720
21504 106244 135252 11261 10227 4719
21507 106250 135256 11262 10225 4734
21511 106251 135252 11252 10224 4743
21515 106257 135253 11247 10222 4721
21515 106257 135251 11257 10218 4708
21519 106265 135251 11266 10204 4730
21522 106265 135253 11271 10198 4730
21522 106264 135252 11262 10206 4716
21524 106271 135251 11260 10217 4715
21528 106275 135255 11256 10229 4713
21533 106284 135269 11250 10228 4714
21538 106293 135272 11251 10217 4713
21542 106297 135271 11257 10217 4703
21543 106294 135260 11258 10223 4705
21544 106289 135259 11274 10226 4721
21544 106283 135261 11297 10219 4702
21537 106271 135254 11270 10215 4693
21527 106246 135245 11263 10218 4704
21517 106231 135238 11289 10234 4726
21507 106222 135238 11307 10245 4729
21499 106219 135240 11291 10246 4722
21495 106214 135232 11266 10236 4722
21489 106213 135233 11255 10229 4731
21487 106211 135232 11247 10222 4735
21485 106211 135232 11256 10186 4718
21484 106211 135243 11264 10189 4696
21482 106206 135238 11284 10203 4686
21482 106208 135230 11310 10215 4692
21481 106205 135224 11320 10220 4678
21477 106201 135217 11314 10221 4654
21478 106200 135215 11306 10213 4652
21475 106199 135217 11289 10202 4678
21475 106200 135228 11270 10206 4701
21475 106198 135230 11262 10209 4703
21475 106205 135232 11259 10209 4704
21475 106207 135236 11272 10215 4708
21474 106202 135230 11288 10224 4703
21473 106202 135222 11292 10227 4689
21471 106202 135222 11284 10224 4678
21472 106203 135213 11270 10222 4680
21476 106204 135220 11273 10226 4687
21477 106210 135226 11276 10228 4700
21480 106213 135226 11274 10225 4699
21483 106220 135224 11285 10219 4684
21486 106224 135225 11302 10200 4694
21488 106229 135224 11304 10204 4690
21488 106226 135222 11306 10211 4686
21492 106230 135217 11305 10218 4697
21494 106232 135216 11304 10214 4705
21496 106239 135220 11307 10210 4698
21501 106238 135224 11305 10212 4694
21504 106247 135220 11311 10216 4696
21506 106250 135220 11313 10216 4684
21512 106259 135231 11304 10212 4687
21515 106260 135226 11300 10208 4705
21519 106261 135229 11306 10209 4705
21520 106264 135215 11311 10214 4680
21522 106260 135214 11298 10210 4660
21521 106253 135223 11275 10210 4660
21513 106227 135211 11277 10218 4675
21502 106207 135203 11308 10228 4704
21492 106199 135203 11323 10236 4711
21485 106195 135201 11315 10239 4707
21477 106190 135204 11299 10219 4737
21470 106185 135204 11291 10196 4715
21468 106185 135208 11272 10190 4692
21468 106187 135211 11271 10185 4671
21465 106189 135215 11280 10189 4658
21465 106190 135224 11293 10200 4659
21463 106189 135221 11316 10224 4670
21461 106192 135215 11315 10237 4657
21461 106189 135219 11285 10230 4652
21462 106194 135224 11270 10220 4686
21460 106191 135224 11264 10214 4729
21460 106190 135221 11249 10219 4744
21460 106192 135221 11239 10224 4736
21460 106190 135235 11248 10230 4737
21458 106192 135232 11256 10239 4733
21459 106197 135236 11252 10243 4721
21457 106194 135239 11255 10245 4703
21457 106197 135233 11263 10241 4710
21459 106201 135239 11272 10241 4724
21461 106206 135243 11278 10246 4735
21468 106214 135250 11291 10246 4757
21469 106216 135257 11292 10236 4741
21473 106219 135260 11279 10226 4713
21476 106228 135259 11275 10227 4704
21482 106232 135259 11276 10237 4695
21486 106238 135262 11265 10243 4693
21485 106242 135267 11252 10244 4699
21489 106245 135271 11257 10248 4712
21494 106255 135276 11258 10255 4727
21499 106265 135279 11250 10256 4735
21504 106267 135281 11253 10224 4741
21509 106273 135290 11264 10229 4712
21513 106274 135290 11275 10235 4693
21517 106281 135298 11276 10235 4686
21523 106289 135300 11275 10237 4696
21525 106294 135299 11273 10241 4703
21526 106294 135292 11270 10234 4684
21531 106299 135294 11250 10217 4672
21535 106293 135310 11222 10219 4714
21535 106287 135306 11276 10278 4761
21524 106262 135291 11297 10285 4728
21514 106245 135288 11285 10279 4717
21505 106241 135293 11248 10265 4723
21500 106235 135291 11221 10241 4708
21494 106236 135291 11217 10228 4692
21490 106234 135289 11218 10229 4691
21490 106237 135297 11224 10236 4694
21491 106241 135303 11246 10248 4699
21492 106252 135310 11278 10265 4698
21492 106250 135305 11297 10275 4693
21491 106247 135305 11291 10259 4682
21495 106251 135309 11276 10240 4684
21494 106248 135309 11255 10230 4702
21492 106244 135303 11228 10225 4703
21489 106240 135295 11209 10220 4701
21491 106242 135301 11200 10222 4719
21491 106245 135303 11201 10227 4723
21494 106247 135310 11207 10226 4707
21491 106246 135313 11224 10228 4703
21493 106244 135308 11232 10230 4724
21492 106245 135308 11223 10231 4737
21494 106245 135305 11217 10236 4737
21496 106256 135309 11209 10235 4736
21499 106261 135313 11210 10231 4719
21501 106263 135311 11217 10230 4708
21502 106262 135307 11224 10232 4706
21504 106266 135312 11235 10232 4700
21506 106272 135315 11245 10237 4700
21509 106276 135307 11264 10240 4702
21513 106276 135308 11278 10236 4712
21516 106281 135311 11288 10233 4696
21521 106282 135308 11296 10229 4678
21522 106288 135303 11293 10233 4665
21527 106294 135308 11304 10236 4659
21529 106298 135308 11311 10235 4638
21534 106303 135306 11296 10228 4608
21538 106298 135294 11277 10219 4605
21535 106293 135286 11281 10222 4637
21538 106289 135289 11298 10228 4676
21534 106274 135288 11308 10243 4686
21526 106257 135275 11305 10257 4673
21516 106248 135275 11290 10249 4676
21509 106241 135276 11272 10233 4687
21503 106232 135274 11265 10216 4682
21496 106230 135272 11256 10195 4671
21495 106236 135271 11258 10187 4661
21493 106232 135269 11279 10195 4652
21492 106236 135276 11295 10205 4657
21494 106242 135284 11305 10210 4678
21492 106242 135283 11305 10217 4691
21493 106239 135276 11289 10221 4693
21495 106245 135282 11278 10225 4709
21494 106247 135278 11264 10233 4731
21494 106245 135271 11237 10237 4737
21495 106244 135269 11219 10232 4728
21497 106240 135272 11219 10234 4708
21495 106243 135279 11229 10237 4694
21493 106243 135283 11240 10231 4698
21494 106251 135281 11252 10235 4695
21494 106252 135285 11251 10237 4703
21499 106251 135280 11258 10233 4704
21498 106252 135276 11273 10233 4683
21499 106255 135274 11287 10227 4670
21499 106251 135269 11299 10222 4651
21503 106257 135268 11295 10227 4641
21507 106264 135270 11287 10238 4644
21509 106264 135275 11296 10238 4643
21513 106271 135275 11302 10231 4634
21516 106275 135272 11300 10230 4630
21517 106277 135271 11299 10226 4653
21520 106284 135265 11299 10232 4650
21525 106287 135266 11303 10235 4659
21529 106296 135271 11295 10234 4684
21531 106300 135266 11272 10236 4709
21534 106303 135271 11265 10240 4723
21539 106307 135269 11272 10240 4707
21541 106311 135268 11259 10230 4675
21544 106312 135258 11244 10220 4673
21545 106308 135257 11275 10241 4750
21546 106298 135259 11270 10248 4747
21538 106276 135251 11259 10247 4732
21530 106254 135236 11254 10245 4736
21520 106249 135238 11262 10238 4744
21512 106238 135237 11267 10219 4738
21504 106234 135239 11249 10206 4719
21500 106234 135231 11237 10209 4703
21496 106230 135231 11241 10211 4694
21493 106231 135227 11304 10229 4717
21492 106233 135231 11300 10240 4703
21493 106234 135239 11276 10229 4697
21491 106234 135234 11273 10222 4711
21491 106227 135224 11266 10227 4722
21493 106235 135235 11247 10235 4717
21495 106236 135238 11233 10239 4701
21494 106239 135239 11232 10245 4682
21494 106239 135241 11250 10253 4673
21493 106239 135243 11256 10253 4682
