2025-10-08 21:06:47    绿光---红外光---红光
2.516626E+08 3.517318E+08 -2.558659E+08
-8.36055E+07 1.646461E+09 1381120
1.545006E+07 2.852793E+08 6433536
-9.059642E+08 1.610673E+09 1115140
6.375594E+08 -1.076429E+09 7.399037E+07
8.053107E+08 3.549431E+08 -6.249603E+08
1.009513E+08 1.647313E+09 1386752
1.525346E+07 2.85607E+08 6435072
-8.220781E+08 1.325461E+09 1115652
7.046682E+08 -1.077019E+09 7.169662E+07
-1.392505E+09 3.406562E+08 -3.397542E+08
1.009413E+08 1.635844E+09 1311232
1.571219E+07 2.85607E+08 6384128
-1.073737E+09 1.526785E+09 1115652
-8.220587E+08 -1.07715E+09 7.274517E+07
1.509954E+09 3.317433E+08 -7.759555E+08
8.416666E+07 1.632895E+09 1295360
1.466364E+07 2.85607E+08 6404352
-8.220783E+08 1.308684E+09 1115396
-1.493147E+09 -1.077346E+09 7.405593E+07
-9.898514E+08 3.986556E+08 -3.733064E+08
8.417562E+07 1.675756E+09 1568512
1.512238E+07 2.85607E+08 6547968
-8.556319E+08 1.526785E+09 1115396
-1.845238E+08 -1.077215E+09 7.24175E+07
7.549791E+08 3.8024E+08 -6.081851E+08
1.009434E+08 1.647968E+09 1387264
1.407381E+07 2.85607E+08 6405888
-1.040182E+09 1.258348E+09 1115396
-3.355194E+08 -1.078133E+09 7.143446E+07
-2.097148E+09 3.36593E+08 -5.410803E+08
8.416819E+07 1.640563E+09 1343488
1.446701E+07 2.85607E+08 6421760
-1.006628E+09 1.459675E+09 1115396
1.006884E+08 -1.07715E+09 7.340054E+07
7.549791E+08 3.545499E+08 -7.591752E+08
8.416819E+07 1.647378E+09 1386496
1.459811E+07 2.85607E+08 6435328
-8.388554E+08 1.661002E+09 1115140
6.87891E+08 -1.077084E+09 7.359715E+07
8.220879E+08 3.417703E+08 -1.719834E+08
1.009446E+08 1.647444E+09 1332480
1.59088E+07 2.85607E+08 6435584
-1.056959E+09 1.62745E+09 1115652
1.828742E+09 -1.076494E+09 7.307286E+07
8.220879E+08 3.582199E+08 -3.22976E+08
1.177267E+08 1.647378E+09 1456896
1.623649E+07 2.85607E+08 6435584
-8.891867E+08 1.459683E+09 1115652
-8.388356E+08 -1.07715E+09 7.313842E+07
8.220879E+08 3.716548E+08 -3.397514E+08
1.177216E+08 1.647444E+09 1386240
1.538452E+07 2.784636E+08 6435584
-5.033112E+08 1.107352E+09 1029636
1.660969E+09 -1.076625E+09 7.195874E+07
8.556419E+08 3.406562E+08 -5.243016E+08
-2.513754E+08 1.647378E+09 1332224
1.486023E+07 2.493E+08 6435072
-9.395188E+08 1.493231E+09 972292
-3.858508E+08 -1.077543E+09 7.313842E+07
8.220887E+08 3.550086E+08 -2.558648E+08
-7.71467E+08 1.647444E+09 1387520
1.590882E+07 3.554028E+08 6435840
-4.865339E+08 1.124133E+09 1399556
7.382227E+08 -1.075642E+09 7.123786E+07
8.388662E+08 3.551397E+08 -4.404124E+08
1.896105E+09 1.647378E+09 1387264
1.518793E+07 2.993695E+08 6435328
-7.885237E+08 1.174466E+09 1069572
7.214454E+08 -1.07715E+09 7.071358E+07
8.72419E+08 3.551397E+08 -4.57193E+08
5.371543E+08 1.647575E+09 1387008
1.538452E+07 2.66405E+08 6435328
-2.6843E+08 1.409341E+09 1085700
7.046682E+08 -1.076036E+09 7.208982E+07
8.891968E+08 3.551397E+08 -4.40415E+08
3.383424E+07 1.647313E+09 1387008
1.531899E+07 2.854759E+08 6435072
-8.053009E+08 1.644227E+09 1115652
7.046682E+08 -1.077412E+09 7.359717E+07
2.01327E+09 3.551397E+08 -2.223081E+08
-1.207671E+09 1.613431E+09 1387008
1.571222E+07 2.622762E+08 6294272
-5.033111E+08 1.25835E+09 1028100
6.878904E+08 -1.07597E+09 7.294179E+07
7.046476E+08 3.551397E+08 -3.733023E+08
-2.178189E+08 1.697382E+09 1387008
1.518793E+07 3.284676E+08 6693632
-7.549693E+08 1.593894E+09 1296388
7.046693E+08 -1.077084E+09 7.340055E+07
1.979716E+09 3.550086E+08 -4.236383E+08
1.225018E+09 1.628307E+09 1386496
1.45981E+07 2.646355E+08 6308608
-8.220781E+08 1.426118E+09 1022980
6.54336E+08 -1.077477E+09 7.326946E+07
2.684395E+08 3.550086E+08 -7.088517E+08
5.539366E+08 1.624244E+09 1386496
1.47947E+07 2.791845E+08 6396928
-8.89187E+08 1.476454E+09 1108484
6.543365E+08 -1.077346E+09 7.307287E+07
7.549791E+08 3.548775E+08 -5.578557E+08
6.739379E+07 1.647378E+09 1387008
1.44015E+07 2.829856E+08 6416640
-5.7042E+08 1.577116E+09 1078788
-1.157603E+09 -1.076429E+09 7.267966E+07
-2.516541E+08 3.223061E+08 -4.404155E+08
7.720366E+08 1.62431E+09 1247488
1.49913E+07 2.711891E+08 6343168
-8.556332E+08 1.56034E+09 1065732
1.644192E+09 -1.077019E+09 7.320394E+07
-1.509945E+09 4.181853E+08 -4.068608E+08
-1.442551E+09 1.693123E+09 1660416
1.486026E+07 3.141807E+08 6621952
-4.362011E+08 1.342234E+09 1228548
-1.929354E+09 -1.076101E+09 7.261411E+07
-3.354979E+07 3.991143E+08 -3.229716E+08
6.210435E+08 1.650524E+09 1401088
1.564668E+07 2.780704E+08 6390272
-6.543063E+08 1.644227E+09 1068036
1.459643E+09 -1.076625E+09 7.418699E+07
1.509991E+08 3.204711E+08 -2.894193E+08
1.778673E+09 1.635975E+09 1293824
1.531902E+07 2.793156E+08 6419456
-6.543062E+08 1.879108E+09 1102340
-8.556129E+08 -1.077215E+09 7.38593E+07
-1.996484E+09 3.542877E+08 -1.719805E+08
-6.682189E+07 1.654915E+09 1392384
1.623649E+07 2.856725E+08 6470144
-8.556326E+08 1.845557E+09 1117700
1.912628E+09 -1.07715E+09 7.674286E+07
-1.224732E+09 3.699508E+08 1.069546E+09
9.733501E+08 1.677787E+09 1445888
1.728508E+07 2.906533E+08 6582272
-9.05964E+08 1.946227E+09 1164036
1.107322E+09 -1.080033E+09 8.591793E+07
1.023415E+09 7.180125E+08 -2.067924E+09
-1.91201E+09 1.999569E+09 4083200
1.217298E+07 3.217179E+08 6116096
-7.046264E+08 1.680575E+08 1252352
-7.717293E+08 -1.065615E+09 -2.365734E+07
-1.124068E+09 1.765212E+09 1.656857E+09
-1.208556E+09 1.643381E+09 7907584
2933548 5.832003E+08 8955136
1.593881E+09 -1.713363E+07 2137073
-2.012936E+08 -1.055129E+09 -1.187535E+08
5.368762E+08 1.621557E+09 6.332838E+08
5.701228E+08 1.094386E+09 3960064
-1.865969E+08 1.851372E+08 3990528
-4.529726E+08 -2.08159E+09 1228010
1.224765E+09 -1.04117E+09 -2.180413E+08
-1.342097E+08 -1.526858E+09 1.806538E+08
-1.627593E+09 -6.548356E+08 1.36791E+07
-2.327993E+08 9.604958E+08 1.955123E+07
-8.387917E+08 -6.754182E+07 4122378
-8.052253E+08 -1.10474E+09 2.572938E+08
-1.543487E+09 1.675363E+09 9.660723E+07
-8.384479E+08 1.120076E+09 2.36503E+07
-1.461607E+08 1.361839E+09 2.537062E+07
1.795269E+09 1.023034E+09 7014923
-9.226215E+08 -1.076756E+09 2.150225E+08
-6.374781E+08 -1.543765E+09 1.806538E+08
-3.37572E+07 -1.386152E+09 5.688883E+07
-2.327993E+08 -1.466695E+09 3.941888E+07
-8.386514E+08 -6.754182E+07 1.222324E+07
1.744992E+09 -1.104739E+09 2.572938E+08
1.728109E+09 1.466959E+09 9.660723E+07
1.359367E+09 -8.75102E+08 7.060429E+07
-1.461607E+08 -9.819251E+08 4.095974E+07
1.79541E+09 1.023034E+09 1.173736E+07
-1.77824E+09 -1.076756E+09 2.150225E+08
1.996527E+09 -4.925026E+08 -7.762606E+08
1.845366E+09 9.981135E+08 5.633101E+07
-5.283977E+07 -8.839495E+08 4.26793E+07
-7.882817E+08 -7.218901E+08 1.490816E+07
-3.353596E+08 -1.086651E+09 1.028234E+08
3.188302E+08 1.242629E+09 2.109626E+09
-1.336824E+08 -7.437678E+08 6.743245E+07
-1.533054E+08 -3.924304E+08 4.280448E+07
-3.688647E+08 1.945468E+09 1.212926E+07
3.021209E+08 -9.659344E+08 -3.962332E+08
1.50996E+09 -1.255735E+09 1.959107E+09
1.088763E+09 -1.672151E+09 8676096
-1.82729E+08 6.66428E+08 1.115546E+07
-7.213781E+08 4.355665E+08 2818785
-1.627345E+09 -8.62388E+08 -5.23176E+08
-5.368598E+08 -7.34986E+08 -6.912893E+08
1.004687E+09 -1.132397E+09 1.20384E+07
-1.69818E+08 6.235026E+08 1.178675E+07
1.05701E+09 1.626698E+09 2602470
1.929429E+09 -1.021313E+09 -4.383083E+08
6.039948E+08 1.010369E+09 1.992488E+09
-2.017838E+08 1.47397E+09 2.872499E+07
-1.648396E+08 1.766854E+09 3.021158E+07
1.493342E+09 -1.779489E+09 9425167
1.644336E+09 -1.00211E+09 1.594438E+08
-1.409237E+09 1.834026E+09 2.109935E+09
-1.408818E+09 2.082013E+09 1.052874E+08
-1.547467E+08 1.108233E+08 8.337178E+07
-1.878606E+09 1.509251E+09 1.945191E+07
1.141199E+09 -1.019214E+09 9.279487E+07
2.349698E+08 1.260271E+08 -1.9671E+09
-8.71679E+08 -1.95271E+09 1.181312E+08
-2.199553E+08 1.788742E+09 9.331866E+07
2.017884E+08 -4.035469E+08 2.410983E+07
6.043452E+08 -1.032256E+09 -3.277097E+07
3.188624E+08 2.355378E+08 -1.446887E+09
1.509595E+09 -1.719992E+09 1.18387E+08
-1.677227E+08 2.045506E+09 9.409485E+07
-1.002008E+08 -1.007086E+09 2.491979E+07
1.090887E+09 -1.027209E+09 -2.588688E+08
-9.562024E+08 2.661431E+08 -1.111391E+09
1.156432E+09 -1.55163E+09 1.184328E+08
-1.101819E+08 -2.05174E+09 9.455002E+07
-1.257829E+09 -1.14129E+09 2.562917E+07
1.345868E+08 -1.027865E+09 -2.744011E+08
2.853131E+08 2.043427E+08 -3.899251E+08
-1.443963E+09 -1.592918E+09 1.1822E+08
-1.474064E+08 -1.964119E+09 9.44448E+07
-2.113468E+09 -4.871051E+08 2.595377E+07
1.275437E+09 -1.050278E+09 -3.03827E+08
-6.038774E+08 1.949055E+08 1.522654E+09
4.931967E+07 -1.534984E+09 1.181906E+08
-1.258451E+08 -1.843401E+09 9.468826E+07
1.762069E+09 5.363742E+08 2.643454E+07
1.174775E+09 -1.051327E+09 -2.615562E+08
1.560385E+09 1.937259E+08 1.421968E+09
-1.343196E+09 -1.490944E+09 1.182052E+08
-1.279422E+08 -1.766527E+09 9.488E+07
-1.07328E+09 -5.038219E+08 2.67164E+07
-1.241143E+09 -1.047001E+09 -2.752532E+08
-8.37813E+07 1.46671E+08 4.32108E+08
8.210432E+08 -1.608515E+09 1.178227E+08
-1.321366E+08 -1.732841E+09 9.405005E+07
-1.794703E+09 -1.527242E+09 2.677246E+07
-1.694132E+09 -1.045953E+09 -2.558545E+08
7.886338E+08 -1.343345E+07 2.076292E+09
1.290841E+09 -1.796407E+09 1.173737E+08
-1.268937E+08 -1.710362E+09 9.370061E+07
1.174864E+09 1.001581E+08 2.692939E+07
-9.559349E+08 -1.055324E+09 -2.704036E+08
-1.778279E+09 4.286198E+07 1.522668E+09
-1.158699E+09 -1.61402E+09 1.176696E+08
-1.290562E+08 -1.617302E+09 9.445965E+07
-4.021934E+08 -1.745346E+09 2.7254E+07
7.888982E+08 -1.047263E+09 -2.742702E+08
1.442947E+09 6.140867E+07 -1.55105E+08
1.089448E+09 -1.61343E+09 1.176085E+08
-1.325954E+08 -1.607143E+09 9.424154E+07
-1.002042E+08 -5.373753E+08 2.727576E+07
1.090887E+09 -1.058732E+09 -2.722385E+08
-9.394173E+08 -1.048433E+07 1.472291E+09
2.112892E+09 -1.673461E+09 1.174042E+08
-1.285321E+08 -1.577652E+09 9.416166E+07
-1.761149E+09 -1.347183E+08 2.743141E+07
-3.855079E+08 -1.045822E+09 -2.74139E+08
-1.006526E+09 6292894 1.874968E+09
-7.72823E+08 -1.614217E+09 1.17491E+08
-1.260416E+08 -1.538527E+09 9.439718E+07
-7.880702E+08 -1.292338E+09 2.757605E+07
-2.680666E+08 -1.047657E+09 -2.762362E+08
1.459726E+09 2.136618E+07 1.119973E+09
-1.376785E+09 -1.56146E+09 1.175337E+08
-1.274835E+08 -1.490358E+09 9.460224E+07
-9.893966E+08 -4.534754E+08 2.775755E+07
2.030413E+09 -1.044314E+09 -2.704035E+08
-2.046712E+09 1.795831E+07 1.975623E+09
-1.343237E+09 -1.591345E+09 1.174054E+08
-1.277457E+08 -1.499992E+09 9.408461E+07
1.141308E+09 2.06309E+09 2.760037E+07
1.443207E+09 -1.051589E+09 -2.760396E+08
-1.358847E+09 -2.254424E+08 1.80786E+09
-1.712355E+09 -1.962279E+09 1.165274E+08
-1.278112E+08 -1.549013E+09 9.2992E+07
2.114384E+09 -1.510451E+09 2.750283E+07
-1.325037E+09 -1.048247E+09 -2.728283E+08
-1.560174E+09 -2.459552E+08 1.740737E+09
-2.131787E+09 -1.974665E+09 1.164575E+08
-1.283355E+08 -1.555436E+09 9.290342E+07
-7.5452E+08 -1.342669E+09 2.743474E+07
-1.442478E+09 -1.04189E+09 -2.711243E+08
-6.709833E+08 -4.615031E+08 1.824627E+09
2.505761E+08 1.646265E+09 1.154225E+08
-1.261728E+08 -1.931678E+09 8.810573E+07
1.728504E+09 1.844995E+09 2.540158E+07
1.174741E+09 -1.053358E+09 -2.772848E+08
-1.677631E+09 -1.711209E+09 1.640041E+09
-1.141928E+09 2.202044E+07 1.101783E+08
-1.243379E+08 1.278865E+09 8.339635E+07
-1.841209E+08 6.705999E+08 2.117733E+07
1.510269E+09 -1.081211E+09 -2.581485E+08
-1.207871E+09 4.538379E+08 1.40375E+09
8.211136E+08 5.337911E+08 1.009802E+08
-3.61321E+08 1.818685E+09 6.757146E+07
-1.308233E+09 1.642853E+09 2.190257E+07
-1.66066E+09 -1.087765E+09 -1.629925E+08
-1.107234E+09 1.15468E+09 -1.094072E+09
1.157616E+09 1.190527E+09 1.042665E+08
-2.664808E+08 -4.129412E+08 7.237581E+07
-1.777973E+09 8.713781E+08 1.571994E+07
-1.341895E+09 -5.919851E+08 8.43406E+07
-1.845425E+09 -5.53385E+08 7.015844E+08
1.292262E+09 8.499366E+08 8.629786E+07
-7.682108E+07 -5.196344E+08 4.846157E+07
-2.848958E+08 -1.627788E+09 1.541119E+07
1.174628E+09 -1.409743E+09 -1.907758E+08
1.510013E+09 -6.66238E+08 -1.566745E+09
1.878191E+09 -3.025139E+08 1.016609E+08
3.818057E+07 -6.101648E+07 6.564506E+07
-1.638229E+07 -9.55919E+08 1.661773E+07
-1.476134E+09 -1.485372E+09 8.100326E+07
8.724772E+08 1.720452E+09 5.49824E+08
4.881577E+08 -2.066219E+09 1.071432E+08
3.613557E+08 -5.750082E+08 7.619814E+07
1.5607E+09 2.081658E+09 1.419291E+07
1.678017E+09 -4.767728E+08 2.089982E+08
3.691538E+08 1.759774E+09 1.927754E+09
1.745709E+09 -2.02539E+09 1.07457E+08
1.834948E+08 -7.725348E+08 7.534669E+07
-9.894386E+08 1.517437E+08 1.344539E+07
2.063887E+09 -3.920348E+08 2.074908E+08
2.080436E+09 1.693451E+09 2.311777E+08
9.236022E+08 1.760035E+09 1.094185E+08
9.24431E+08 1.073514E+08 7.431117E+07
1.007061E+09 -7.844007E+08 1.727515E+07
-1.308337E+09 -1.649933E+09 1.397392E+08
5.03384E+08 1.376716E+09 -2.41002E+08
-1.475887E+09 -1.935931E+08 1.022587E+08
8.466383E+08 -1.397858E+08 6.313907E+07
-8.88807E+08 7.40889E+08 1.634305E+07
-8.386066E+08 -1.01928E+09 2.246001E+08
-1.509448E+08 5.039828E+07 -2.048607E+09
1.611417E+09 1.414267E+09 1.015485E+08
1.447628E+08 -9.174349E+08 7.255398E+07
-1.610217E+09 1.879514E+09 1.302939E+07
1.577338E+09 -3.283338E+08 2.609664E+08
-8.555881E+08 -3.411793E+08 -1.460985E+09
1.158612E+09 9.530247E+08 9.975475E+07
3.524448E+08 -8.861084E+08 7.176883E+07
-2.147091E+09 1.96486E+09 1.375976E+07
-1.649253E+07 -1.465383E+09 1.603805E+08
8.389188E+08 5.915946E+08 3.966472E+08
1.443454E+09 -2.068381E+09 1.045553E+08
8.268485E+08 -2.064011E+07 7.626291E+07
-1.559869E+09 7.911608E+08 1.692008E+07
-7.043471E+08 -8.198538E+08 3.263117E+08
-2.130642E+09 1.215432E+09 1.356426E+09
-1.329971E+08 -2.091516E+09 1.056366E+08
2.55648E+08 5.833119E+07 7.488819E+07
-1.996075E+09 -1.32478E+09 1.750068E+07
-5.030343E+08 -4.240819E+08 2.116827E+08
-8.555841E+08 -6.181348E+08 -8.572989E+08
-7.540152E+08 -1.493369E+09 7.23049E+07
3.738088E+08 -1.322314E+09 4.18199E+07
-1.610342E+09 1.512038E+09 1.017783E+07
1.610747E+09 -1.080295E+09 8.818628E+08
8.72457E+08 -1.288241E+09 -3.740969E+08
-6.671426E+08 1.782121E+09 6.712218E+07
6.843732E+08 -1.418314E+09 4.050125E+07
4.029169E+08 8.578974E+08 1.14297E+07
-1.52657E+09 -8.772639E+08 1.120739E+09
1.71133E+09 -2.117468E+09 -1.713124E+09
3.894997E+08 -4.908644E+08 7.991296E+07
3.802993E+08 -6.483997E+08 4.743014E+07
1.848527E+08 8.06772E+08 1.329387E+07
1.073912E+09 -3.281377E+08 9.196062E+08
9.7313E+08 9.814678E+08 5.189443E+08
-1.388743E+09 -1.797783E+09 7.127526E+07
3.192874E+08 -9.224701E+08 4.295808E+07
8.726909E+08 -2.146261E+09 1.324319E+07
7.886972E+08 -2.869811E+08 8.646854E+08
-6.207E+08 -2.136669E+09 -6.899164E+08
1.542684E+08 1.035731E+09 8.695168E+07
8.20425E+07 2.918445E+08 5.860045E+07
-1.190819E+09 -1.425894E+09 1.811461E+07
4.70005E+08 -6.284232E+08 7.7883E+08
4.362793E+08 -5.284158E+08 -1.032776E+08
-8.862587E+08 -2.650273E+08 9.60855E+07
-1.017893E+08 2.654295E+08 6.454067E+07
1.510309E+09 -1.851316E+08 1.729001E+07
-8.721708E+08 -9.041988E+08 3.380311E+08
1.493236E+09 -1.937702E+09 -3461884
1.309348E+09 -1.092483E+08 7.071258E+07
-5.03199E+08 -2.099762E+08 4.701158E+07
5.539087E+08 -2.06556E+09 1.490713E+07
9.229139E+08 -8.12842E+08 -1.301622E+08
-1.811886E+09 1.456407E+09 6.176596E+08
6.702659E+08 4.35618E+08 5.015757E+07
-5.053598E+08 -1.613763E+09 2.932531E+07
-2.130546E+09 9.866005E+07 8567011
1.258383E+09 -7.887252E+08 -5.362227E+08
-1.795095E+09 1.446184E+09 -1.512736E+09
-1.831722E+09 1.35345E+09 7.920486E+07
-2.435426E+08 7.772433E+08 5.789491E+07
1.795486E+09 -6.807633E+07 1.9096E+07
8.223006E+08 -7.260721E+08 -1.077481E+09
8.221533E+08 -1.750662E+09 -9.416783E+08
1.572921E+09 -6.98679E+08 7.09801E+07
1.087231E+07 -5.889199E+08 4.353792E+07
-2.096895E+09 6.549089E+08 1.357717E+07
-1.207799E+09 -7.241718E+08 -7.375391E+08
4.698094E+08 -2.006253E+09 7.520893E+08
4.667497E+08 -5.762579E+08 4.922598E+07
3.548011E+08 1.901122E+09 2.234803E+07
-6.206197E+08 -3.006116E+08 5320660
1.979773E+09 -6.433665E+08 -7.090281E+08
1.577077E+09 1.363608E+09 8.146637E+07
-2.544737E+08 -1.087177E+09 2.028314E+07
5.100577E+08 7.590919E+08 8465152
-1.862217E+09 -6.520668E+08 2024400
-1.862248E+09 -5.080349E+08 -7.7502E+08
6.711221E+07 1.308623E+09 -1.160932E+09
1.010893E+08 8.804106E+08 5516032
6.6059E+08 2.544784E+08 3703808
8.556613E+08 -2.323226E+08 1090568
5.704412E+08 -8.30341E+08 1.5225E+08
1.006638E+09 1.928462E+09 -8.924447E+08
-1.324853E+09 1.322779E+09 8517888
6.44534E+08 4.103886E+08 5724928
1.17478E+08 1.361463E+09 1848584
8.391074E+07 -8.065514E+08 1.441889E+08
-8.220762E+08 -1.475019E+09 1.070723E+09
1.863127E+09 1.649017E+09 1.096013E+07
6.533816E+08 4.769098E+08 6625024
8.221262E+08 6.956616E+07 1759507
-1.17438E+09 -8.062237E+08 3.194318E+08
8.724216E+08 -1.851785E+09 -2.066931E+09
3.870946E+08 1.425015E+09 8787456
6.48007E+08 3.645811E+08 5270016
6.375664E+08 5.291464E+07 1348877
-8.22064E+08 -7.844003E+08 1.546754E+08
-1.241508E+09 -1.924333E+09 -6.237624E+08
6.208336E+08 2.074411E+09 1.208038E+07
7.342535E+08 6.541802E+08 9062656
-5.028E+07 -2.127828E+09 2721276
-5.368337E+08 -7.660501E+08 -1.177571E+08
-1.526716E+09 -7.256145E+08 -1.294824E+09
-5.206187E+08 -1.723597E+09 1.395277E+07
7.064004E+08 7.747651E+08 1.024589E+07
1.644222E+09 -1.104522E+09 3102970
-1.543463E+09 -7.688026E+08 -1.108758E+08
1.677845E+08 -7.911505E+08 -1.764515E+09
1.375015E+09 -1.72281E+09 1.308493E+07
7.886492E+08 7.748947E+08 9730816
1.828765E+09 -2.150037E+08 2839539
-3.019544E+08 -7.107377E+08 -2.163223E+08
-1.241504E+09 -1.689321E+09 4.838986E+08
1.626523E+09 1.946026E+09 9079808
8.173548E+08 5.51613E+08 6876160
-5.032854E+08 1.748038E+09 1930481
-1.023386E+09 -6.284901E+08 -2.534807E+08
9.227533E+08 1.435894E+09 2.662548E+08
9.216932E+08 1.31498E+09 5327360
8.716861E+08 3.972096E+08 5017856
-2.097132E+09 8.733974E+07 1510896
1.241533E+09 -5.001707E+08 -2.751723E+08
-2.348753E+08 1.203634E+09 -1.142792E+09
1.659849E+09 1.163198E+09 4477696
8.882018E+08 3.425523E+08 4339200
1.627406E+09 -8.353999E+08 1274349
-1.124057E+09 -4.944691E+08 -3.122654E+08
1.879053E+09 8.427275E+08 1.29004E+09
-1.108553E+09 9.169142E+08 3229184
8.950182E+08 2.76819E+08 3533824
2.181162E+08 -1.942628E+09 1063404
-1.224723E+09 -4.468244E+08 -3.287803E+08
1.056969E+09 7.650018E+08 1.994755E+09
-2.697177E+08 8.214938E+08 2809856
9.24182E+08 2.441165E+08 3122944
-4.194198E+08 -1.556662E+09 923884
-1.761596E+09 -4.382392E+08 -3.306151E+08
1.34218E+09 5.735711E+08 -4.211238E+08
-7.562329E+08 7.102792E+08 2321920
9.038004E+08 2.280602E+08 2945792
-2.147474E+09 5.236075E+08 990700
-1.979699E+09 -4.312268E+08 -3.460165E+08
6.20762E+08 1.059586E+09 3.170642E+08
7.032203E+08 1.650655E+09 7002368
9.060286E+08 7.162375E+08 9131776
6.715099E+07 -1.690964E+09 4023019
-1.996437E+09 -4.390254E+08 -3.207198E+08
-1.895792E+09 -1.72897E+09 1.792814E+09
-1.124831E+09 6.265256E+07 5.039616E+07
6.973574E+08 -1.628768E+09 3.578214E+07
2.047033E+09 1.092965E+09 1.074841E+07
-1.123931E+09 -9.59053E+08 1.042754E+08
-1.895784E+09 1.337394E+09 -1.933149E+09
1.158338E+09 7.412137E+07 5.281792E+07
4.074882E+08 -1.862595E+09 3.157248E+07
1.996683E+09 -1.105825E+09 9030673
6.722392E+07 -9.239258E+08 3.349596E+08
-1.006374E+08 2.685013E+08 -1.530293E+09
4.382451E+08 2.812806E+08 3.035162E+07
2.148789E+08 1.23628E+09 1.432064E+07
1.241612E+09 3.697556E+08 3844389
1.979755E+09 -7.780431E+08 6.696493E+08
6.543233E+08 -1.967389E+08 1.94321E+09
9.759078E+08 1.757348E+09 1.29216E+07
1.414157E+08 5.286905E+08 5963520
-1.107253E+09 -2.079835E+09 1884463
1.526748E+09 -6.400244E+08 8.278529E+08
1.342183E+09 2.053112E+09 1.33996E+09
-2.009748E+09 1.148256E+09 7982848
1.345371E+08 3.839893E+08 4512000
1.00695E+08 8.22634E+08 1540406
7.885469E+08 -5.333318E+08 9.099695E+08
-6.207507E+08 -2.055537E+09 -1.965042E+09
1.832281E+09 1.237844E+09 9374976
1.46268E+08 4.809171E+08 5148672
1.107336E+09 5.878092E+08 1996597
-1.56026E+09 -5.501745E+08 8.724179E+08
-1.7616E+09 -1.445134E+09 8.870413E+08
6.240668E+08 1.460797E+09 1.134438E+07
2.276636E+08 5.462555E+08 5764608
1.795207E+09 1.913508E+09 2127154
1.056987E+09 -5.630196E+08 8.465322E+08
1.124082E+09 -1.413546E+09 -1.411469E+09
3.052982E+08 1.403519E+09 1.091302E+07
2.507978E+08 5.012323E+08 5274112
3.523625E+08 -2.0626E+09 1879090
-1.124054E+09 -5.514198E+08 8.53086E+08
1.174471E+08 -1.983447E+09 -1.461728E+09
5.366786E+07 1.124008E+09 8783104
2.623979E+08 4.165599E+08 4335104
3.02024E+08 8.902134E+08 1622067
-1.040171E+09 -5.385092E+08 8.608194E+08
9.395306E+08 -2.013593E+09 -1.059054E+09
1.530109E+09 1.143079E+09 9289472
2.652816E+08 4.544399E+08 4558080
1.30866E+09 -3.680446E+08 1797427
-1.392491E+09 -5.23698E+08 8.716986E+08
1.543512E+09 -1.528758E+09 8.367926E+08
-1.791788E+09 1.53754E+09 1.232512E+07
3.001465E+08 7.127172E+08 7667968
5.039114E+07 1.813089E+09 3455284
1.828756E+09 -6.223951E+08 8.412244E+08
1.728069E+09 1.522533E+09 -2.099697E+09
-3.996172E+08 -6.446776E+08 2.391834E+07
3.350751E+08 1.097477E+09 1.483878E+07
-1.342082E+09 -4.515674E+08 4249382
-1.493113E+09 -7.394423E+08 5.408742E+08
8.38892E+08 -1.890713E+09 3.822292E+08
1.847034E+09 -1.559888E+09 4.280269E+07
2.089148E+08 -2.082726E+09 3.013197E+07
1.862454E+09 -2.146641E+09 8757531
-2.347616E+08 -9.56956E+08 3.826672E+08
9.395576E+08 -9.878892E+08 1.806807E+08
-9.547686E+08 -7.620525E+08 4.635187E+07
1.136239E+08 2.085624E+09 2.932582E+07
-4.024806E+08 6.71501E+08 7183637
9.396269E+08 -1.021968E+09 3.368565E+08
-3.690739E+08 5.374611E+08 -2.221601E+08
9.568059E+08 1.090257E+09 3.211725E+07
-5.618044E+07 1.336937E+09 1.945318E+07
1.359072E+09 9.057131E+08 4838664
-6.20687E+08 -1.064042E+09 1.23272E+08
-1.845323E+08 -2.088501E+09 -4208127
3.191926E+08 -3.821404E+08 2.400563E+07
-7.761089E+07 9.894639E+08 1.404109E+07
-2.097064E+09 1.677441E+09 3498500
5.369192E+08 -1.075904E+09 5.052724E+07
1.711278E+09 7.688028E+08 1.053044E+09
-1.499845E+08 3.566469E+08 2759680
8.22327E+07 1.111534E+08 1306624
8.053166E+08 1.158158E+09 415762
8.388657E+08 -9.984409E+08 3.28142E+08
7.046447E+08 6.193807E+08 -6.246326E+08
4.543199E+08 2.968781E+08 2394880
2.81593E+08 1.011274E+08 1132032
-5.536389E+08 8.400696E+08 390165
1.744835E+09 -9.461432E+08 3.594048E+08
3.355458E+08 5.653791E+08 -2.216709E+08
-1.18975E+09 2.70336E+08 2230272
4.015251E+08 9.726098E+07 1067008
1.107305E+09 2.115609E+09 389397
-1.308619E+09 -9.123921E+08 3.590132E+08
1.140852E+09 6.204293E+08 1.992977E+09
1.830095E+09 3.055944E+08 2550272
4.788579E+08 1.170526E+08 1297152
-5.200828E+08 -5.686457E+08 514579
9.898614E+08 -9.298247E+08 3.164144E+08
-1.358951E+09 1.389363E+09 1.67388E+09
1.963922E+09 7.81058E+08 5748992
4.432707E+08 2.48778E+08 3248640
-1.711253E+09 -1.759977E+09 1024268
-1.442827E+09 -9.79501E+08 1.708578E+08
-1.442836E+09 1.639907E+09 1.841571E+09
-6.670437E+07 9.942467E+08 6711808
2.907022E+08 2.998282E+08 4114688
3.691262E+08 -9.049045E+08 1229825
1.91262E+09 -1.061683E+09 -5435605
9.56307E+08 -2.073493E+09 -4.234253E+08
5.367089E+08 1.476133E+09 9323008
2.106174E+08 4.370588E+08 6239744
1.660983E+09 -5.189794E+08 1789946
-1.526701E+09 -1.012662E+09 -1.219572E+08
3.523285E+08 -1.66658E+09 5.494385E+08
-1.64485E+09 1.659109E+09 1.00672E+07
4.16923E+08 4.360729E+08 6362368
-1.673887E+07 -1.944356E+09 1657070
-1.107272E+09 -1.140523E+09 -3.344226E+08
1.073752E+09 -6.142033E+08 1.573033E+09
-1.159239E+09 -1.812529E+09 1.456922E+07
6.124195E+08 7.512988E+08 1.051085E+07
-4.193685E+08 1.780692E+09 3088618
1.660987E+09 -8.085174E+08 -3.224279E+08
-1.862259E+09 9.614148E+07 1.648013E+08
2.096085E+09 -1.322451E+09 1.783552E+07
7.126269E+08 8.583213E+08 1.173222E+07
1.610684E+09 -3.494613E+08 3306481
-1.845448E+09 -7.013005E+08 -2.218284E+08
1.375744E+09 9.522397E+07 2.145338E+09
-1.661739E+09 -1.020527E+09 2.074778E+07
7.857687E+08 1.10251E+09 1.489562E+07
1.610708E+09 -1.003638E+09 4814076
-1.84543E+09 -4.793299E+08 4337238
-1.610592E+09 -9.519101E+08 -1.176257E+09
310318 7.10738E+08 3.275443E+07
7.93437E+08 1.584597E+09 2.039091E+07
3.368792E+07 -1.221567E+09 6687498
-7.716658E+08 -5.491911E+08 1.806294E+08
-7.046004E+08 1.974273E+09 -2.049038E+09
-1.710405E+09 1.927873E+09 6.681882E+07
6.900195E+08 -3.411114E+08 4.946995E+07
-1.845182E+09 -6.852588E+08 1.813121E+07
-1.627161E+09 -6.903548E+08 1.742697E+08
-8.387866E+08 -9.918864E+08 6.850179E+08
1.946787E+09 -1.150157E+09 9.532058E+07
5.749359E+08 5.244865E+08 6.347392E+07
1.275443E+09 5.557654E+08 1.904333E+07
4.029066E+08 -8.062879E+08 6.691994E+07
1.577135E+09 -2.533612E+08 -2.010649E+07
-1.308602E+09 1.398538E+09 8.702899E+07
3.231424E+08 7.929774E+07 5.440947E+07
-1.710933E+09 -2.06274E+09 1.914853E+07
5.057884E+07 -1.356528E+09 -2.32979E+08
-9.897803E+08 9.530255E+08 -7.227954E+07
1.106994E+09 5.872684E+08 1.066826E+08
-1.476339E+07 3.371179E+08 7.047578E+07
-2.012847E+09 -1.443133E+09 1.760692E+07
3.861505E+08 -1.000799E+09 7.182487E+07
3.188365E+08 1.56795E+09 7.843208E+08
-5.708145E+08 1.758989E+08 1.069215E+08
-4.986795E+08 8.847233E+07 6.781594E+07
1.124495E+09 -7.065936E+08 1.659264E+07
1.577328E+09 -1.065483E+09 2155053
-6.542484E+08 1.76233E+09 3.146132E+08
-7.54996E+08 1.493568E+08 1.050176E+08
-4.014895E+08 -6.136792E+08 6.417075E+07
1.27546E+09 -8.068655E+08 1.385421E+07
1.745073E+09 -1.040448E+09 7858074
4.698074E+08 1.2501E+09 -6.58722E+08
2.113769E+09 6.343886E+08 5.725978E+07
-2.094031E+08 1.905655E+09 2.765875E+07
-1.342001E+09 -1.963677E+09 6855423
-6.877637E+08 -1.071906E+09 7.896862E+07
-7.549486E+08 2.030502E+09 3.817267E+08
-4.52661E+08 1.876689E+09 3.933901E+07
-1.676575E+08 1.50746E+09 2.288768E+07
-8.219372E+08 -1.728383E+09 5396992
-1.409203E+09 -1.040121E+09 -3.604496E+07
-1.22472E+09 -1.748369E+09 -1.884774E+08
1.497528E+08 -6.069288E+08 2.052122E+07
1.096932E+08 6.806507E+08 1.127014E+07
-5.026982E+07 1.527256E+09 2112229
-2.097117E+09 -8.958769E+08 -4.839158E+08
-4.194244E+08 2.14401E+09 -1.395923E+09
-1.981715E+09 1.29178E+09 7170304
1.226699E+08 3.680419E+08 5534976
8.39168E+07 -8.887117E+08 1536221
1.224761E+09 -9.021684E+08 -5.940168E+08
-5.032523E+07 -1.886519E+09 -5.570237E+08
8.699712E+08 1.864106E+09 9966336
9.979829E+07 4.519265E+08 7589120
1.375772E+09 1.007041E+09 1787353
-2.348508E+08 -8.477736E+08 -6.684655E+08
-9.227398E+08 -1.608778E+09 4.664801E+08
-1.294518E+09 2.040332E+09 1.059507E+07
1.216877E+08 4.675233E+08 8060672
2.113971E+09 5.541209E+08 1776854
-1.207929E+09 -7.926578E+08 -7.357708E+08
6.543174E+08 2.109801E+09 2.043852E+09
9.700378E+08 1.56867E+09 7785472
1.870285E+08 3.508676E+08 5678080
1.67775E+09 3.363323E+08 1336785
1.677743E+09 -7.010385E+08 -7.926547E+08
1.543509E+09 1.806172E+09 1.322685E+09
1.792003E+09 1.44638E+09 7133696
2.19273E+08 3.544063E+08 6040320
-4.69732E+08 1.72888E+09 1509839
-1.677451E+08 -6.785596E+08 -8.250295E+08
9.563062E+08 2.093482E+09 2.128206E+09
1.456536E+09 1.117716E+09 6493952
1.032068E+08 2.35919E+08 3795712
1.509973E+09 -1.845141E+09 944859
1.375747E+09 -9.326428E+08 -5.842522E+08
-1.157624E+09 1.593967E+09 7.345254E+08
1.406933E+09 9.798943E+08 5990656
4.795833E+07 2.347405E+08 3691520
-1.962912E+09 1.828824E+09 826586
-8.220712E+08 -8.851292E+08 -6.423183E+08
4.529859E+08 2.951741E+08 7.180608E+08
1.89305E+09 8.087142E+07 532480
1.859925E+07 2.915294E+07 233984
-1.677593E+07 -6.542237E+08 82903
1.191183E+09 -8.522301E+08 -6.940257E+08
-1.157628E+09 4.58752E+07 1.775154E+09
2.321393E+08 4.35159E+07 162304
7.417432E+07 1.663527E+07 164608
6.878664E+08 -1.878679E+09 62932
1.056965E+09 -7.46455E+08 -7.35902E+08
-2.097152E+09 3.879731E+07 -3.049393E+08
-1.03669E+08 4.266394E+07 153856
1.21951E+08 1.656856E+07 167936
-1.006632E+09 -9.223274E+08 65232
1.627391E+09 -7.305953E+08 -7.808599E+08
-1.761607E+09 4.043571E+07 1.649101E+08
3.050522E+07 4.35159E+07 158720
1.344687E+08 1.702748E+07 169728
1.174406E+09 -1.895291E+09 66001
1.795163E+09 -7.029391E+08 -7.923935E+08
-1.593835E+09 4.18775E+07 1.876524E+09
2.316391E+08 4.463002E+07 167168
1.743162E+08 1.774704E+07 176640
-9.395235E+08 -4.972292E+07 71115
-1.291845E+09 -5.988024E+08 -8.838163E+08
-7.2142E+08 4.738253E+07 -2.032392E+09
7.346824E+08 4.856218E+07 192512
1.397136E+08 2.017131E+07 193280
-3.523208E+08 1.845997E+09 83146
8.220844E+08 -5.695734E+08 -9.139634E+08
-1.526726E+09 6.861619E+07 9.881782E+08
-7.754867E+08 6.763315E+07 305920
-8.861057E+07 3.255642E+07 279552
6.711014E+07 2.147031E+09 132804
8.556392E+08 -3.146383E+08 -1.006766E+09
1.845494E+09 8.690074E+07 1.156432E+09
-1.550602E+08 7.379354E+07 338944
-1.015197E+08 3.321049E+07 293376
-1.627389E+09 -4.701415E+08 126399
8.053075E+08 -2.604401E+08 -1.087047E+09
7.717524E+08 7.93641E+07 -1.997067E+09
-1.648432E+09 6.337331E+07 274176
-6.5801E+07 1.898892E+07 168192
-1.929379E+09 1.895637E+09 66495
1.677722E+09 -3.109683E+08 -1.086063E+09
3.69099E+08 3.36855E+07 -1.041311E+09
-7.592182E+08 3.289907E+07 119296
-4.646883E+07 1.341832E+07 126464
1.996489E+09 -1.275189E+09 52158
-1.073741E+09 -1.36577E+08 -1.095959E+09
-4.194302E+08 2.929459E+07 2.063303E+09
-8.430612E+08 3.191603E+07 113664
2.94247E+07 1.341848E+07 124160
1.778385E+09 1.828866E+09 52671
-1.14085E+09 -2.090598E+07 -1.086914E+09
-4.362074E+08 2.903245E+07 2.516239E+08
-8.43082E+08 3.18505E+07 113408
5.282202E+07 1.328753E+07 123392
-1.426063E+09 -1.023213E+09 52672
-1.207959E+09 1.926758E+07 -1.069285E+09
-4.02653E+08 2.903245E+07 -7.884083E+08
-8.599027E+08 3.224371E+07 113152
4784490 1.348365E+07 126720
-1.979711E+09 -1.644204E+09 52925
-1.073741E+09 -7.090995E+07 -1.117717E+09
-2.51658E+08 2.922906E+07 -1.107595E+09
-8.43177E+08 3.250586E+07 114432
-1.763042E+07 1.348369E+07 127488
-1.845489E+08 -8.556966E+08 52926
-1.02341E+09 -8.991539E+07 -1.093206E+09
-1.509947E+08 2.94912E+07 1.476025E+09
-8.430771E+08 3.309568E+07 115456
3.787848E+07 1.348407E+07 129536
1.493173E+09 -1.442706E+09 52927
-1.006632E+09 -9.194701E+07 -1.084555E+09
-5.033144E+07 2.968781E+07 -2.080744E+09
-8.095442E+08 3.355443E+07 116992
1.828301E+07 1.368049E+07 132096
-1.224736E+09 -6.207345E+08 53695
-8.220831E+08 -1.116733E+08 -1.067778E+09
3.187673E+08 3.099853E+07 3.284634E+07
-7.255537E+08 3.493069E+07 121856
4.193989E+07 1.39431E+07 137216
1.593836E+09 6.209641E+08 54721
-5.033159E+08 -2.499543E+08 -1.064697E+09
5.033167E+08 3.165389E+07 -2.131713E+09
-7.088202E+08 3.571712E+07 124160
4.207016E+07 1.387738E+07 139264
2.130707E+09 -6.709847E+08 54720
-4.362071E+08 -2.534932E+08 -1.050083E+09
5.872028E+08 3.2768E+07 -1.964039E+09
-7.255844E+08 3.584819E+07 127232
-2.877451E+07 1.400854E+07 140288
-6.878653E+08 2.180073E+08 54721
-2.348805E+08 -2.667971E+08 -1.058079E+09
6.0398E+08 3.217818E+07 -1.343186E+09
-7.087887E+08 3.591373E+07 125184
-1.809177E+07 1.407396E+07 140800
2.013266E+09 1.84503E+08 55232
-3.019893E+08 -2.728919E+08 -1.066664E+09
8.891926E+08 3.329229E+07 2.095868E+09
-6.583969E+08 3.69623E+07 130304
3.145216E+07 1.427095E+07 145152
1.375732E+09 1.996466E+09 56002
1.677779E+07 -3.228959E+08 -1.033503E+09
9.898559E+08 3.375104E+07 -9.408154E+08
-6.248166E+08 3.76832E+07 132352
2.332554E+07 1.440216E+07 147968
1.761608E+09 1.795284E+09 56259
2.516588E+08 -3.86007E+08 -1.005322E+09
1.291846E+09 3.499622E+07 1.324616E+08
-5.910671E+08 3.866624E+07 137984
7.65391E+07 1.446836E+07 151552
1.979712E+09 1.513339E+08 56773
4.19431E+08 -4.689756E+08 -9.834317E+08
1.291846E+09 3.499622E+07 -1.042003E+09
-5.742799E+08 3.846963E+07 135936
1.026881E+08 1.446827E+07 150272
1.946158E+09 -1.174091E+09 56517
3.355449E+08 -4.286054E+08 -9.597734E+08
4.362637E+08 -7.38197E+08 8.204979E+08
-8.09292E+08 -6.900918E+07 4.641434E+07
1.29689E+08 -6.082553E+08 3.071616E+07
1.426236E+09 -7.040543E+08 1.398368E+07
-1.107182E+09 -5.1177E+08 -9.394562E+08
1.660998E+09 -2.050424E+09 -1.495206E+09
1.439274E+09 -1.300889E+09 4.228634E+07
1.390592E+08 -7.5702E+08 2.904141E+07
1.275237E+09 -6.369347E+08 1.423124E+07
7.550959E+08 -6.85768E+08 -8.50851E+08
-2.013227E+09 3.494383E+08 -8.586335E+08
-9.592023E+08 1.81443E+09 3.233638E+07
1.813912E+08 1.886968E+09 2.299853E+07
-1.811818E+09 1.493852E+09 6030551
7.21513E+08 -8.834903E+08 -6.665641E+08
-5.871809E+08 -4.361417E+08 -2.117363E+09
9.873577E+08 -6.803291E+08 4.37248E+07
1.51768E+08 -6.285652E+08 4.700442E+07
-1.224454E+09 -1.039603E+09 1.613923E+07
-6.687146E+07 -8.900431E+08 -5.421775E+08
1.61069E+09 -7.210915E+08 1.305134E+09
1.490904E+09 -2.071068E+09 9.72137E+07
7.679407E+07 9.718904E+08 7.527526E+07
-1.392131E+09 -3.352139E+08 2.082941E+07
1.929673E+09 -9.969322E+08 -4.554737E+08
1.392591E+09 -1.022229E+09 -1.214515E+08
1.541589E+09 1.930691E+09 9.623066E+07
1.243068E+08 1.138288E+09 7.289088E+07
-1.392136E+09 -3.01331E+08 2.267338E+07
-1.711002E+09 -9.899198E+08 -3.167324E+08
7.717965E+08 -1.663041E+09 -2.050851E+09
-6.720494E+08 -8.773302E+08 8.965248E+07
1.516999E+08 -6.576572E+08 7.64759E+07
1.426478E+09 8.562337E+08 1.531621E+07
1.745149E+09 -1.0297E+09 -1.978505E+08
1.661005E+09 2.106263E+09 1.573085E+09
-2.047618E+09 4.189719E+08 1.092414E+08
2.219545E+08 -2.62541E+08 8.62551E+07
1.980138E+09 -1.240762E+09 1.580056E+07
-1.023072E+09 -1.091763E+09 -1.433914E+08
1.191245E+09 -2.13195E+09 -2.134778E+09
1.978846E+09 7.332826E+08 1.09046E+08
1.404933E+08 -2.053925E+08 8.661402E+07
-3.015643E+08 1.178618E+08 1.600434E+07
2.114267E+09 -1.021049E+09 -1.700642E+08
-1.509887E+09 2.056783E+09 -2.101156E+09
4.356447E+08 2.983201E+08 1.081982E+08
9.625658E+07 1.087306E+09 8.754918E+07
7.050874E+08 -1.610243E+09 1.786546E+07
223180 -1.077083E+09 -5.53768E+07
-1.845332E+08 1.075905E+09 -7.257108E+08
-8.388055E+08 -3.579575E+08 4.172851E+07
1.852991E+07 -1.138098E+09 5.281869E+07
1.459903E+09 -1.862301E+09 1.453773E+07
-3.33113E+07 -1.092222E+09 5.06589E+07
1.929442E+09 8.771348E+08 1.505631E+09
-2.046682E+09 -1.558444E+08 8.824397E+07
1.020607E+07 6.370206E+07 6.616781E+07
1.543846E+09 1.52679E+09 1.802932E+07
1.443104E+09 -1.116732E+09 4.738313E+07
-1.828707E+09 -6.910769E+08 -1.111303E+09
1.040186E+09 -1.236009E+09 1.626317E+07
5.319907E+07 1.737885E+09 2.841472E+07
-6.373774E+08 -1.50686E+08 1.440461E+07
1.510227E+09 -1.080818E+09 1.409132E+07
1.846039E+08 -1.927937E+09 1.925156E+09
-1.912568E+09 2.772195E+07 1.102595E+08
5.188822E+07 -4.594071E+08 8.340864E+07
-7.2099E+08 -1.5769E+09 2.051789E+07
-1.710964E+09 -1.072561E+09 8.427993E+07
1.174491E+08 -6.389103E+08 -2.558769E+08
1.512737E+08 1.184892E+08 2.607411E+07
2.711599E+07 -9.237285E+08 5.859994E+07
-1.023107E+09 2.080445E+09 1.34907E+07
6.042967E+08 -1.031207E+09 2.871796E+08
-6.54257E+08 1.724778E+09 -3.779916E+07
1.376416E+09 -2.858678E+08 1.072899E+08
3.130996E+07 6.513642E+08 7.965414E+07
-1.408876E+09 -2.063559E+09 7355659
-8.375983E+07 -1.053294E+09 2.520521E+08
-9.394869E+08 1.296499E+09 -1.799346E+09
-1.056215E+09 -2.046492E+09 1.03457E+08
8307623 -3.67456E+08 8.16297E+07
1.325828E+09 2.097178E+09 1.598364E+07
1.023726E+09 -1.071774E+09 1.996235E+08
4.530528E+08 1.49894E+09 2.136445E+08
1.661449E+09 1.973158E+09 3.481088E+07
2.803296E+07 9.349396E+08 1.525478E+07
9.563905E+08 8.556822E+08 5460752
-9.226579E+08 -1.05526E+09 2.483164E+08
-1.593789E+09 9.479137E+08 8.852618E+08
-1.331476E+08 -1.724055E+09 8.290432E+07
4.409032E+07 -1.498018E+09 4.181478E+07
1.577282E+09 -8.721268E+08 6193161
1.409378E+09 -1.082327E+09 1.943152E+08
1.174689E+08 1.073218E+09 -1.396657E+09
1.141739E+09 1.036126E+08 5.023846E+07
4.939794E+07 -1.71219E+09 2.804813E+07
1.71143E+09 -1.006427E+09 1.133595E+07
1.946274E+09 -1.046282E+09 1.882201E+08
1.677749E+09 -1.692991E+09 -1.048084E+08
5.375521E+08 -9.536798E+08 1.881037E+07
4.998774E+07 4.527907E+08 7267072
-1.996447E+09 1.040379E+09 1495048
-8.723898E+08 -1.05952E+09 1.373641E+08
9.395315E+08 -1.083834E+09 2.308083E+08
-1.12354E+09 -4.757258E+08 2.203187E+07
5.346153E+07 -1.812789E+09 3.539533E+07
4.02854E+08 1.848588E+08 1.386318E+07
-1.593648E+09 -1.0761E+09 9.13584E+07
-1.275011E+09 8.479711E+08 1.572859E+09
1.460223E+09 -1.64266E+09 3.832781E+07
7.554663E+07 9.755708E+08 1.52448E+07
1.375819E+09 1.896148E+09 3478023
1.962991E+09 -1.052508E+09 1.433941E+08
1.728074E+09 -1.459483E+08 -6.751672E+08
4.368374E+08 -1.551434E+09 6.385613E+07
1.04318E+08 -1.146025E+09 6.162048E+07
3.862107E+08 -8.88746E+08 1.169435E+07
6.377752E+08 -1.086455E+09 2.949298E+07
6.375708E+08 -2.974018E+08 -2.101336E+09
-5.363868E+08 1.82911E+08 2.53079E+07
9.992589E+07 9.846146E+08 1.586611E+07
1.124165E+09 1.795577E+09 5783302
-1.761517E+09 -1.074528E+09 1.241269E+08
-1.342135E+09 1.661273E+09 -1.430206E+09
9.904148E+08 4.999744E+08 7.464883E+07
1.195217E+08 -8.868307E+08 4.594074E+07
9.062319E+08 -8.719312E+08 1.438055E+07
-4.360301E+08 -1.064959E+09 8.53951E+07
-1.79515E+09 8.021624E+07 1.321182E+09
1.527126E+09 -1.807942E+09 1.424102E+07
1.075283E+08 5.801265E+08 9828864
1.677778E+09 -2.01284E+09 2971400
-1.157578E+09 -1.046544E+09 1.523729E+08
-1.627368E+09 -3.222402E+08 -4.06762E+08
2.131193E+09 -1.355677E+09 6.448666E+07
1.107397E+08 -8.193295E+08 5.120128E+07
-7.882406E+08 8.392627E+08 1.334708E+07
1.006831E+09 -1.073347E+09 1.150173E+08
-1.795152E+09 -4.433509E+08 -4143104
1.711726E+09 1.307116E+09 7535872
1.04055E+08 2.722384E+08 4614656
-3.01963E+08 4.030584E+08 1383688
1.157652E+09 -1.055261E+09 1.422801E+08
-2.852028E+08 -3.348873E+07 -1.480533E+09
-1.492776E+09 -1.001521E+09 4.394726E+07
1.099532E+08 -7.885935E+08 4.489139E+07
-2.113669E+09 9.23117E+08 1.202919E+07
1.191328E+09 -1.068564E+09 1.207843E+08
-7.717401E+08 -7.24171E+07 4.320041E+08
1.443304E+09 1.311506E+09 7483392
1.036618E+08 2.348832E+08 4139776
-1.593812E+09 3.69496E+08 1097737
1.224757E+09 -1.033306E+09 1.921528E+08
-1.442832E+09 -4.135975E+08 -3.061033E+08
-1.257965E+09 -3.692952E+08 4.411162E+07
1.16441E+08 -9.73145E+08 5.647795E+07
-1.358647E+09 1.69483E+09 1.276774E+07
-1.241326E+09 -1.075772E+09 9.850173E+07
-3.019711E+08 -1.948909E+09 1.270815E+09
4.029865E+08 1.940324E+09 1.090816E+07
9.704242E+07 2.475311E+08 4439808
1.342429E+08 -2.113536E+09 665351
8.389771E+07 -1.042678E+09 1.422145E+08
8.556398E+08 7.279739E+08 -2.134806E+09
7.721001E+08 3.700818E+08 2048256
1.189968E+08 7.484198E+07 1219840
-7.214136E+08 1.2754E+09 263935
-1.174363E+08 -1.067581E+09 6.822396E+07
2.013267E+09 2.856059E+08 1.62324E+09
-2.344927E+08 2.035548E+08 1082880
9.999182E+07 4.889164E+07 784640
1.795166E+09 5.075245E+07 193031
-1.946154E+09 -1.068827E+09 1.130512E+08
-1.962934E+09 2.863268E+08 -1.195323E+09
4.534323E+08 2.142372E+08 1136640
9.435564E+07 5.341357E+07 858112
8.724198E+08 -2.080005E+09 221190
5.704289E+08 -1.068106E+09 1.14034E+08
1.476397E+09 6.241649E+08 -1.715452E+09
-3.35113E+08 5.976228E+08 3286784
9.330701E+07 1.976583E+08 3527936
1.610632E+09 -7.378302E+08 1863942
-1.946124E+09 -1.069941E+09 1.146239E+08
-1.006271E+08 -1.21661E+09 -1.279244E+09
-1.92892E+09 -7.5871E+08 1.011113E+08
9.481434E+07 2.179747E+08 8.721357E+07
-4.525567E+08 -8.217273E+08 1.899162E+07
-1.207612E+09 -1.057618E+09 1.243887E+08
-7.381165E+08 -1.640496E+09 -1.245666E+09
-5.700416E+08 1.689453E+09 1.111294E+08
6.158784E+07 1.178144E+09 9.067904E+07
-1.979277E+09 -1.811611E+09 2.161358E+07
2.52013E+08 -1.064827E+09 1.550599E+08
-1.157543E+09 -1.596849E+09 6.300801E+07
-1.761112E+09 1.757152E+09 1.11124E+08
8.301801E+07 1.330842E+09 9.045402E+07
-2.012833E+09 5.058246E+07 2.196967E+07
1.510302E+09 -1.06817E+09 1.778E+08
1.107382E+09 -1.744764E+09 1.707109E+09
1.074517E+09 1.508246E+09 1.105938E+08
5.785208E+07 1.332874E+09 8.963968E+07
3.359759E+08 -2.11371E+09 2.205134E+07
1.459968E+09 -1.046608E+09 2.161386E+08
-2.01318E+09 -1.775959E+09 1.757516E+09
1.175289E+09 1.48734E+09 1.105139E+08
5.700031E+07 1.389236E+09 8.966477E+07
1.711708E+09 -1.711045E+09 2.224923E+07
8.559884E+08 -1.046477E+09 2.416324E+08
-1.811852E+09 -1.765932E+09 1.35485E+09
1.661897E+09 1.462829E+09 1.10551E+08
5.621396E+07 1.385828E+09 8.953318E+07
1.682039E+08 3.021895E+08 2.213122E+07
-1.979362E+09 -1.036057E+09 2.676497E+08
1.895912E+09 -1.788279E+09 -8.428961E+08
1.192228E+09 1.432814E+09 1.10508E+08
4.297581E+07 1.3701E+09 8.957184E+07
-6.667694E+07 1.275214E+09 2.216731E+07
-5.532979E+08 -1.038809E+09 2.987136E+08
-7.045558E+08 -1.711537E+09 -1.346167E+09
-6.195077E+08 1.560937E+09 1.107894E+08
2.515029E+07 1.457067E+09 9.005722E+07
-2.096719E+09 -9.562159E+08 2.253954E+07
-1.694147E+09 -1.016789E+09 3.401321E+08
-1.811851E+09 -1.675426E+09 5.328906E+08
4.711012E+08 1.63709E+09 1.109233E+08
1.813795E+07 1.529747E+09 9.034138E+07
1.812373E+09 8.38934E+08 2.282114E+07
1.426417E+09 -1.01692E+09 3.643804E+08
4.530744E+08 -1.657076E+09 -8.092623E+08
-4.851057E+08 1.608975E+09 1.10858E+08
1.335391E+07 1.513953E+09 8.960794E+07
-1.392077E+09 1.023462E+09 2.237903E+07
2.352277E+08 -1.012857E+09 3.726379E+08
-3.354575E+08 -2.053569E+09 -4.737196E+08
-5.354161E+08 4.643229E+08 1.076897E+08
1.643402E+07 1.17618E+09 7.187149E+07
2.016863E+08 1.912668E+09 1.113397E+07
7.551158E+08 -1.032126E+09 3.770944E+08
-2.684336E+08 1.975255E+08 -1.597848E+09
2.06491E+09 1.78389E+08 762880
5.057803E+07 5.905292E+07 398080
-2.516537E+08 -9.224257E+08 310290
4.362095E+08 -1.120076E+09 2.708619E+08
4.19432E+08 5.870715E+08 9.855222E+08
-1.626758E+09 2.901279E+08 3151104
7.96754E+07 1.707215E+08 1424128
9.563158E+08 -5.004064E+07 777464
-1.258284E+09 -1.03809E+09 -3.438657E+08
-3.858698E+08 -1.763115E+09 -1.244727E+09
3.105075E+07 2.114519E+09 1.30496E+07
-404301 6.727816E+08 1.060992E+07
1.375794E+09 1.476233E+09 2987986
-1.140803E+09 -6.209533E+08 -8.209702E+08
2.684486E+08 8.602257E+08 -1.881331E+09
2.985623E+08 -4.340449E+08 2.188774E+07
-1.276715E+08 9.498646E+08 1.522893E+07
-8.723286E+08 -1.41016E+09 3516358
-6.039244E+08 -2.645685E+08 -9.913013E+08
-2.130706E+09 6.730547E+07 -2.358369E+08
1.300836E+08 4.286054E+07 164864
-2.942606E+08 1.997208E+07 171520
3.187684E+08 7.874214E+08 93120
-1.509942E+08 -9.548594E+07 -1.100157E+09
-2.852124E+08 8.821146E+07 1.24102E+09
8.685315E+08 5.419827E+07 267520
-4.398235E+08 2.083288E+07 229376
-2.013256E+08 1.156618E+08 83181
-1.811938E+09 -8.606188E+08 -3.336507E+08
1.543504E+09 5.996544E+07 -4.232694E+08
1.258236E+09 5.111808E+07 290048
-4.679426E+08 2.36596E+07 185344
-7.214188E+08 1.038231E+09 101896
1.526727E+09 -9.93067E+08 1.823133E+08
-1.291845E+09 1.33759E+08 7.511839E+08
-7.542748E+08 4.476109E+07 619520
-5.284972E+08 4.155184E+07 176384
-1.845457E+08 -1.847663E+09 279042
-1.509949E+09 -8.807383E+08 -6.908403E+07
-5.704108E+08 5.851055E+08 9.026693E+08
-4.37352E+08 8.212317E+08 3.580928E+07
-6.530137E+08 -1.349064E+09 3.735782E+07
1.644405E+09 2.078009E+09 1.41857E+07
1.359157E+09 -7.775179E+08 -5.564095E+08
-1.174345E+09 2.092631E+09 9.201395E+08
1.484733E+08 -5.786805E+07 9.816166E+07
-5.126954E+08 -1.239408E+08 6.972928E+07
-7.378062E+08 9.880461E+08 1.653934E+07
9.398033E+08 -2.101069E+08 -9.822597E+08
-7.716877E+08 -3.394099E+08 6.885338E+08
5.156633E+08 -1.927479E+09 8.605363E+07
-2.810795E+08 -1.023034E+09 5.050982E+07
1.157905E+09 -5.883034E+08 1.029984E+07
8.390156E+08 4.115014E+08 -1.107825E+09
2.030079E+09 -7.307259E+08 1.981533E+09
2.976166E+08 -1.129709E+09 4.019021E+07
-3.444492E+08 1.511179E+09 2.158592E+07
-4.696445E+08 6.35967E+08 3270596
1.728089E+09 4.852288E+08 -9.721009E+08
2.013309E+08 1.597702E+09 -1.239396E+09
3.989399E+08 1.36518E+09 7932160
-2.191435E+08 3.812081E+08 5450496
2.01358E+08 1.643532E+09 1623236
7.71775E+08 5.35888E+08 -9.244508E+08
-1.459611E+09 -1.917321E+09 2.131554E+09
-1.646968E+09 1.784807E+09 1.023078E+07
3.62155E+08 5.548156E+08 7741696
5.704698E+08 -9.885919E+08 2792650
7.046817E+08 2.282621E+08 -9.122565E+08
2.113944E+09 7.504529E+08 -3.22112E+07
-2.21931E+08 -5.849743E+08 2.141926E+07
4.173393E+08 1.093454E+09 1.441306E+07
-5.703422E+08 -1.340741E+09 4290250
1.476451E+09 5.499129E+08 -9.06424E+08
3.020085E+08 1.817182E+09 1280769
4.661709E+08 -2.392056E+07 2.528102E+07
2.862659E+08 1.32958E+09 1.709619E+07
-2.09705E+09 6.389327E+08 5323208
-2.097084E+09 1.199968E+08 -9.698612E+08
-2.180833E+08 -1.839464E+09 8.396436E+08
-2.723192E+08 2.264925E+08 2.800742E+07
2.860022E+08 1.513473E+09 1.857459E+07
-3.343724E+07 1.293156E+09 6342082
-1.073665E+09 1.099699E+08 -1.046932E+09
1.778408E+09 -8.538028E+08 5.873513E+08
-3.061289E+08 -1.57614E+08 2.710144E+07
3.101817E+08 1.274069E+09 1.502643E+07
7.047436E+08 1.31001E+09 4815041
1.476451E+09 -3.735514E+07 -1.031203E+09
1.174418E+09 1.409025E+08 -1.476761E+09
-4.402107E+08 1.917518E+09 1.505587E+07
3.839085E+08 6.453832E+08 6501632
6.711421E+08 1.511429E+09 2325445
-1.879026E+09 -4.515411E+07 -9.811337E+08
6.039882E+08 -1.251279E+09 1.291564E+09
-1.815812E+09 1.205862E+09 1.124659E+07
2.896679E+08 5.27222E+08 4710912
-1.392464E+09 5.136844E+07 1972933
8.388781E+08 -9.601007E+07 -9.901794E+08
6.54318E+08 -1.703412E+09 1.779864E+09
-1.966051E+09 6.47168E+08 7795456
5.489369E+08 2.604942E+08 1781248
-8.052819E+08 -1.289624E+09 896725
9.3953E+08 5.547623E+08 -6.767159E+08
4.697652E+08 1.309999E+09 -2.128467E+09
-2.015808E+09 2.263614E+08 3990784
5.250185E+08 1.219527E+08 571904
-2.09714E+09 -6.690037E+08 408026
-1.174387E+08 6.764627E+08 -5.767733E+08
8.556397E+08 7.596933E+08 9.086546E+08
1.653118E+08 1.148846E+08 2601216
5.623748E+08 8.295864E+07 375040
1.97972E+09 2.015424E+09 306648
2.097154E+09 6.528041E+08 -6.765859E+08
1.728054E+09 4.548198E+08 -7.02197E+08
6.347425E+08 1.145569E+08 1639936
5.468411E+08 6.749068E+07 461568
-3.858699E+08 -1.709015E+09 256722
9.395263E+08 5.168169E+08 -8.099506E+08
1.476396E+09 2.174485E+08 -4.343903E+08
-5.234908E+08 2.799043E+08 748288
6.291522E+08 6.729252E+07 879616
1.811942E+09 1.294273E+09 151245
1.375734E+09 3.948544E+08 -8.820402E+08
-1.291845E+09 9.24713E+07 2.014483E+09
-1.039634E+08 1.211761E+08 344064
4.364104E+08 3.210152E+07 470784
1.006645E+08 1.294661E+09 107223
-9.227453E+08 5.63413E+08 -7.257351E+08
-1.84536E+08 -1.773403E+08 -2.060845E+09
-1.140453E+09 -8.624537E+08 2.484378E+07
4.211454E+08 1.854413E+09 1.675136E+07
-1.207845E+09 4.041693E+08 8601891
-1.123993E+09 1.002505E+09 6.607394E+08
-8.220323E+08 2.905871E+08 4.735736E+08
-1.121315E+09 -1.347027E+09 8.943872E+07
3.11702E+08 1.927949E+09 8.0064E+07
9.231581E+08 9.910114E+08 2.282833E+07
-1.778072E+09 6.066683E+08 9.329743E+08
3.355989E+08 4.634712E+08 1.309749E+09
4.568049E+08 -9.686873E+08 8.124877E+07
5.937411E+07 -1.384894E+09 8.389402E+07
1.720022E+07 2.677527E+08 2.866103E+07
-1.962609E+09 -8.448884E+08 7.134209E+08
1.828834E+09 -2.140273E+09 1.70938E+09
-7.173038E+08 4.931589E+08 1.107269E+08
9.082475E+07 -5.630696E+08 8.729216E+07
1.510387E+09 1.543817E+09 3.168748E+07
-2.009714E+08 -3.772235E+08 9.937235E+08
6.375777E+08 -1.241513E+09 1.039219E+09
-1.169565E+09 7.020874E+08 5.491123E+07
-3.879874E+07 4.682076E+08 5.243366E+07
291294 -4.026258E+08 2.070918E+07
8.05544E+08 1.618096E+08 9.687523E+08
-1.459569E+09 -1.370353E+08 1.779793E+09
-9.349112E+08 1.942028E+09 1.490509E+07
-1.433207E+08 3.839286E+08 3201280
-7.046152E+08 1.52674E+09 1068346
-8.387607E+07 2.268202E+08 8.829021E+08
-1.426046E+09 1.039008E+09 2.097601E+09
-6.013852E+08 -1.654521E+09 7.753062E+07
1.957582E+08 -2.133769E+09 7.975757E+07
1.611026E+09 6.720453E+08 2.606268E+07
1.344816E+08 2.614901E+08 1.554515E+09
3.356059E+08 2.047018E+09 -5.023329E+08
-8.844306E+08 -1.824129E+09 3.772493E+07
7.491086E+07 2.058894E+09 2.466022E+07
-3.341877E+07 -2.147104E+09 1.030251E+07
-1.711152E+09 3.27353E+08 5.833365E+08
1.241578E+09 -1.190722E+09 7.426772E+08
-1.892218E+09 7.20372E+08 9.214438E+07
-2.922771E+08 1.066414E+09 6.273715E+07
-5.533229E+08 -8.482351E+07 2.150788E+07
-6.876102E+08 6.426474E+08 6.569293E+08
3.691847E+08 -1.958018E+09 1.361653E+09
7.242849E+08 1.367278E+09 9.152973E+07
-2.490237E+08 9.952412E+08 6.650573E+07
1.912942E+09 -4.874954E+08 2.026551E+07
2.097401E+09 9.517151E+08 6.050261E+08
9.060365E+08 1.104938E+09 -1.389256E+09
-1.893439E+09 -7.446198E+08 6.863539E+07
2.773451E+07 -1.14023E+08 4.73513E+07
5.70694E+08 1.30872E+09 1.602436E+07
1.963116E+09 8.225434E+08 6.077156E+08
1.124132E+09 -1.127612E+09 -6.011011E+08
-1.438438E+07 -1.862664E+09 6.113715E+07
9.182596E+07 -4.949833E+08 4.415027E+07
-2.178608E+08 -1.056569E+09 1.549931E+07
7.216005E+08 6.088959E+08 7.309898E+08
9.228223E+08 6.564754E+08 -1.389256E+09
-6.519255E+08 -5.072483E+08 1.017441E+08
2.773451E+07 1.682253E+09 7.34167E+07
5.707971E+08 1.30872E+09 2.33544E+07
1.107587E+09 8.225438E+08 6.077156E+08
-1.392425E+09 -1.166416E+07 -6.011011E+08
9.083625E+08 -5.206177E+08 1.004639E+08
9.182596E+07 1.133848E+09 6.795008E+07
-2.177512E+08 -1.056569E+09 2.037073E+07
-1.828458E+09 6.088963E+08 7.309898E+08
4.362881E+08 1.80519E+09 6.049843E+08
-9.181476E+08 8.045203E+08 9.10167E+07
3.250626E+08 9.709309E+08 7.048909E+07
-1.778029E+09 5.045655E+08 2.057042E+07
7.049173E+08 1.432631E+08 9.597788E+08
-1.006553E+09 1.792607E+09 7.384786E+08
1.329533E+09 6.549671E+08 9.025229E+07
2.209243E+08 8.050593E+08 7.001114E+07
3.023443E+08 1.68662E+08 2.093727E+07
-1.778107E+09 2.171877E+08 9.747857E+08
1.359036E+09 -9.404319E+07 -4.184806E+08
5.575987E+08 1.327235E+09 7.29833E+07
1.44183E+08 -2.948964E+08 4.639386E+07
-1.073505E+09 7.554924E+08 1.108768E+07
5.046261E+07 2.429426E+08 1.02138E+09
-1.979684E+09 -1.340735E+09 1.544479E+09
-1.371756E+09 -3.052666E+08 2.004352E+07
6.763702E+07 9.334449E+08 1.221197E+07
-1.627329E+09 -1.660769E+09 3104573
-1.023369E+09 2.616199E+08 1.020396E+09
-2.097134E+09 1.18476E+09 9.068838E+08
-1.204385E+09 -9.317252E+08 1.803981E+07
2.550038E+08 9.242682E+08 1.331149E+07
-3.522496E+08 4.370949E+08 4708152
2.013915E+08 2.049314E+08 9.4785E+08
1.94618E+09 -2.132672E+09 -1.291109E+09
-1.489507E+09 1.68788E+09 3.058611E+07
2.003463E+08 1.734883E+09 2.215987E+07
1.29196E+09 -1.542866E+09 6535740
-6.87782E+08 2.228228E+08 1.11975E+09
-1.342151E+09 -1.374617E+09 1.47718E+09
-2.966374E+07 1.242104E+09 2.773274E+07
1.224235E+08 1.698837E+09 2.149734E+07
-8.555305E+08 1.476739E+09 6659638
-3.690146E+08 2.770211E+08 1.101857E+09
1.392535E+09 -1.569521E+09 1.527688E+09
1.833544E+09 1.20855E+09 2.752717E+07
-6.638485E+07 1.716996E+09 2.164966E+07
1.828825E+09 -1.141041E+09 6819393
6.208428E+08 2.491028E+08 1.086915E+09
5.704513E+08 -1.437859E+09 1.846561E+09
-1.539538E+09 1.153237E+09 2.76503E+07
1.184933E+08 1.676426E+09 2.136269E+07
-1.258183E+09 1.694991E+09 6392890
3.859578E+08 2.803634E+08 9.503396E+08
-9.730541E+08 -1.709703E+09 -1.525614E+09
2.385221E+08 9.441117E+08 2.666752E+07
1.555211E+08 1.578973E+09 2.026726E+07
1.728156E+09 -7.207639E+08 5999672
2.114007E+09 2.472677E+08 9.854676E+08
-1.677516E+08 1.943339E+09 -1.592698E+09
-1.137081E+09 4.86736E+08 2.481613E+07
2.523179E+08 1.502428E+09 1.95881E+07
-1.493073E+09 -1.576139E+09 5823289
-1.241438E+09 2.21381E+08 9.961505E+08
1.711298E+09 1.972372E+09 7.054899E+08
-6.838856E+08 2.852783E+08 2.386125E+07
1.772123E+08 1.363754E+09 1.815629E+07
1.761702E+09 -4.18655E+08 5570107
7.718251E+08 1.600393E+08 9.572222E+08
1.744852E+09 1.829634E+09 3.026975E+08
1.550797E+08 3.946579E+08 2.393165E+07
1.801611E+08 1.356218E+09 1.786112E+07
-3.690079E+08 -1.166538E+08 5173820
2.013335E+09 1.198657E+08 9.607611E+08
-1.526707E+09 1.512243E+09 4.534221E+08
1.295593E+09 5.079048E+07 2.264218E+07
2.134528E+08 1.307196E+09 1.741773E+07
6.879559E+08 -1.609813E+09 5182525
1.459687E+09 1.62333E+08 1.008668E+09
1.040207E+09 1.532297E+09 1.409931E+09
5.576722E+08 3.59138E+07 2.270106E+07
2.589357E+08 1.273708E+09 1.704704E+07
1.677811E+09 -7.538181E+08 5032761
1.560348E+09 1.607602E+08 9.272081E+08
-5.200742E+08 1.613497E+09 8.39543E+08
1.245189E+09 1.884161E+08 2.362163E+07
2.928835E+08 1.351695E+09 1.790182E+07
-1.878954E+09 5.211942E+08 5357883
1.761678E+09 1.641025E+08 9.87894E+08
7.382173E+08 1.685652E+09 -8.884063E+08
2.050561E+09 1.876296E+08 2.36864E+07
3.64318E+08 1.339046E+09 1.779149E+07
6.544052E+08 3.706112E+08 5248310
-1.409216E+09 2.427457E+08 9.29241E+08
-1.56026E+09 1.968702E+09 -1.391535E+09
1.312376E+09 3.60186E+08 2.456038E+07
3.877804E+08 1.338653E+09 1.786726E+07
1.744925E+09 -1.172826E+09 5045816
9.06037E+08 2.588676E+08 8.927375E+08
1.442861E+09 1.761084E+09 -1.844511E+09
-1.6574E+09 -1.360527E+08 2.227328E+07
4.060647E+08 1.138112E+09 1.533875E+07
-9.394405E+08 1.54502E+09 4717625
7.550381E+08 2.433355E+08 9.643028E+08
-1.040167E+09 1.776812E+09 -9.888346E+08
2.08394E+09 2.11026E+08 2.362906E+07
4.044269E+08 1.225602E+09 1.62752E+07
6.719475E+07 -8.037215E+08 4604471
-5.032549E+08 3.905949E+08 9.291107E+08
7.885539E+08 -1.155858E+09 -1.122758E+09
8.702979E+07 1.757479E+09 3.34441E+07
4.804494E+08 1.818113E+09 2.284877E+07
1.946284E+09 -5.182976E+08 6903606
6.719598E+07 2.905216E+08 8.901165E+08
-1.828691E+09 -7.416051E+08 1.041372E+09
1.362352E+09 1.015087E+09 2.944538E+07
4.660309E+08 1.51383E+09 1.961114E+07
-2.347715E+08 -4.678377E+08 5556023
1.124146E+09 2.65028E+08 9.293721E+08
-1.560255E+09 -5.563348E+08 1.998444E+09
4.234051E+08 1.556152E+09 3.210701E+07
4.227808E+08 1.498104E+09 1.968614E+07
1.442951E+09 -1.441171E+09 2718268
-1.341841E+08 7.003834E+08 1.077943E+09
8.389078E+07 1.584005E+09 -2.144695E+09
-7.336988E+08 8.716943E+08 6185728
4.577149E+08 3.637394E+08 4104704
1.493202E+09 2.082537E+09 1337127
-7.381825E+08 8.66255E+08 4.864186E+08
1.677729E+09 -1.419444E+09 1.209224E+08
-1.040938E+09 1.828061E+09 1.221376E+07
3.850271E+08 5.768447E+08 7865344
1.510001E+09 1.545411E+09 3249655
-8.220383E+08 -4.17464E+08 -3.724974E+08
-4.529672E+08 1.614086E+09 -1.527995E+09
1.071978E+09 3.641181E+08 2.463411E+07
5.991251E+08 1.669916E+09 2.077594E+07
-1.107191E+09 4.048059E+08 1.115902E+07
-1.795025E+09 -3.342265E+07 -3.420222E+07
-1.341524E+08 6.659126E+08 1.025321E+09
-7.363912E+08 8.762166E+08 1.039903E+08
2.565176E+08 -3.42619E+07 8.736512E+07
1.514012E+08 6.790531E+07 1.658222E+07
2.080713E+09 2.532327E+08 1.365575E+09
-1.224673E+09 4.310316E+08 4.527534E+08
-1.722855E+09 3.367898E+08 1.020774E+08
-7.954774E+08 6.032168E+08 8.51392E+07
5.54068E+08 1.170169E+09 2.828836E+07
-1.358607E+09 -8779996 1.767755E+09
-1.006615E+09 1.101923E+09 -1.576898E+09
-1.990706E+09 1.037894E+09 6589696
-5.429661E+08 3.064672E+08 3928320
1.409313E+09 -1.142468E+09 1855309
1.543528E+09 2.103721E+07 1.065218E+09
1.778391E+09 -2.116944E+09 -2.130322E+09
1.127038E+09 1.683489E+09 1.040768E+07
-1.804156E+08 5.640765E+08 7872768
-1.644119E+09 9.398141E+08 2751253
-1.342139E+09 5.232396E+08 -1.113819E+07
7.885464E+08 5.488643E+08 4.186227E+08
1.055313E+09 -6.499204E+08 1.692314E+07
5.463076E+08 7.838684E+08 1.132698E+07
7.214732E+08 1.478695E+09 3437288
3.188171E+08 3.200125E+08 -2.114758E+08
5.872159E+08 -4.033084E+08 -1.84381E+09
1.677317E+08 -1.02151E+09 1.488384E+07
3.611114E+08 8.252988E+08 1.219814E+07
4.698186E+08 -7.703915E+08 3924774
-2.13065E+09 4.38174E+08 1.483144E+09
-2.147467E+09 4.042918E+08 -1.624064E+07
1.701351E+09 -3.18636E+08 1.855795E+07
-4.646468E+08 1.140286E+09 1.591603E+07
-1.023336E+09 -2.132516E+09 4560225
4.530484E+08 1.795689E+08 1.514336E+09
-1.996471E+09 7.642156E+08 1.695071E+09
-5.657101E+08 -7.399007E+07 1.975757E+07
2.482525E+08 1.179794E+09 1.639398E+07
-7.716758E+08 -1.222892E+09 4460325
-7.884656E+08 6.009681E+07 4.220597E+08
-1.845286E+08 1.774846E+09 4.193795E+08
-1.946013E+09 7.283016E+08 2.423475E+07
5.300543E+08 1.440154E+09 1.982848E+07
9.731741E+08 2.03264E+08 6184449
-2.029956E+09 1.084625E+08 4.673546E+07
8.053293E+08 -1.3022E+09 5.878257E+08
9.734782E+08 1.00565E+09 2.670515E+07
5.633521E+08 1.37685E+09 2.00576E+07
1.68781E+07 6.931561E+07 5252889
1.107373E+09 5.177348E+08 5.349787E+08
1.526745E+09 1.297089E+09 7.558771E+08
-6.989274E+08 -2.882928E+08 1.889101E+07
2.762373E+08 9.392851E+08 1.434214E+07
2.030109E+09 3.867807E+08 3602780
1.325455E+09 1.863191E+08 1.526467E+09
1.17442E+09 8.703203E+07 -1.039555E+09
4.252611E+08 -3.523215E+08 1.806797E+07
6.56685E+07 1.068521E+09 1.638579E+07
-6.039039E+08 -1.375757E+09 4232269
3.188328E+08 -7.084411E+07 1.195113E+09
-9.059523E+08 1.367606E+09 -1.829034E+09
-7.348854E+08 3.881698E+08 2.246835E+07
2.267534E+08 1.191522E+09 1.952205E+07
1.711372E+09 -1.340863E+09 5047852
1.846348E+08 -9.705838E+07 7.182812E+08
1.342198E+09 -4.647154E+08 -1.040606E+09
6.739528E+08 1.190396E+09 2.841011E+07
5.204201E+08 1.165701E+09 2.070323E+07
-1.979604E+09 1.746928E+09 4397871
-1.04011E+09 -4.659569E+07 7.947631E+08
-8.388447E+08 -2.093285E+09 5.368899E+08
1.076724E+09 5.64134E+08 2.587418E+07
4.711373E+08 1.086206E+09 1.918976E+07
-1.123972E+09 -4.000179E+08 4314933
-2.13063E+09 -8.218174E+07 8.896625E+08
-1.442823E+09 -1.540489E+09 -8.724813E+08
4.563275E+08 1.166344E+09 2.858061E+07
5.982781E+08 1.195783E+09 2.191642E+07
4.530991E+08 1.042158E+09 4735544
-1.862183E+09 -4.902047E+07 9.643041E+08
-1.20794E+09 2.746618E+08 1.073525E+09
-2.141194E+08 -1.650262E+09 3.67977E+07
4.59472E+08 1.331379E+09 2.811878E+07
-1.258141E+09 6.225569E+08 5285179
-1.157515E+09 -6.370039E+07 9.642385E+08
-1.392488E+09 1.588724E+09 -3.693993E+08
-8.853965E+08 -1.246429E+09 3.918208E+07
5.259904E+08 1.356019E+09 2.835379E+07
1.912754E+09 1.159707E+09 5322548
-1.593725E+09 -1.252387E+08 8.466022E+08
-1.174384E+09 1.574503E+09 2.062935E+09
1.160805E+09 -1.246036E+09 3.959066E+07
6.119727E+08 1.434137E+09 2.879462E+07
-5.7027E+08 -1.239066E+09 5657391
5.873167E+08 -1.90447E+08 7.962065E+08
-7.549526E+08 2.047149E+09 1.374894E+09
2.100232E+09 -8.218214E+08 4.228019E+07
6.339918E+08 1.455632E+09 3.072179E+07
9.229142E+08 -1.652869E+08 5744430
-7.212968E+08 -2.344216E+08 7.945683E+08
1.526751E+09 2.574915E+08 -8.063959E+08
-1.943048E+09 1.176437E+09 5.363098E+07
6.324179E+08 1.747858E+09 3.981056E+07
-1.140632E+09 -2.145037E+09 7024435
1.040347E+09 -3.455049E+08 8.405743E+08
1.694527E+09 -2.122973E+09 -1.981093E+09
-6.396489E+07 -1.905918E+09 6.029542E+07
6.607939E+08 1.920151E+09 4.34007E+07
-1.073504E+09 1.797732E+09 7307053
9.229115E+08 -4.170702E+08 7.238551E+08
-1.845469E+09 4.208072E+08 1.524848E+09
1.797489E+09 6.730548E+08 5.087795E+07
6.576461E+08 1.599742E+09 3.559834E+07
-4.192349E+08 1.780945E+09 6197023
-1.895688E+09 -5.328069E+08 5.130915E+08
2.080399E+09 -4.968279E+08 1.992092E+08
1.847449E+09 1.545995E+08 4.814234E+07
6.841219E+08 1.573395E+09 3.376435E+07
-1.207774E+09 -1.406599E+09 6518811
-9.897185E+08 -5.646574E+08 4.666269E+08
5.368981E+08 -2.706582E+07 -5.559675E+08
8.238114E+08 5.396236E+08 5.021978E+07
7.11253E+08 1.804541E+09 3.54473E+07
-9.057747E+08 -7.018128E+08 6972956
-1.358818E+09 -5.716698E+08 4.76851E+08
-5.536211E+08 -2.520509E+08 6.521247E+08
1.679631E+09 2.774795E+08 4.91927E+07
7.521483E+08 1.771708E+09 3.455181E+07
-2.011348E+08 1.932317E+09 6937629
-8.555032E+08 -5.590213E+08 4.805869E+08
-1.879021E+09 -3.485855E+08 -4.887429E+08
6.561501E+08 2.381579E+08 4.892134E+07
7.513616E+08 1.806441E+09 3.442278E+07
-8.218928E+08 -6.84959E+08 7382810
-9.393891E+08 -5.760607E+08 4.417239E+08
-8.052772E+08 -3.059871E+08 1.72581E+09
-1.004926E+09 2.901935E+08 4.92969E+07
7.50575E+08 1.935088E+09 3.510067E+07
2.097347E+09 -2.319202E+08 7735065
-1.325261E+09 -5.835318E+08 4.369402E+08
4.530154E+08 2.389448E+08 -5.895391E+08
1.008283E+09 6.267209E+08 5.129856E+07
7.698422E+08 1.998527E+09 3.605734E+07
-5.534474E+08 -1.976722E+09 7807768
-6.877249E+08 -5.728494E+08 4.01944E+08
-1.459587E+09 3.146389E+08 9.876206E+08
1.209549E+09 9.093121E+08 5.298074E+07
7.753476E+08 -2.11045E+09 3.756467E+07
4.699713E+08 -1.540489E+09 8580631
-8.387134E+08 -5.85891E+08 3.894922E+08
-2.180702E+08 8.689424E+08 -3.545702E+08
9.913844E+08 1.067385E+09 5.368474E+07
7.921249E+08 -2.092624E+09 3.77577E+07
-5.869926E+08 1.932482E+09 8591382
8.222314E+08 -5.690483E+08 3.758611E+08
-1.056931E+09 9.539426E+08 1.97749E+09
-2.112475E+09 1.133511E+09 5.414118E+07
7.965814E+08 -2.137123E+09 3.79927E+07
1.761819E+09 1.731178E+09 8357654
-1.241366E+09 -5.647229E+08 3.763199E+08
-1.442808E+09 9.645594E+08 -1.814151E+09
3.504389E+07 1.204748E+09 5.427661E+07
7.985476E+08 2.083854E+09 3.840384E+07
5.370836E+08 1.876574E+08 8021015
1.795313E+09 -5.71342E+08 3.925727E+08
4.026843E+08 1.188758E+09 6.688637E+08
-1.927811E+09 1.347682E+09 5.512653E+07
7.901588E+08 2.009799E+09 3.868902E+07
7.048577E+08 -5.002284E+08 7822616
2.130857E+09 -5.562687E+08 4.056144E+08
5.369011E+08 1.142424E+09 1.373605E+09
1.947696E+09 1.277297E+09 5.451264E+07
7.820984E+08 1.969101E+09 3.83872E+07
1.512068E+08 -9.196884E+08 7774743
-1.409133E+09 -5.415231E+08 4.096777E+08
1.174711E+08 1.307575E+09 -1.142948E+09
-1.491517E+09 1.523384E+09 5.534259E+07
7.974995E+08 2.05089E+09 3.921408E+07
2.183184E+08 -1.020342E+09 8102168
1.679246E+08 -5.259256E+08 4.06335E+08
