2025-10-08 21:06:47    绿光---红外光---红光
-1.996435E+09 -2.85409E+08 9.216922E+08
2.87182E+08 9.549252E+08 3.245696E+07
-9.023693E+08 -7.697126E+08 2.052019E+07
2.685623E+08 9.359962E+08 1.377001E+07
1.392589E+09 -2.665344E+08 5.073004E+08
5.201475E+08 -2.792486E+08 5.861622E+08
3.543039E+08 9.580054E+08 3.24631E+07
-9.040077E+08 -7.72334E+08 2.051405E+07
4.0278E+08 1.13732E+09 1.373981E+07
1.493252E+09 -2.666E+08 5.086111E+08
-1.962879E+09 -2.795107E+08 6.532572E+08
1.461591E+09 1.026818E+09 3.246285E+07
-9.041388E+08 -6.82091E+08 2.074317E+07
2.350078E+08 8.688809E+08 1.395613E+07
1.543585E+09 -2.664033E+08 5.081523E+08
5.038508E+07 -2.795107E+08 2.841738E+08
-1.273083E+09 9.201912E+08 3.246285E+07
-9.047286E+08 -8.265978E+08 2.03735E+07
3.356711E+08 1.271535E+09 1.355344E+07
1.493252E+09 -2.673208E+08 5.082834E+08
6.716222E+07 -2.795763E+08 9.552494E+08
-1.071767E+09 9.549908E+08 3.24631E+07
-9.025659E+08 -7.698437E+08 2.051942E+07
2.182306E+08 8.688881E+08 1.376848E+07
1.392589E+09 -2.664033E+08 5.080868E+08
3.859297E+08 -2.799695E+08 9.049298E+08
-7.529875E+08 9.579399E+08 3.246106E+07
-9.024348E+08 -7.814435E+08 2.05184E+07
4.866661E+08 1.405757E+09 1.369219E+07
1.459698E+09 -2.664689E+08 5.089388E+08
2.684887E+08 -2.80035E+08 1.19013E+09
-2.145506E+09 9.576122E+08 3.246131E+07
-9.019761E+08 -7.809193E+08 2.051814E+07
-6.698206E+07 6.507832E+08 1.382864E+07
1.342257E+09 -2.681073E+08 5.065795E+08
3.35599E+08 -2.801661E+08 5.190482E+08
-1.79318E+09 9.572845E+08 3.246029E+07
-9.036145E+08 -6.95919E+08 2.051789E+07
5.705521E+08 1.271538E+09 1.403446E+07
1.258371E+09 -2.662067E+08 5.0848E+08
3.355978E+08 -2.832463E+08 3.344845E+08
-6.187861E+08 9.578744E+08 3.24265E+07
-9.053184E+08 -8.066749E+08 2.051942E+07
2.014531E+08 8.688773E+08 1.363331E+07
8.221637E+08 -2.671242E+08 5.071693E+08
3.020432E+08 -2.985162E+08 1.667277E+08
-4.17448E+08 9.578744E+08 3.240115E+07
-9.04532E+08 -7.792153E+08 2.051968E+07
-1.665058E+07 1.154093E+09 1.376976E+07
8.221637E+08 -2.679107E+08 5.083489E+08
3.188209E+08 -2.421552E+08 2.170552E+08
3.710701E+08 9.573501E+08 3.260493E+07
-9.054495E+08 -7.703679E+08 2.051661E+07
5.045899E+07 7.178816E+08 1.376822E+07
4.866194E+08 -2.683694E+08 5.05793E+08
2.684892E+08 -2.59981E+08 -1.688184E+08
2.871889E+08 9.568913E+08 3.247795E+07
-9.065636E+08 -7.70499E+08 2.05161E+07
1.17567E+08 8.520986E+08 1.376797E+07
6.87946E+08 -2.677141E+08 5.069727E+08
1.174943E+08 -2.91897E+08 1.834993E+08
3.039674E+08 9.568913E+08 3.244749E+07
-9.042698E+08 -7.706301E+08 2.051584E+07
5.202205E+08 1.137318E+09 1.376592E+07
1.040268E+09 -2.660101E+08 5.081524E+08
53773 -2.814113E+08 5.190546E+08
2.033141E+08 9.558428E+08 3.244774E+07
-9.044008E+08 -7.707612E+08 2.050586E+07
7.383242E+08 1.607082E+09 1.37672E+07
1.007433E+08 -2.662723E+08 5.079557E+08
-1.672344E+07 -3.330536E+08 8.71372E+08
2.368619E+08 9.455536E+08 3.232563E+07
-9.023693E+08 -7.708267E+08 2.051917E+07
4.363345E+08 1.305098E+09 1.376592E+07
1.879129E+09 -2.669276E+08 5.085456E+08
9.563551E+08 -1.692792E+08 6.70047E+08
1.697576E+08 9.93657E+08 3.289574E+07
-9.035489E+08 -7.710888E+08 2.064717E+07
4.698904E+08 1.08699E+09 1.376541E+07
7.550553E+08 -2.671898E+08 5.076281E+08
-6.374804E+08 -3.387553E+08 4.854912E+08
1.529743E+08 9.374927E+08 3.223603E+07
-9.041388E+08 -7.712199E+08 2.044723E+07
5.202197E+08 1.070211E+09 1.376489E+07
-5.025172E+07 -2.661412E+08 5.076936E+08
-1.946103E+09 -3.028415E+08 7.036045E+08
5.231687E+07 9.548597E+08 3.244416E+07
-9.039421E+08 -7.716131E+08 2.05097E+07
5.705521E+08 1.288317E+09 1.376387E+07
8.053865E+08 -2.660101E+08 5.078902E+08
1.174942E+08 -2.933388E+08 6.532662E+08
1.562263E+09 9.224849E+08 3.236403E+07
-9.036145E+08 -7.889802E+08 2.030336E+07
5.369971E+08 1.372204E+09 1.369065E+07
-1.676929E+08 -2.661412E+08 5.089388E+08
-4.361541E+08 -3.156866E+08 7.203804E+08
1.243502E+09 9.193392E+08 3.235866E+07
-9.034178E+08 -7.752176E+08 2.046874E+07
8.725419E+08 1.456089E+09 1.37951E+07
1.241594E+09 -2.680417E+08 5.067106E+08
-1.124019E+09 -2.077488E+08 1.206914E+09
3.039718E+08 1.059783E+09 3.271782E+07
-9.023693E+08 -7.433016E+08 2.084454E+07
5.369985E+08 1.456092E+09 1.382659E+07
1.007442E+08 -2.660757E+08 5.09332E+08
4.530385E+08 -2.942563E+08 1.022372E+09
-4.342188E+08 8.992196E+08 3.230669E+07
-9.020415E+08 -7.902253E+08 2.028826E+07
4.866655E+08 1.422539E+09 1.369117E+07
-1.669796E+07 -2.698768E+08 5.050067E+08
1.241567E+09 -3.107059E+08 1.055922E+09
1.042172E+09 9.163901E+08 3.235277E+07
-9.01845E+08 -7.807226E+08 2.040422E+07
4.027797E+08 1.489645E+09 1.375849E+07
8.053864E+08 -2.670587E+08 5.092009E+08
-1.442787E+09 -2.685662E+08 4.687196E+08
-3.671107E+08 9.866447E+08 3.259981E+07
-9.030246E+08 -7.346508E+08 2.080358E+07
8.401414E+07 1.019884E+09 1.387549E+07
-1.173595E+08 -2.694835E+08 5.055309E+08
-7.716985E+08 -2.882925E+08 8.042586E+08
3.553889E+07 9.641658E+08 3.259725E+07
-9.037455E+08 -8.174228E+08 2.04288E+07
2.014537E+08 1.137321E+09 1.327414E+07
4.530622E+08 -2.678452E+08 5.090044E+08
-1.291793E+09 -3.425564E+08 8.713705E+08
-7.865373E+08 7.966558E+08 3.192422E+07
-9.028936E+08 -9.275888E+08 1.942042E+07
4.363298E+08 6.172265E+08 1.196265E+07
1.761674E+09 -2.689593E+08 5.031061E+08
1.543534E+09 4.128114E+08 2.841641E+08
-8.033483E+08 -1.50333E+09 1.905997E+07
-9.064325E+08 2.00187E+09 1.078886E+07
7.382721E+08 -4.397496E+08 7915549
-1.207917E+09 -2.64503E+08 4.992394E+08
-2.097122E+09 5.914626E+08 -1.225699E+09
3.877931E+08 -1.575879E+09 1.901568E+07
-9.229475E+08 1.991319E+09 1.073766E+07
1.073817E+09 -9.766177E+08 7839260
-1.761565E+09 -3.013342E+08 4.735493E+08
-2.030013E+09 6.578506E+08 6.028577E+08
1.914437E+09 -1.494024E+09 1.945754E+07
-9.254382E+08 2.028281E+09 1.098138E+07
-1.241438E+09 9.694848E+08 7882012
-8.22041E+08 -2.87244E+08 4.709276E+08
1.006664E+09 6.646663E+08 7.874122E+08
1.998353E+09 -1.516372E+09 1.929958E+07
-9.203264E+08 2.013601E+09 1.089434E+07
5.872783E+08 -2.067194E+09 8290844
-4.361625E+08 -2.864575E+08 4.758429E+08
2.181455E+08 -2.01628E+09 2.16992E+08
-1.424177E+09 -3.989175E+08 2.568218E+07
-9.194745E+08 -1.557063E+09 1.531546E+07
-1.14075E+09 4.674994E+07 1.069289E+07
8.892522E+08 -2.985816E+08 4.729594E+08
1.241555E+09 -2.04256E+09 -5.548099E+08
2.082227E+09 -4.440718E+08 2.544768E+07
-9.194744E+08 -1.601889E+09 1.48777E+07
-2.113831E+09 1.809723E+08 1.051958E+07
9.731366E+08 -2.739401E+08 4.911784E+08
-6.710462E+08 -1.91234E+09 -2.047886E+09
-2.028125E+09 -3.474062E+08 2.587622E+07
-9.142969E+08 -1.576854E+09 1.510067E+07
-5.535485E+08 1.120502E+09 1.043792E+07
-1.929322E+09 -2.700735E+08 4.899332E+08
1.090559E+09 2.08896E+09 2.028983E+09
1.276982E+09 -5.774376E+08 2.47639E+07
-9.102337E+08 -1.645143E+09 1.489459E+07
-1.677623E+09 -2.067152E+09 1.050704E+07
-1.526667E+09 -2.721051E+08 4.939964E+08
1.644208E+09 2.147222E+09 1.257234E+09
-1.575159E+09 -5.275646E+08 2.504986E+07
-9.167873E+08 -1.63505E+09 1.471078E+07
-7.380996E+08 1.741256E+09 1.045277E+07
-1.811881E+09 -2.726949E+08 4.96749E+08
-1.711235E+09 -2.078408E+09 -1.192253E+09
1.880982E+09 -4.298505E+08 2.54743E+07
-9.120032E+08 -1.600447E+09 1.499571E+07
-1.157529E+09 2.313106E+08 1.052317E+07
-1.795104E+09 -2.703356E+08 4.879015E+08
1.761649E+09 2.146435E+09 -2.098213E+09
9.582315E+08 -4.356176E+08 2.545254E+07
-9.133139E+08 -1.58E+09 1.515597E+07
-6.877661E+08 1.556713E+09 1.05736E+07
1.426122E+09 -2.705978E+08 4.941275E+08
-9.227062E+08 2.121794E+09 -1.745894E+09
2.115852E+09 -5.811076E+08 2.471501E+07
-9.133794E+08 -1.691346E+09 1.436314E+07
-9.897599E+08 1.489601E+09 1.013225E+07
5.369268E+08 -2.723017E+08 4.945863E+08
6.711272E+08 1.813775E+09 -1.930441E+09
1.998418E+09 -6.170213E+08 2.450867E+07
-9.148212E+08 -1.652745E+09 1.469056E+07
-7.21323E+08 8.688371E+08 1.038979E+07
1.661002E+09 -2.712531E+08 4.90654E+08
7.046838E+08 2.142503E+09 1.357899E+09
-8.704907E+08 -4.659608E+08 2.524826E+07
-9.143625E+08 -1.596318E+09 1.507789E+07
1.510049E+09 -8.759839E+08 1.056848E+07
2.113988E+09 -2.757096E+08 4.894089E+08
1.69454E+09 -2.057437E+09 -1.477463E+09
-1.322845E+08 -3.989175E+08 2.558285E+07
-9.11741E+08 -1.57633E+09 1.522253E+07
-1.140751E+09 -1.530287E+09 1.061763E+07
1.661004E+09 -2.726294E+08 4.974699E+08
-6.039383E+08 -2.045706E+09 -1.175472E+09
1.662886E+09 -4.229036E+08 2.548019E+07
-9.101681E+08 -1.593894E+09 1.50807E+07
-1.912503E+09 1.942607E+09 1.056029E+07
1.023469E+09 -2.751197E+08 4.955038E+08
1.241555E+09 -2.078081E+09 -1.225795E+09
-8.201409E+08 -4.415814E+08 2.539085E+07
-9.110856E+08 -1.590027E+09 1.510298E+07
-8.723158E+08 -1.781942E+09 1.056413E+07
1.493231E+09 -2.707944E+08 4.963558E+08
9.395653E+08 -2.080112E+09 -1.225794E+09
-8.194719E+07 -4.358798E+08 2.541722E+07
-9.118721E+08 -1.596974E+09 1.505715E+07
-1.744731E+09 1.992936E+09 1.052982E+07
6.040385E+08 -2.739401E+08 4.938654E+08
2.013307E+09 -2.138439E+09 -1.511011E+09
7.06582E+08 -4.884396E+08 2.515354E+07
-9.118721E+08 -1.628824E+09 1.483776E+07
-8.219855E+08 -1.32896E+09 1.038646E+07
7.885869E+08 -2.712531E+08 4.979941E+08
2.080415E+09 2.094465E+09 -1.628448E+09
-1.440898E+09 -5.368052E+08 2.49239E+07
-9.110201E+08 -1.645339E+09 1.470925E+07
-9.226493E+08 1.758046E+09 1.037417E+07
-1.224679E+09 -2.710565E+08 4.95045E+08
1.593876E+09 2.092172E+09 1.743767E+09
1.411217E+09 -5.482085E+08 2.486374E+07
-9.15411E+08 -1.664738E+09 1.457075E+07
-9.058728E+08 1.992916E+09 1.024694E+07
1.174462E+09 -2.721051E+08 4.943241E+08
-1.375692E+09 2.035155E+09 -1.074819E+09
2.115846E+09 -5.697699E+08 2.475085E+07
-9.10758E+08 -1.668539E+09 1.456077E+07
-9.89759E+08 1.070175E+09 1.024182E+07
6.040365E+08 -2.716463E+08 4.911784E+08
-1.673761E+07 1.966605E+09 1.643104E+09
-6.520351E+07 -6.158417E+08 2.450739E+07
-9.151489E+08 -1.695737E+09 1.436979E+07
-1.308527E+09 6.339628E+08 1.014633E+07
-1.778329E+09 -2.74661E+08 4.909162E+08
1.996528E+09 1.958609E+09 2.079301E+09
1.125986E+09 -6.018825E+08 2.458086E+07
-9.163285E+08 -1.635575E+09 1.483469E+07
-1.140753E+09 1.036607E+09 1.046531E+07
1.241573E+09 -2.727604E+08 4.903919E+08
3.859164E+08 2.1079E+09 1.995424E+09
-2.161675E+08 -3.414424E+08 2.579686E+07
-9.112168E+08 -1.595073E+09 1.506355E+07
1.728152E+09 1.422508E+09 1.054083E+07
1.678308E+08 -2.768237E+08 4.839039E+08
1.007038E+08 2.093482E+09 -1.292933E+09
1.696488E+08 -4.989909E+08 2.545741E+07
-9.095129E+08 -1.426449E+09 1.579443E+07
1.442945E+09 -1.849049E+09 1.126505E+07
-3.690372E+08 -2.737435E+08 4.867875E+08
-3.858287E+08 -1.233256E+09 -1.016824E+08
-2.061692E+09 1.941178E+08 2.722278E+07
-9.222922E+08 -1.7964E+09 1.496525E+07
-1.744737E+09 -1.127692E+09 8861212
-1.761556E+09 -2.420241E+08 4.660122E+08
1.40932E+09 1.233257E+09 1.995492E+09
-1.290009E+09 -9.258925E+08 2.173082E+07
-8.545944E+08 -1.961943E+09 1.315661E+07
2.349683E+08 1.271669E+09 9877023
8.892466E+08 -3.192255E+08 5.017302E+08
-2.851732E+08 1.95317E+09 2.337452E+08
-1.407398E+09 -5.976882E+08 2.459034E+07
-9.143625E+08 -1.683809E+09 1.445862E+07
-2.515622E+08 -2.100739E+09 1.03368E+07
1.459675E+09 -2.800349E+08 4.848869E+08
-1.14081E+09 2.085356E+09 -1.813025E+09
-5.685315E+08 -6.208879E+08 2.447334E+07
-9.118066E+08 -1.710417E+09 1.423539E+07
-1.761513E+09 -2.033609E+09 1.012944E+07
6.543673E+08 -2.742678E+08 4.948484E+08
-2.684006E+08 1.318388E+09 -8.49897E+07
-7.363303E+08 -1.027604E+09 2.053478E+07
-9.247825E+08 -2.110579E+09 1.264333E+07
8.389437E+08 8.69097E+08 1.080144E+07
1.846105E+08 -3.526488E+08 5.223744E+08
1.593882E+09 -1.310785E+09 -1.259565E+09
-1.273103E+09 1.376258E+08 2.854451E+07
-9.113478E+08 -1.14602E+09 1.792666E+07
-2.08026E+09 4.829197E+08 1.272323E+07
-2.851394E+08 -2.64896E+08 4.912438E+08
1.241571E+09 6.245612E+07 9.720484E+08
2.065502E+09 1.055195E+09 3.412275E+07
-9.397897E+08 -6.040384E+08 2.022861E+07
-1.979581E+09 1.237823E+09 1.341929E+07
2.852841E+08 -2.262953E+08 4.667985E+08
3.18819E+08 -6.541801E+08 2.079511E+09
-1.995139E+08 2.221017E+08 2.978688E+07
-9.565666E+08 -7.691893E+08 2.072806E+07
9.228743E+08 -2.033788E+09 1.340265E+07
-3.354656E+08 -2.281303E+08 4.519875E+08
-2.348345E+08 -1.316094E+09 -9.908997E+08
1.948132E+09 2.849507E+08 2.975462E+07
-8.878207E+08 -1.045684E+09 1.79072E+07
-1.191065E+09 -1.614095E+09 1.148931E+07
-1.375671E+09 -2.464149E+08 4.717141E+08
2.181465E+08 -1.842544E+09 5.02454E+08
1.360657E+08 -1.765933E+09 2.060954E+07
-9.376921E+08 1.8069E+09 8168704
3.859463E+08 1.137084E+09 6476059
2.349098E+08 -1.039398E+08 4.559192E+08
1.275084E+09 -1.548484E+09 -3.524859E+08
-8.538297E+08 1.285423E+09 1.030989E+07
-9.8173E+08 1.017126E+09 5420288
1.476437E+09 -1.883274E+08 3086872
-1.50993E+09 -1.461452E+08 4.11289E+08
-1.644153E+09 -1.6635E+09 1.341478E+09
-5.182452E+08 -1.754399E+09 1.810381E+07
-9.310732E+08 2.114986E+09 1.163238E+07
1.392589E+09 -8.594184E+08 7952411
-6.207132E+08 -1.455552E+08 4.523804E+08
-4.865096E+08 4.940105E+08 -6.71798E+08
1.191541E+08 1.740767E+09 1.591066E+07
-9.825176E+08 1.264262E+09 4699648
1.224785E+09 -2.219876E+08 3422234
2.130718E+09 -5.557439E+07 3.786516E+08
-2.147473E+09 1.831076E+09 1.392388E+09
-1.223457E+09 3.525837E+08 5612288
-1.034026E+09 3.246696E+08 928256
1.895839E+09 1.274932E+07 1290254
1.610616E+09 7.857772E+07 2.019002E+08
1.493174E+09 2.259681E+08 -1.996351E+09
-4.530699E+08 8.454144E+07 700672
-1.050804E+09 4.96746E+07 326400
1.895828E+09 -1.84961E+09 173304
-1.325399E+09 -8716281 -1.241414E+08
-1.962934E+09 1.003356E+08 1.34486E+08
-1.275568E+09 7.267942E+07 304128
-1.069612E+09 2.706408E+07 277248
7.046442E+08 2.109842E+09 102643
5.200948E+08 3.879732E+07 -2.271637E+08
-9.395236E+08 7.202406E+07 6.042115E+08
-1.326195E+09 8.224768E+07 288000
-1.064107E+09 2.889871E+07 327936
2.046822E+09 -9.436828E+08 117237
-1.140849E+09 5.328077E+07 -1.775532E+08
1.577059E+09 8.133018E+07 -1.610318E+09
-1.024103E+09 8.690074E+07 303104
-1.072299E+09 2.955399E+07 341760
8.388726E+07 1.036072E+09 115960
-1.526725E+09 2.627994E+07 -9.491249E+07
5.368714E+08 7.418676E+07 1.476621E+09
-9.903637E+08 8.624538E+07 297472
-1.056702E+09 3.11271E+07 356864
-1.828715E+09 -4123899 121589
-9.059683E+08 6.95337E+07 -1.286635E+08
1.962935E+09 8.093697E+07 6.88158E+08
-7.386696E+08 8.932557E+07 310016
-1.079704E+09 2.745805E+07 297984
-1.124072E+09 8.681597E+08 108027
1.308624E+09 1.315308E+08 -1.714581E+08
1.593836E+09 8.047822E+07 -1.123325E+09
-8.898374E+08 8.716288E+07 310272
-1.068563E+09 3.021024E+07 343296
1.157629E+09 1.421918E+09 121079
-4.697607E+08 5.138023E+07 -1.282047E+08
-1.44284E+09 8.611431E+07 6.880548E+08
-1.346369E+08 9.876275E+07 345856
-1.075117E+09 3.414285E+07 403968
-1.929378E+09 -1.799362E+09 137723
-1.577057E+09 -3.263692E+07 -6.84359E+07
-3.187665E+08 1.017119E+08 -1.694626E+09
9.394116E+08 1.14688E+08 386304
-1.080951E+09 3.728964E+07 446208
1.811941E+09 1.25783E+07 153598
9.730803E+08 -7.929855E+07 -4.81197E+07
1.20796E+09 1.068892E+08 -2.013627E+09
1.862124E+09 1.255014E+08 428288
-1.07394E+09 4.030445E+07 486912
1.174421E+08 -1.212173E+09 158207
1.409288E+09 -1.150812E+08 -1.574493E+07
-3.523209E+08 1.126564E+08 1.207496E+09
-2.030047E+09 1.315963E+08 441856
-1.068239E+09 4.28605E+07 523008
-2.09715E+09 -1.799345E+09 169216
-8.388402E+07 -1.040056E+08 4898875
-5.200931E+08 1.170473E+08 -1.023753E+09
-2.113878E+09 1.313997E+08 443648
-1.07584E+09 4.181221E+07 503296
-9.395224E+08 1.975549E+09 164607
-1.140849E+09 -1.049887E+08 -5324703
-4.865386E+08 1.123287E+08 2.029574E+09
-1.912616E+09 1.327759E+08 444160
-1.066404E+09 4.338479E+07 534016
1.87905E+09 -1.178579E+09 171776
-4.194283E+08 -1.384776E+08 1.794055E+07
1.20796E+09 1.157366E+08 2.096557E+09
-1.727997E+09 1.363804E+08 445184
-1.064831E+09 4.423692E+07 536064
-1.49317E+09 2.939033E+07 170241
-1.07374E+09 -1.54796E+08 6668407
-6.71088E+08 1.104282E+08 -1.711944E+09
-1.811934E+09 1.296957E+08 425216
-1.060703E+09 4.384341E+07 512768
1.509951E+09 -1.715423E+09 171775
-1.459616E+09 -1.791099E+08 4898969
-1.14085E+09 1.104282E+08 -1.175074E+09
-1.509982E+09 1.307443E+08 442624
-1.063914E+09 4.462984E+07 524544
-1.728051E+09 -7.758938E+08 177663
-4.6976E+08 -1.778647E+08 -147246
-1.124073E+09 1.291715E+08 -1.182034E+08
3.020351E+08 1.515192E+08 520960
-1.062276E+09 5.170837E+07 594432
5.536502E+08 1.052814E+09 200450
-6.710863E+08 -2.036204E+08 2.993377E+07
-3.187663E+08 1.314652E+08 -4.034588E+08
3.524254E+08 1.499464E+08 515328
-1.056575E+09 5.275686E+07 588544
1.50997E+08 -1.967078E+09 203777
-3.019876E+08 -2.047345E+08 3.760147E+07
-9.89855E+08 1.295647E+08 1.593984E+07
2.349601E+08 1.472594E+08 503808
-1.058737E+09 5.00044E+07 563968
3.019918E+08 -1.782523E+09 191745
9.730807E+08 -2.217083E+08 1.407413E+07
1.711277E+09 1.196687E+08 4.520952E+08
-3.522586E+08 1.395261E+08 472576
-1.043664E+09 5.157688E+07 560384
-8.55636E+08 4.824563E+08 196096
-1.895823E+09 -2.040791E+08 2.855751E+07
1.845495E+09 1.23863E+08 1.593984E+07
-2.012476E+08 1.417544E+08 483840
-1.058737E+09 4.934904E+07 548608
3.019918E+08 -1.782523E+09 193025
1.627392E+09 -2.217083E+08 1.407413E+07
2.030044E+09 1.274675E+08 4.520952E+08
1.007262E+08 1.428685E+08 500736
-1.043664E+09 5.039723E+07 548608
-8.556361E+08 4.824563E+08 199680
-1.124071E+09 -2.040791E+08 2.855751E+07
1.610614E+09 1.277297E+08 7.37346E+08
1.678243E+08 1.427374E+08 505088
-1.055788E+09 5.072511E+07 553216
-2.348791E+08 1.975594E+09 198400
-1.291843E+09 -2.173829E+08 9355540
-2.080374E+09 1.317929E+08 -1.124898E+09
4.530728E+08 1.449001E+08 524032
-1.058279E+09 5.216691E+07 569344
-1.912601E+09 -1.832846E+09 204800
2.852149E+08 -2.034237E+08 1.925137E+07
6.710968E+07 1.401815E+08 -1.074557E+09
1.07382E+09 1.554514E+08 558080
-1.059393E+09 5.472278E+07 606720
-8.891903E+08 -1.950297E+09 216576
-5.368686E+08 -2.022441E+08 1.341867E+07
6.543123E+08 1.511916E+08 -1.779171E+09
1.543579E+09 1.62988E+08 608000
-1.062735E+09 5.177374E+07 580864
5.872047E+08 4.65611E+08 201985
1.76161E+09 -1.954939E+08 2.20694E+07
-1.392508E+09 1.521091E+08 -1.040952E+09
6.377005E+08 1.451622E+08 596992
-1.055264E+09 5.40678E+07 586240
-1.124071E+09 7.975858E+07 210433
1.560283E+09 -1.449656E+08 3.491438E+07
1.509958E+08 1.582039E+08 -3.529034E+08
1.124398E+09 1.54665E+08 622336
-1.064962E+09 5.45267E+07 599552
-1.744828E+09 -1.111423E+09 215039
-1.895823E+09 -1.3389E+08 2.672244E+07
3.019907E+08 1.593836E+08 2.177812E+08
1.157809E+09 1.526989E+08 630016
-1.06968E+09 5.491972E+07 596736
-1.526724E+09 -1.698681E+09 204290
-4.86537E+08 -8.847359E+07 5.228135E+07
-9.563005E+08 1.559101E+08 5.197524E+08
1.107453E+09 1.528955E+08 617216
-1.070729E+09 5.550952E+07 599552
-1.49317E+09 -1.413475E+09 216066
-1.660942E+09 -9.12261E+07 4.30408E+07
9.898566E+08 1.668547E+08 -1.694765E+09
1.409484E+09 1.521091E+08 642304
-1.077806E+09 5.596854E+07 594176
1.778387E+09 1.673573E+09 219393
-7.046407E+08 -1.038746E+08 2.763995E+07
4.194313E+08 1.637745E+08 6.371546E+08
1.342375E+09 1.509294E+08 634624
-1.072367E+09 5.550965E+07 590080
-5.704228E+08 2.642491E+08 219394
-6.375319E+08 -8.53934E+07 4.041935E+07
-6.543106E+08 1.574175E+08 3.855537E+08
1.124232E+09 1.48439E+08 618752
-1.072432E+09 5.393682E+07 571392
-5.033141E+08 1.958746E+09 214018
1.45962E+09 -8.762162E+07 3.524202E+07
3.523224E+08 1.696727E+08 7.042959E+08
-1.828572E+09 1.545339E+08 692736
-1.073678E+09 5.996603E+07 584704
-1.744828E+09 -3.397583E+08 233730
1.543506E+09 -9.116057E+07 4.520346E+07
-1.493171E+09 2.230845E+08 5.013709E+07
1.040449E+09 1.478492E+08 876288
-1.078461E+09 6.992802E+07 582912
1.325403E+09 7.968666E+07 260868
2.097154E+09 -6.599474E+07 6.145646E+07
5.368719E+08 1.972634E+08 6.372767E+08
-1.761367E+09 1.313341E+08 748800
-1.0704E+09 6.009717E+07 509440
7.382004E+08 -1.111491E+09 230658
1.27507E+09 -2.503474E+07 5.09706E+07
-1.342169E+08 1.644298E+08 5.035722E+08
3.349267E+07 1.158676E+08 625920
-1.074789E+09 5.039702E+07 446208
3.52324E+08 1.300116E+08 193535
1.895827E+09 3.49307E+07 -3.055615E+07
-4.026524E+08 1.655439E+08 -2.849971E+08
7.38116E+08 1.184236E+08 685568
-1.077214E+09 5.400154E+07 478208
6.711159E+07 -1.384082E+08 196862
-2.030041E+09 5.62299E+07 -1.528627E+07
6.71097E+07 1.705902E+08 -6.696218E+07
1.77829E+09 1.358561E+08 696832
-1.072365E+09 5.609838E+07 528128
-3.35518E+07 -1.195382E+09 226814
-1.140849E+09 8.224769E+07 3522497
1.879049E+09 1.859256E+08 1.17769E+08
2.097156E+09 1.403781E+08 706304
-1.067188E+09 5.799901E+07 545024
3.523243E+08 2.143296E+09 222719
1.258293E+09 2883594 1.184561E+07
-6.207556E+08 2.737439E+08 -3.356454E+08
2.063716E+09 1.532887E+08 1124608
-1.076298E+09 8.998147E+07 589824
-1.493168E+09 1.874838E+09 347650
-2.013264E+09 -5636080 4.140232E+07
7.046445E+08 2.827223E+08 -8.393651E+07
1.845621E+09 1.588593E+08 1111808
-1.074135E+09 9.719042E+07 649472
-1.442836E+09 1.556082E+09 400130
2.51661E+08 6357011 2.868841E+07
8.220855E+08 3.965583E+08 -2.683789E+08
-1.543302E+09 2.624061E+08 1789440
-1.07348E+09 1.678383E+08 1138176
-7.88521E+08 -1.430259E+09 719618
-8.38856E+08 5636131 4.716955E+07
-2.063594E+09 6.636831E+08 3.858634E+08
-1.996284E+09 3.251896E+08 2731776
-1.071972E+09 2.302945E+08 1170944
6.878772E+08 -5.578209E+08 847364
-2.130703E+09 -3.342332E+07 9.868095E+07
-2.013264E+09 4.897505E+08 -1.830083E+08
-3.354456E+08 1.252393E+08 1612544
-9.723511E+08 8.080573E+07 474624
-8.220788E+08 3.654196E+08 310270
-1.996487E+09 4.182508E+08 -539109
-1.962933E+09 2.974024E+08 -6.550938E+07
2.130854E+09 1.1921E+08 898560
-1.016392E+09 5.354318E+07 492544
-1.694496E+09 1.388587E+09 223999
-1.593833E+09 4.109107E+08 4899662
-1.694498E+09 3.06774E+08 -9.381422E+08
-1.17409E+09 2.550006E+08 1381888
-1.024453E+09 8.355937E+07 892928
-7.214157E+08 1.908676E+09 333568
-2.684322E+08 3.62152E+08 2.560915E+07
-1.526725E+09 3.325952E+08 2.027287E+08
4.868008E+08 2.360607E+08 1522944
-1.02157E+09 1.323179E+08 1034240
-2.080367E+09 2.143456E+09 633860
1.493177E+09 2.599813E+08 1.68936E+08
-8.891887E+08 8.605532E+08 -9.891615E+08
2.857569E+08 4.464968E+08 3261696
-1.043068E+09 2.510053E+08 1824256
-1.744817E+09 3.650296E+08 1074697
4.362156E+08 2.337014E+08 1.694605E+08
-5.368668E+08 9.319219E+08 -1.978668E+09
-1.676931E+09 4.897506E+08 3926528
-1.024586E+09 3.345649E+08 1945088
-1.677553E+08 6.502943E+08 1359377
-1.795154E+09 2.102396E+08 3.116736E+08
1.392513E+09 8.792965E+08 1.594601E+09
3.467053E+07 4.79658E+08 2982400
-1.032779E+09 2.157491E+08 1787648
2.097163E+09 1.103311E+09 756243
1.241521E+09 1.615463E+08 3.228805E+08
-1.090516E+09 7.030702E+08 -1.475792E+09
-1.139581E+09 4.283433E+08 2656000
-1.015806E+09 1.84882E+08 1676544
6.710986E+08 8.013199E+08 763923
7.046499E+08 1.208484E+08 3.358564E+08
4.697653E+08 7.570063E+08 -1.643816E+09
1.980889E+09 5.000397E+08 3078400
-1.034419E+09 2.173217E+08 1938176
-1.358943E+09 1.690454E+09 782864
-1.64416E+09 7.877431E+07 2.749732E+08
-2.684322E+08 7.286948E+08 8.056266E+08
-9.38441E+08 5.065933E+08 2892288
-1.037302E+09 2.120788E+08 1950976
-1.610602E+09 1.469471E+08 825873
-1.64416E+09 9.745207E+07 3.059719E+08
1.962937E+09 6.975652E+08 -2.080063E+09
1.645342E+09 4.624876E+08 2618112
-1.032715E+09 1.814083E+08 1739264
1.610622E+09 8.516032E+08 690194
-1.073735E+09 7.22207E+07 3.011877E+08
1.224739E+09 5.703598E+08 1.862553E+09
6.722723E+08 3.5763E+08 2077696
-1.033108E+09 1.416279E+08 1302528
-1.862264E+09 -1.195213E+09 539665
8.891976E+08 7.923306E+07 2.960759E+08
4.026551E+08 4.261151E+08 -1.174164E+09
-1.861224E+09 3.050045E+08 1692160
-1.045691E+09 1.262916E+08 1194496
-2.684289E+08 -1.883145E+09 492046
-1.577054E+09 2.601782E+07 2.359136E+08
-1.275066E+09 4.200203E+08 1.174524E+09
5.54447E+08 2.886205E+08 1600000
-1.055588E+09 1.167884E+08 1110528
-1.895819E+09 -7.087703E+08 456204
-3.858716E+08 2.457602E+07 2.174979E+08
-1.912601E+09 4.135977E+08 -2.012145E+08
8.732164E+08 2.93929E+08 1615104
-1.058209E+09 1.208515E+08 1146368
-4.86533E+08 7.508365E+08 472332
-1.912598E+09 2.942569E+07 2.026867E+08
1.711278E+09 4.111729E+08 -2.347725E+08
5.04122E+08 2.889482E+08 1589760
-1.057226E+09 1.186234E+08 1121792
-1.476389E+09 1.992358E+09 457484
-6.207526E+08 2.765622E+07 2.091092E+08
4.697638E+08 4.013425E+08 -7.716355E+08
-2.005164E+08 2.874409E+08 1568512
-1.060241E+09 1.168538E+08 1124352
-2.852065E+08 7.172803E+08 456460
-1.006589E+08 3.460303E+07 2.043251E+08
1.207961E+09 4.045538E+08 -4.360732E+08
3.027937E+08 2.916352E+08 1591040
-1.058668E+09 1.18951E+08 1142528
2.013328E+08 1.052829E+09 466188
1.677726E+09 3.244034E+07 2.066844E+08
1.862273E+09 4.090757E+08 -7.380849E+08
4.873497E+08 2.925527E+08 1599232
-1.059848E+09 1.191477E+08 1140736
-5.871964E+08 -2.101291E+09 464908
1.426068E+09 3.047426E+07 2.091092E+08
1.560283E+09 4.078306E+08 -5.031985E+08
3.363627E+08 2.914386E+08 1592832
-1.058078E+09 1.186889E+08 1138432
-7.885229E+08 1.623257E+09 458764
1.509993E+08 3.014658E+07 2.093058E+08
2.030045E+09 3.792568E+08 -3.85761E+08
-1.995671E+09 2.752512E+08 1474304
-1.058406E+09 1.083998E+08 1060096
-6.207513E+08 -1.262427E+09 423436
8.38865E+08 4.010806E+07 2.074708E+08
5.200953E+08 3.709338E+08 -3.521536E+08
1.795914E+09 2.696806E+08 1445632
-1.061027E+09 1.077443E+08 1056768
1.090525E+09 -1.027555E+09 419595
3.355854E+07 3.794537E+07 1.927252E+08
-2.01325E+08 3.660841E+08 -9.897147E+08
1.376483E+09 2.656829E+08 1422592
-1.061879E+09 1.062368E+08 1046016
6.54317E+08 -2.000639E+09 417803
-5.704212E+08 3.591375E+07 1.925941E+08
1.84551E+08 3.674604E+08 -1.040032E+09
1.846229E+09 2.724987E+08 1448192
-1.0607E+09 1.086615E+08 1070592
5.536538E+08 1.472248E+09 423691
1.056969E+09 3.578268E+07 1.920698E+08
-9.898541E+08 3.62283E+08 -1.30848E+09
9.067376E+08 2.605056E+08 1398272
-1.062273E+09 1.026323E+08 1007616
-2.852073E+08 1.388358E+09 396299
-1.140847E+09 3.748661E+07 1.903659E+08
3.523231E+08 3.448504E+08 -1.14071E+09
-1.334954E+08 2.517893E+08 1340928
-1.060896E+09 9.961746E+07 982016
5.033686E+07 -4.739136E+08 389130
1.677725E+09 3.56516E+07 1.839433E+08
1.325402E+09 3.486515E+08 -1.627258E+09
3.362288E+08 2.581463E+08 1371136
-1.063059E+09 1.02501E+08 1014784
3.858813E+08 1.841341E+09 402442
5.368749E+08 3.70934E+07 1.777174E+08
-1.895824E+09 3.550085E+08 -1.509799E+09
6.046765E+08 2.612265E+08 1388032
-1.062076E+09 1.029598E+08 1019648
1.291851E+09 -5.242447E+08 402442
7.382015E+08 3.787983E+07 1.836812E+08
-1.946156E+09 3.539599E+08 -1.493017E+09
6.046904E+08 2.615542E+08 1386240
-1.06319E+09 1.03222E+08 1023232
1.073747E+09 6.166039E+08 403211
9.395281E+08 3.919055E+07 1.834846E+08
-1.543502E+09 3.556639E+08 -1.241351E+09
6.718044E+08 2.627994E+08 1390080
-1.061289E+09 1.034186E+08 1028608
1.996494E+09 7.973683E+07 403979
1.040191E+09 4.148431E+07 1.866303E+08
-2.852111E+08 3.608412E+08 -1.30847E+09
1.376456E+09 2.707292E+08 1429248
-1.062207E+09 1.070231E+08 1064192
8.556436E+08 7.843768E+08 421131
7.717561E+08 3.643804E+07 1.873512E+08
1.744832E+09 3.736207E+08 -7.716012E+08
1.930122E+09 2.740716E+08 1456640
-1.059716E+09 1.079407E+08 1070080
1.610618E+09 1.522586E+09 422155
9.22751E+08 3.919055E+07 1.971161E+08
1.191184E+09 3.710648E+08 -7.716022E+08
1.678485E+09 2.723676E+08 1443072
-1.060437E+09 1.076131E+08 1070592
1.593841E+09 -4.235763E+08 420107
4.697662E+08 4.207414E+07 1.944291E+08
1.392511E+09 3.708682E+08 -9.561452E+08
1.762367E+09 2.736783E+08 1447424
-1.060831E+09 1.074165E+08 1067008
1.207965E+09 -1.782529E+09 420875
4.697662E+08 3.735554E+07 1.959364E+08
1.358956E+09 3.709338E+08 -1.174255E+09
1.728822E+09 2.742026E+08 1451776
-1.061289E+09 1.078097E+08 1076224
1.761613E+09 -2.034182E+09 422411
1.174409E+09 3.978038E+07 1.940359E+08
1.778387E+09 3.730964E+08 -1.02326E+09
1.89659E+09 2.747269E+08 1454336
-1.061224E+09 1.086617E+08 1075200
1.040193E+09 -1.631535E+09 428555
1.493176E+09 4.076342E+07 1.955432E+08
-2.080373E+09 3.757179E+08 -1.123931E+09
-2.113149E+09 2.75841E+08 1462272
-1.060306E+09 1.086617E+08 1076736
1.409292E+09 -9.604393E+08 422667
1.375736E+09 4.010806E+07 1.975749E+08
-2.147482E+09 3.75849E+08 -9.561492E+08
-2.12994E+09 2.778726E+08 1473536
-1.060372E+09 1.095791E+08 1092864
8.891982E+08 -1.748969E+09 427787
-1.811935E+09 3.879734E+07 1.997376E+08
2.030045E+09 3.74997E+08 -8.554698E+08
2.097929E+09 2.76693E+08 1465344
-1.059389E+09 1.087272E+08 1078272
1.644173E+09 -1.295979E+09 423435
1.090523E+09 4.063234E+07 1.970506E+08
1.442842E+09 3.721134E+08 -5.367201E+08
1.87982E+09 2.744648E+08 1454080
-1.05893E+09 1.080063E+08 1070336
7.717576E+08 -1.346316E+09 418827
5.03358E+07 3.676572E+07 1.965263E+08
-1.694497E+09 3.560571E+08 -1.040046E+09
3.86638E+08 2.579497E+08 1372928
-1.061748E+09 1.025012E+08 1010432
1.342231E+08 -1.346319E+09 399114
-5.033126E+08 3.846965E+07 1.789626E+08
-5.033012E+07 3.429499E+08 -1.543343E+09
-5.025944E+08 2.456289E+08 1313792
-1.06319E+09 9.601301E+07 936960
1.392514E+09 1.824563E+09 373258
1.677725E+09 3.683125E+07 1.604159E+08
-4.362062E+08 3.115581E+08 2.063728E+09
1.426729E+09 2.289172E+08 1198336
-1.06378E+09 9.083523E+07 913152
1.677769E+08 -2.09344E+07 362760
2.348847E+08 3.499624E+07 1.587119E+08
-1.67772E+09 3.247964E+08 -2.063463E+09
-1.358318E+09 2.469396E+08 1283328
-1.06378E+09 9.693026E+07 978944
1.77839E+09 -1.887014E+08 389385
1.912607E+09 4.004252E+07 1.777174E+08
-1.224735E+09 3.276145E+08 -1.241366E+09
-1.475717E+09 2.454323E+08 1272832
-1.062797E+09 9.516092E+07 962048
1.140856E+09 2.059443E+09 373770
-1.744827E+09 3.584821E+07 1.804044E+08
-5.200922E+08 3.306947E+08 -1.862126E+09
-1.190472E+09 2.492989E+08 1289216
-1.064107E+09 9.53576E+07 964864
1.241519E+09 1.589681E+09 368650
1.291849E+09 3.925608E+07 1.724745E+08
-1.593834E+09 3.238134E+08 -1.677568E+09
-1.693845E+09 2.441216E+08 1261312
-1.06378E+09 9.358796E+07 947456
1.946162E+09 1.052807E+09 365834
6.375379E+08 4.22052E+07 1.75096E+08
-1.744829E+09 3.230925E+08 -1.945996E+09
-1.492484E+09 2.479227E+08 1270784
-1.064828E+09 9.483325E+07 966656
1.996494E+09 1.132851E+08 368138
1.157632E+09 4.325378E+07 1.646102E+08
-1.409285E+09 3.227648E+08 -1.593676E+09
-1.643494E+09 2.462188E+08 1262080
-1.064107E+09 9.38501E+07 956416
1.946162E+09 -1.54766E+09 365833
8.220873E+08 4.305717E+07 1.652656E+08
-1.627389E+09 3.228959E+08 -2.029867E+09
-1.660261E+09 2.46612E+08 1267456
-1.064959E+09 9.411243E+07 961536
-1.375727E+09 1.740674E+09 365322
1.006637E+09 4.567861E+07 1.672972E+08
-1.811938E+09 3.225682E+08 -1.560115E+09
-1.744156E+09 2.460221E+08 1262592
-1.064042E+09 9.385018E+07 960000
2.030048E+09 2.978327E+08 366346
7.21424E+08 4.082895E+07 1.674938E+08
-1.644166E+09 3.206676E+08 -1.946005E+09
-1.945493E+09 2.438595E+08 1245696
-1.064894E+09 9.293268E+07 952064
1.879053E+09 1.052807E+09 363274
2.013303E+08 4.115663E+07 1.681491E+08
-1.744829E+09 3.198157E+08 -1.442675E+09
-2.062938E+09 2.422866E+08 1239808
-1.062338E+09 9.208068E+07 941824
-1.006628E+09 1.220583E+09 360970
-3.858723E+08 4.318824E+07 1.699186E+08
-1.97971E+09 3.190292E+08 -1.89566E+09
-1.911947E+09 2.449736E+08 1250304
-1.064304E+09 9.280154E+07 952320
2.013271E+09 -1.383741E+08 361737
-2.013229E+08 4.207413E+07 1.680181E+08
-1.795161E+09 3.193569E+08 -1.694336E+09
-2.096515E+09 2.426798E+08 1240576
-1.064173E+09 9.194953E+07 940544
1.862276E+09 1.803904E+08 358666
-8.891888E+08 3.96493E+07 1.716225E+08
1.543505E+09 3.152282E+08 -1.878885E+09
2.064254E+09 2.403205E+08 1227776
-1.064238E+09 9.168738E+07 933888
-1.728049E+09 -3.397038E+08 356617
-1.509946E+09 4.030466E+07 1.737852E+08
-2.013265E+09 3.16801E+08 -1.811775E+09
2.030685E+09 2.43073E+08 1234176
-1.064959E+09 9.116312E+07 949248
1.409291E+09 -1.719311E+08 357129
-3.69095E+08 3.866626E+07 1.653966E+08
-1.459616E+09 3.178496E+08 -1.929224E+09
2.081012E+09 2.451702E+08 1238016
-1.064566E+09 9.175286E+07 944128
1.795167E+09 -9.269046E+08 358409
-9.898521E+08 4.082894E+07 1.672316E+08
1.258293E+09 3.137208E+08 -2.09699E+09
1.846118E+09 2.378301E+08 1216256
-1.06568E+09 9.096647E+07 931584
7.382022E+08 -5.074793E+08 356873
-1.476391E+09 3.945269E+07 1.651345E+08
1.560282E+09 3.142451E+08 -2.130543E+09
1.980356E+09 2.417623E+08 1230080
-1.065746E+09 9.175295E+07 945408
1.040192E+09 5.327066E+08 356874
-1.224733E+09 3.978037E+07 1.695254E+08
1.409288E+09 3.134587E+08 -2.063446E+09
1.678359E+09 2.404516E+08 1228544
-1.065156E+09 9.037664E+07 941312
2.013271E+09 -7.59134E+08 352009
-1.073738E+09 3.919054E+07 1.662486E+08
1.291847E+09 3.133932E+08 -2.063449E+09
1.829361E+09 2.398618E+08 1223168
-1.065156E+09 9.37845E+07 950272
1.795167E+09 -1.296006E+09 376329
-1.12407E+09 4.05668E+07 1.64217E+08
-1.140849E+09 3.163423E+08 -1.727903E+09
-1.559635E+09 2.451702E+08 1235712
-1.064304E+09 9.214614E+07 948736
1.660949E+09 -1.245673E+09 355337
-7.046394E+08 4.076341E+07 1.615955E+08
1.660946E+09 3.150971E+08 1.879201E+09
1.611254E+09 2.397962E+08 1224960
-1.066074E+09 8.893485E+07 928512
1.694504E+09 -1.480556E+09 345353
-1.795159E+09 4.076341E+07 1.67035E+08
1.325401E+09 3.129999E+08 -1.862113E+09
1.930037E+09 2.414346E+08 1227008
-1.064566E+09 9.16219E+07 945664
1.59384E+09 -5.745828E+08 357129
-1.24151E+09 4.082894E+07 1.629063E+08
1.342179E+09 3.126723E+08 -1.878889E+09
1.779024E+09 2.395996E+08 1219328
-1.064632E+09 9.037666E+07 937472
-1.677717E+09 -7.255757E+08 351497
-1.610609E+09 4.266395E+07 1.672972E+08
1.795164E+09 3.141796E+08 -1.811779E+09
1.779026E+09 2.423521E+08 1229056
-1.06437E+09 9.12941E+07 944384
1.660949E+09 -1.816099E+09 361225
-1.509946E+09 3.971483E+07 1.627752E+08
1.224738E+09 3.123446E+08 -1.979553E+09
-1.257657E+09 2.407137E+08 1221888
-1.064173E+09 9.56195E+07 942336
-1.996484E+09 -6.752443E+08 368649
-1.392505E+09 4.154984E+07 1.672972E+08
1.711277E+09 3.138519E+08 -2.029879E+09
1.728687E+09 2.413691E+08 1225984
-1.064894E+09 9.063878E+07 943104
1.426068E+09 -9.101315E+08 354313
-1.442837E+09 3.96493E+07 1.636271E+08
1.342179E+09 3.12279E+08 -2.06344E+09
1.762244E+09 2.39403E+08 1217280
-1.064501E+09 9.070433E+07 935424
2.063602E+09 -5.410248E+08 355081
-1.627386E+09 4.187752E+07 1.655277E+08
-1.929378E+09 3.165389E+08 -2.113772E+09
2.097794E+09 2.434662E+08 1233408
-1.065287E+09 9.162181E+07 945920
1.946162E+09 -1.665107E+09 357129
-1.258287E+09 4.023912E+07 1.6153E+08
1.543505E+09 3.128689E+08 2.08053E+09
1.795797E+09 2.399928E+08 1219072
-1.065222E+09 9.076986E+07 935936
1.996493E+09 -3.229261E+08 354825
-1.778381E+09 4.207413E+07 1.682147E+08
-1.761606E+09 3.169321E+08 -2.080219E+09
2.114575E+09 2.441216E+08 1235968
-1.06509E+09 9.168738E+07 946688
1.795167E+09 -1.128233E+09 355849
-1.627386E+09 4.115662E+07 1.627752E+08
1.073743E+09 3.107062E+08 -1.979553E+09
1.711913E+09 2.388787E+08 1210368
-1.06509E+09 9.07699E+07 936448
-2.130702E+09 4.823823E+08 355082
2.046824E+09 4.14843E+07 1.711638E+08
-1.744829E+09 3.178496E+08 -2.147315E+09
-2.146847E+09 2.453668E+08 1251584
-1.064697E+09 9.208054E+07 953088
-2.147479E+09 -1.648325E+09 359945
2.684392E+08 4.096002E+07 1.622509E+08
-1.694497E+09 3.197501E+08 2.097313E+09
-2.146847E+09 2.447114E+08 1245440
-1.06568E+09 9.221164E+07 953088
2.030048E+09 3.313846E+08 360458
-7.717482E+08 4.122216E+07 1.694598E+08
-1.593834E+09 3.162767E+08 -1.979555E+09
-2.046154E+09 2.454979E+08 1236480
-1.064435E+09 9.253938E+07 958208
1.929385E+09 -2.558159E+08 360457
-7.885254E+08 4.102555E+07 1.696565E+08
-2.013265E+09 3.160801E+08 -1.895666E+09
2.114593E+09 2.443182E+08 1236992
-1.061814E+09 9.221172E+07 954624
-2.08037E+09 5.327196E+08 359946
-5.536444E+08 4.115662E+07 1.69722E+08
-1.946156E+09 3.16801E+08 -1.996328E+09
2.081025E+09 2.43925E+08 1233920
-1.064828E+09 9.14908E+07 945408
1.660949E+09 1.132805E+08 354570
-1.778381E+09 4.05668E+07 1.675593E+08
1.39251E+09 3.117548E+08 -1.996329E+09
1.795815E+09 2.407137E+08 1215744
-1.063845E+09 9.044224E+07 934400
-1.627385E+09 7.972992E+07 352266
1.879052E+09 4.154984E+07 1.675593E+08
1.459619E+09 3.115581E+08 2.114087E+09
1.728699E+09 2.41238E+08 1216256
-1.065222E+09 9.129418E+07 947200
1.979716E+09 -1.212118E+09 358153
-8.220799E+08 4.017358E+07 1.636927E+08
-1.845492E+09 3.15818E+08 -2.130551E+09
1.997129E+09 2.437284E+08 1232640
-1.064042E+09 9.194952E+07 954624
1.845499E+09 -7.25578E+08 360969
-4.865355E+08 3.958376E+07 1.632339E+08
-1.660943E+09 3.167355E+08 -2.046658E+09
-2.096498E+09 2.443837E+08 1235712
-1.065353E+09 9.221167E+07 953856
1.577063E+09 -8.804736E+07 360457
-5.704216E+08 3.886286E+07 1.659864E+08
-1.778383E+09 3.165389E+08 -1.979555E+09
2.131352E+09 2.443837E+08 1235712
-1.064501E+09 9.214619E+07 954880
1.795167E+09 3.649416E+08 359946
-6.039761E+08 3.958376E+07 1.66183E+08
-1.962933E+09 3.160146E+08 2.080528E+09
2.081028E+09 2.441216E+08 1234688
-1.065222E+09 9.208064E+07 953088
1.375737E+09 1.971668E+08 358922
-7.885254E+08 3.96493E+07 1.693288E+08
-2.147482E+09 3.152282E+08 -1.96278E+09
1.946817E+09 2.43073E+08 1230592
-1.064042E+09 9.149082E+07 948224
1.409291E+09 1.803884E+08 356362
-1.107293E+09 3.925608E+07 1.684113E+08
1.979713E+09 3.144417E+08 1.963088E+09
1.963587E+09 2.426798E+08 1227520
-1.065877E+09 9.188403E+07 949760
1.308628E+09 -1.887122E+08 360713
-1.107293E+09 3.846965E+07 1.664452E+08
-2.046819E+09 3.144417E+08 -1.895669E+09
-2.146832E+09 2.434662E+08 1228800
-1.064763E+09 9.240829E+07 951552
1.577063E+09 -6.249167E+08 360201
-1.056961E+09 3.978037E+07 1.657898E+08
1.6945E+09 3.137864E+08 -2.113778E+09
1.930032E+09 2.426798E+08 1231360
-1.064828E+09 9.175294E+07 955648
1.325405E+09 -3.229279E+08 360969
3.35582E+07 4.213967E+07 1.671661E+08
-6.710872E+08 3.209298E+08 -1.526565E+09
-1.844843E+09 2.508063E+08 1260544
-1.063583E+09 9.417778E+07 987136
1.694504E+09 6.501565E+08 372234
-2.080371E+09 3.978037E+07 1.745717E+08
3.355459E+08 3.424911E+08 -1.610463E+09
-8.318496E+07 2.704015E+08 1345024
-1.062469E+09 1.010593E+08 1061376
1.006638E+09 -1.048087E+08 392970
-2.130702E+09 3.860072E+07 1.89645E+08
1.610614E+09 3.323986E+08 -8.554916E+08
-1.005897E+09 2.558525E+08 1290496
-1.060634E+09 1.005351E+08 1058560
2.684407E+08 -4.403584E+08 398347
-1.023406E+09 4.240181E+07 1.860405E+08
4.697636E+08 3.434086E+08 -1.342048E+09
2.692095E+08 2.732196E+08 1355776
-1.0607E+09 1.027634E+08 1077504
-7.549694E+08 1.489028E+09 400139
-1.073738E+09 3.05398E+07 1.883343E+08
4.529864E+08 3.453747E+08 -5.367662E+08
-8.315424E+07 2.641756E+08 1327616
-1.0607E+09 1.005351E+08 1032960
-1.526722E+09 1.656797E+09 389899
4.529888E+08 2.870479E+07 1.922664E+08
-9.898542E+08 3.406561E+08 -1.526614E+09
-3.012708E+08 2.653553E+08 1335296
-1.062273E+09 9.928978E+07 1033216
-1.442835E+09 -3.564685E+08 387594
1.342181E+09 2.903247E+07 1.874168E+08
-1.37573E+09 3.405251E+08 -1.14074E+09
-3.683661E+08 2.626028E+08 1329408
-1.062469E+09 1.002074E+08 1039360
-6.543062E+08 4.152765E+08 396811
-1.275064E+09 3.060533E+07 1.831569E+08
1.946159E+09 3.943301E+08 -1.00652E+09
1.292559E+09 3.309568E+08 1651968
-1.061093E+09 1.331066E+08 1393152
-1.845487E+09 2.05948E+09 556300
1.778391E+09 2.405174E+07 2.255588E+08
9.89858E+08 5.120983E+08 1.459747E+09
-4.688254E+08 3.967549E+08 2005760
-1.049952E+09 1.499502E+08 1565952
-1.358947E+09 1.791068E+09 597007
1.375738E+09 3.375107E+07 2.600964E+08
-1.006607E+08 5.796004E+08 -9.729784E+08
1.024447E+09 4.600627E+08 2307584
-1.041498E+09 1.752475E+08 1831168
-2.046811E+09 -9.603576E+08 701712
-1.023403E+09 2.496925E+07 2.83755E+08
-6.039768E+08 6.637486E+08 7.88629E+08
1.376842E+09 4.442685E+08 2512384
-1.035731E+09 1.710534E+08 1024768
-9.7307E+08 7.676746E+08 534293
-1.375729E+09 -3669990 3.606285E+08
-2.51657E+08 3.145728E+08 1.182705E+08
1.073975E+09 1.996882E+08 1505792
-1.018033E+09 9.476505E+07 706816
2.113934E+09 -1.212021E+09 365059
1.023413E+09 1.941832E+08 1.096911E+08
1.157629E+09 2.768241E+08 1.349476E+08
1.426573E+09 1.586627E+08 695296
-1.049425E+09 4.941646E+07 531456
-1.644165E+09 -5.447474E+07 173318
-4.194285E+08 1.497498E+08 7.816812E+07
-1.375731E+09 9.922151E+07 4.3666E+08
-4.361488E+08 9.463398E+07 308992
-1.089141E+09 3.250795E+07 379392
-1.124072E+09 -1.094762E+09 106504
-9.730773E+08 1.104937E+08 -1.122266E+07
1.157628E+09 5.688525E+07 -3.299584E+07
1.509882E+09 6.239027E+07 199168
-1.073872E+09 2.011855E+07 201216
1.509956E+08 1.468623E+08 81144
-7.885283E+08 -2.031616E+07 -1.478E+08
-1.275068E+09 8.493466E+07 3.348744E+08
2.146952E+09 6.737101E+07 236544
-9.164578E+08 2.797787E+07 307200
-7.717509E+08 -1.216957E+08 89331
9.730794E+08 1.654784E+08 -4.003107E+08
1.493173E+09 5.020058E+07 4.369618E+08
7.193679E+08 5.039718E+07 189696
-1.011482E+09 1.899957E+07 186624
2.852134E+08 -1.16043E+09 88563
9.059706E+08 2.105672E+08 -2.800441E+08
1.342178E+09 5.183898E+07 -7.711416E+08
1.022657E+09 5.269094E+07 193280
-9.35785E+08 2.024685E+07 201216
-2.684347E+08 -3.401879E+08 75755
-1.275068E+09 2.133852E+08 -4.589008E+08
1.191183E+09 4.069786E+07 -1.224296E+09
-1.879841E+07 3.67657E+07 154880
-1.156906E+09 1.617923E+07 136448
-1.191182E+09 -5.444941E+07 63968
1.056965E+09 6.95337E+07 -5.218788E+08
9.395244E+08 4.42368E+07 -7.042289E+08
6.515244E+07 3.466854E+07 153088
-9.196634E+08 1.637774E+07 134912
2.046821E+09 -6.409999E+08 65513
-1.375731E+09 1.574175E+08 -4.233152E+08
5.033167E+08 4.508877E+07 -5.695818E+08
-5.220615E+07 3.552051E+07 175104
-8.656618E+08 1.631291E+07 134400
1.92938E+09 1.356389E+09 65009
-7.717514E+08 1.722941E+08 -2.879761E+08
1.342178E+09 4.9152E+07 4.869379E+08
2.842838E+08 4.174643E+07 210944
-9.154057E+08 1.847815E+07 166912
-6.039789E+08 -9.601882E+08 72182
1.728054E+09 1.02826E+08 -2.393257E+07
-1.090519E+09 5.885133E+07 -2.079962E+09
7.719162E+08 5.105254E+07 249600
-8.799508E+08 1.913654E+07 184576
1.291847E+09 -1.615064E+09 75002
-1.509949E+09 5570563 -4.222426E+07
3.355474E+07 6.579815E+07 2.114116E+09
1.308502E+09 5.47881E+07 280320
-1.015216E+09 2.470471E+07 226048
-1.728052E+09 1.33862E+09 83704
-1.241513E+09 9.437184E+07 -4.759244E+07
-1.006624E+08 1.567621E+08 -2.029855E+09
1.761098E+09 2.207252E+08 985344
-1.529675E+09 1.93307E+07 154112
-2.130705E+09 -1.246801E+09 105216
-9.730774E+08 1.582039E+08 -4.379619E+07
-2.51658E+08 5.269094E+07 5.208102E+08
-2.032321E+08 2.981888E+07 164608
-1.223423E+09 1.617927E+07 117504
-1.677715E+08 1.203536E+09 76010
-1.308622E+09 1.652818E+08 -2.386967E+08
6.71089E+08 6.691226E+07 -4.855749E+08
1.458639E+09 3.964928E+07 306688
-9.771377E+08 2.49649E+07 176896
-1.459616E+09 1.606656E+09 90091
-2.516576E+08 3.261727E+08 -3.77765E+08
-6.207567E+08 7.484211E+07 6.045156E+08
1.575413E+09 6.619136E+07 292096
-6.519447E+08 2.279252E+07 183040
1.442842E+09 -3.729991E+07 148142
-2.013265E+09 5.262541E+08 -1.143294E+09
-8.220824E+08 2.40255E+08 -6.361114E+08
1.406099E+09 1.999503E+08 1050624
-1.4003E+09 6.722982E+07 503552
1.862274E+09 8.332869E+08 200418
-6.207551E+08 4.416471E+08 -2.688506E+08
-1.459618E+09 4.849664E+07 -4.176338E+08
-2.032539E+08 3.919053E+07 154112
-1.748165E+09 1.597745E+07 146944
1.728054E+09 1.100247E+09 61626
1.92938E+09 6.277693E+08 -1.082551E+09
-1.677719E+08 4.194304E+07 9.585779E+08
2.991233E+08 4.377805E+07 188160
-2.036198E+09 1.94604E+07 203008
3.187678E+08 1.133124E+09 61707
572 -1.445069E+08 3.31585E+08
1.510011E+08 1.241252E+09 -1.166272E+08
1.357185E+09 1.936916E+09 7367168
-4.723723E+08 8.866928E+08 1.108941E+07
-3.35098E+07 1.105616E+09 3606236
-1.006185E+08 6.76856E+08 -6.07131E+08
1.174538E+08 -1.548419E+09 -1.054509E+09
7.693548E+08 -1.466761E+09 1.056051E+07
-4.053963E+08 9.893223E+08 1.240448E+07
6.543592E+08 -8.407091E+08 4626137
1.862328E+09 6.311119E+08 -6.99604E+08
6.711107E+08 1.896615E+08 -1.189139E+09
2.317998E+08 -6.398279E+08 1.342387E+07
-4.514047E+08 1.270731E+09 1.561088E+07
5.20152E+08 -1.66306E+09 4822734
1.32546E+09 5.933631E+08 -8.637063E+08
1.442859E+09 -6.117783E+08 -1.071129E+09
-6.074012E+08 -3.717857E+08 1.413658E+07
-3.056495E+08 1.144507E+09 1.459251E+07
-6.374827E+08 -1.225975E+09 4168391
-1.844958E+08 6.507071E+08 -9.688239E+08
-8.386021E+07 1.72943E+09 1.461603E+09
-1.211799E+09 1.721107E+09 2.777677E+07
-3.355375E+08 1.053476E+09 1.51529E+07
-5.367964E+08 -1.96366E+09 2025416
-7.213904E+08 4.769712E+08 -9.137037E+08
-7.046403E+08 9.3474E+08 -2.062119E+09
-1.714907E+09 1.390674E+08 1167360
1.197388E+08 2.187346E+07 156160
-1.224736E+09 -1.475947E+09 57279
6.710938E+07 1.580073E+08 -9.666532E+08
5.368712E+08 3.401318E+07 -2.130353E+09
-5.069732E+08 3.420979E+07 131328
4.3123E+08 1.545209E+07 147200
1.509955E+08 1.71316E+09 65226
1.325401E+09 -1.330381E+07 -8.463889E+08
-1.694499E+09 3.945267E+07 6.711852E+08
1.475715E+08 4.561306E+07 165632
6.556243E+08 2.305522E+07 274688
-1.325399E+09 2.066586E+09 151763
1.358957E+09 7.464551E+07 -6.017382E+08
1.006634E+09 2.660106E+08 9.896643E+08
-1.596016E+09 2.190213E+08 1022976
8.839487E+08 5.294418E+07 755200
4.026565E+08 -3.32311E+08 241880
-1.811936E+09 -1.187512E+08 -6.805138E+08
1.677723E+09 3.962962E+08 1.09002E+09
6.181715E+08 3.820749E+08 1963008
8.5865E+08 1.11008E+08 1620736
9.898641E+08 -1.238131E+09 449241
-1.174339E+08 -2.424176E+08 -6.539051E+08
9.395261E+08 6.513623E+08 9.896643E+08
9.848326E+07 5.049549E+08 2618880
8.839487E+08 1.385997E+08 2030080
4.026637E+08 -3.32311E+08 557528
-1.375724E+09 -1.187512E+08 -6.805138E+08
-1.07374E+09 7.750943E+08 1.09002E+09
9.70493E+08 5.827461E+08 3203072
8.5865E+08 1.585872E+08 2340352
9.898691E+08 -1.238131E+09 624601
1.426073E+09 -2.424176E+08 -6.539051E+08
-1.509929E+08 8.021606E+08 -6.549975E+08
3.498404E+08 4.516741E+08 2662400
8.773281E+08 1.112707E+08 1659136
-1.677626E+08 -8.689615E+08 412635
-1.10729E+09 -1.306132E+08 -5.9833E+08
-6.375327E+08 5.522063E+08 2.008515E+08
-4.720893E+08 3.680502E+08 2060544
8.646147E+08 9.469051E+07 1363456
-3.690912E+08 2.015641E+07 334557
1.862276E+09 -1.854668E+08 -5.97151E+08
1.728054E+09 3.14966E+08 -2.35657E+08
-1.126352E+09 2.197422E+08 1188608
7.883942E+08 5.707278E+07 799744
7.382015E+08 -1.80885E+09 195804
-9.227441E+08 -2.10305E+08 -5.964965E+08
1.342178E+09 1.407713E+08 7.374828E+08
1.574681E+09 1.409024E+08 540160
8.619271E+08 3.590448E+07 500736
-1.97971E+09 1.04362E+09 123100
-2.181021E+08 -8.77527E+07 -6.139283E+08
1.157628E+09 5.872026E+07 1.930194E+09
2.136635E+08 6.219366E+07 310016
3.135928E+08 2.147826E+07 297216
1.795164E+09 3.866563E+08 104379
-3.187656E+08 2.228879E+08 -1.145632E+09
-9.059692E+08 1.888092E+08 -1.375224E+09
1.908314E+09 1.459487E+08 960512
1.401833E+08 5.503331E+07 751872
1.962939E+09 4.533484E+08 269502
-4.36204E+08 7.864322E+07 -1.059061E+09
-1.811938E+09 4.556063E+08 -1.425859E+09
-1.480429E+09 2.338324E+08 1283328
1.18359E+08 6.630644E+07 641792
-1.174371E+08 1.02382E+09 284862
5.368736E+08 2.319976E+07 -1.112801E+09
-2.030042E+09 2.796421E+08 -5.870912E+08
-8.79406E+07 2.527724E+08 1341440
2.408455E+08 1.079878E+08 1111808
1.660951E+09 -6.6336E+07 379840
-1.493168E+09 4.574415E+07 -1.062007E+09
1.644168E+09 4.150395E+08 9.734956E+08
1.338264E+09 2.627338E+08 1616128
3.646448E+08 9.193101E+07 1055744
6.710949E+08 1.343557E+09 358851
-3.019857E+08 1900567 -9.54788E+08
-2.046819E+09 3.688366E+08 1.409245E+09
-1.379577E+09 2.438595E+08 1270528
4.450554E+08 7.58101E+07 925696
-1.526722E+09 -1.484365E+07 293061
-2.013262E+09 6291474 -9.4489E+08
-9.059677E+08 5.355602E+08 -3.187218E+08
6.333494E+07 3.562537E+08 2237952
5.113778E+08 1.123138E+08 1320960
-1.459609E+09 1.19348E+08 410053
-9.562959E+08 -4.109104E+07 -9.85785E+08
-2.080373E+09 5.208146E+08 -8.56161E+08
1.288116E+09 3.090022E+08 1872128
4.80967E+08 9.828868E+07 1323520
-1.862263E+09 5.72138E+08 492481
-1.241507E+09 -9.850057E+07 -1.010952E+09
-1.124071E+09 8.146125E+08 -8.560947E+08
-9.601004E+08 4.825416E+08 3202048
4.771661E+08 1.865665E+08 1838080
-7.046308E+08 -7.025467E+08 756934
1.073749E+09 -4.54164E+07 -9.715632E+08
-9.898526E+08 7.731282E+08 2.029438E+09
-4.567444E+08 4.536402E+08 2971392
4.715943E+08 2.157952E+08 1820160
5.368824E+08 9.247191E+08 789960
7.382049E+08 -1.311375E+08 -9.262781E+08
1.828719E+09 7.030702E+08 -1.040809E+09
5.497157E+08 3.508797E+08 2030080
4.331249E+08 7.79725E+07 1199360
8.891992E+08 -1.273406E+09 292549
-7.717476E+08 -1.890713E+08 -9.727444E+08
8.388708E+07 3.415081E+08 1.408543E+09
-1.530503E+09 2.224947E+08 1198336
4.236871E+08 5.136552E+07 727808
2.01327E+09 -1.827996E+08 182213
3.187696E+08 -1.577451E+08 -9.9378E+08
-1.912602E+09 1.91103E+08 -6.884613E+08
1.002683E+09 1.290404E+08 655872
3.498292E+08 2.888561E+07 375296
8.220853E+08 -6.70015E+08 109249
7.214217E+08 -1.718354E+08 -1.039135E+09
2.030044E+09 1.998848E+08 -1.443619E+09
5.327073E+08 1.890714E+08 1602304
2.397934E+08 8.85227E+07 659968
1.895833E+09 -5.023462E+08 417471
9.227503E+08 -1.593835E+08 -1.012002E+09
4.865429E+08 1.544421E+09 -2.029507E+09
-9.438277E+08 8.355185E+08 7085056
2.216455E+08 4.394668E+08 6325760
1.610655E+09 1.86314E+09 3731390
8.221503E+08 5.139337E+08 -9.718314E+08
1.17461E+08 1.209598E+09 -9.201068E+08
2.48407E+08 8.66255E+08 5.117952E+07
-3.933366E+08 -1.901736E+09 4.658432E+07
1.761857E+09 -9.740188E+08 1.109473E+07
9.732905E+08 1.004275E+09 -9.068217E+08
3.188258E+08 9.741937E+08 5.923638E+08
-4.87275E+08 -1.62136E+09 7.988762E+07
6.725818E+07 -9.880283E+08 5.63095E+07
-9.895633E+08 7.044885E+08 1.380501E+07
3.357881E+08 8.237233E+08 -7.322365E+08
1.174461E+09 1.210254E+09 -1.823823E+08
1.22179E+09 3.641838E+08 9.160909E+07
-4.999028E+08 -6.878772E+08 6.64384E+07
1.006981E+09 -1.277193E+09 9840851
-9.729065E+08 2.015241E+08 -7.030143E+08
1.509976E+09 1.156383E+09 -1.493389E+09
-5.894607E+08 -9.964748E+08 4.1664E+07
-5.695004E+07 -2.073302E+09 3.322445E+07
8.054915E+08 2.350316E+08 9483767
-1.173041E+08 7.320379E+08 1.710718E+07
-1.87901E+09 4.289337E+08 1.614235E+09
1.895333E+09 1.438581E+09 5.955635E+07
-2.377482E+08 -1.124343E+09 4.023245E+07
-1.274826E+09 -1.004778E+09 1.491631E+07
-1.023226E+09 1.61992E+09 -9.087773E+08
-8.220188E+08 2.290492E+08 -1.270458E+09
-2.035953E+09 1.678312E+09 8.571981E+07
8.741999E+08 -7.76193E+07 5.790643E+07
-1.610281E+09 2.017139E+09 1.352848E+07
-1.996297E+09 8.922737E+08 -1.356975E+09
-6.542856E+08 -3.427529E+08 4.896957E+08
-2.062932E+08 1.593836E+09 3.127219E+07
5.424516E+08 1.689303E+09 2.460416E+07
5.705578E+08 1.897349E+09 6097861
1.342266E+09 1.364464E+08 -7.584441E+08
1.677724E+08 4.528538E+07 -1.153873E+09
1.304336E+09 4.705485E+07 438528
5.26795E+08 1.952765E+08 2369024
-3.522995E+08 4.729043E+08 8457119
-6.709996E+08 4.658305E+08 -1.770705E+09
-3.354652E+08 -1.684922E+08 5.209853E+08
1.133445E+09 5.126228E+08 4.814848E+07
6.030643E+08 1.742638E+09 2.093414E+07
2.517643E+08 2.704364E+08 3137680
-8.220424E+08 3.742108E+08 -1.269163E+09
3.355637E+08 -1.811415E+09 -6.007068E+08
6.724882E+08 -1.552482E+09 4.278144E+07
-1.440368E+08 -1.74895E+09 3.213286E+07
-1.476199E+09 -3.197719E+08 1.27153E+07
-1.442679E+09 5.769144E+08 5.664871E+08
4.866034E+08 8.003265E+08 -6.1906E+08
-1.811039E+09 -8.722184E+08 9.738394E+07
-4.514701E+08 -4.442037E+08 6.56384E+07
7.889085E+08 8.303134E+07 1.585614E+07
1.51021E+09 4.886379E+08 2.713143E+08
-2.683823E+08 3.774229E+08 -1.879741E+09
6.39615E+08 1.526858E+09 1.025139E+08
-4.191086E+08 -7.936303E+08 7.35401E+07
5.876045E+08 -1.661986E+09 1.366226E+07
4.36497E+08 -5.191091E+08 1.154745E+09
7.885823E+08 6.636842E+08 -1.511414E+09
1.381913E+09 1.949172E+09 1.034811E+08
3.060464E+08 -8.956537E+08 7.480243E+07
2.114333E+09 -1.273968E+09 1.337841E+07
-9.392421E+08 -4.641244E+08 1.653346E+09
8.556913E+08 1.81312E+09 -5.203348E+08
1.581758E+09 -1.798701E+09 8.933094E+07
1.301548E+08 -8.341165E+07 5.805696E+07
-5.365196E+08 1.426085E+09 1.717561E+07
1.344366E+08 2.418414E+07 8.369583E+08
8.395077E+07 -8.644118E+07 7.048573E+08
-3.32471E+08 3.083471E+08 8.159667E+07
-2.525095E+08 -3.289132E+08 4.900813E+07
1.141153E+09 -8.0643E+08 1.263749E+07
-5.017406E+07 -2.182251E+07 9.317209E+08
1.543548E+09 -2.117074E+09 4.864443E+08
-6.172941E+08 -1.312751E+09 6.584218E+07
-1.412961E+08 -3.242662E+07 5.72759E+07
-2.513262E+08 -1.493959E+09 1.749356E+07
-1.190948E+09 -6.573124E+07 9.387345E+08
1.275137E+09 1.634927E+09 -2.014331E+09
-1.305122E+09 -1.020723E+09 9.604224E+07
-2.548762E+08 8.449062E+07 6.335539E+07
-1.677341E+09 1.189992E+09 1.536135E+07
-1.660699E+09 -3.867264E+08 1.134949E+09
-8.052519E+08 -9.554484E+08 5.523302E+08
1.849517E+09 -1.547043E+09 9.65568E+07
-2.863319E+08 -7.872664E+08 6.106317E+07
-4.022759E+08 -1.695878E+09 1.387271E+07
-5.366319E+08 -3.784034E+08 1.073999E+09
8.053615E+08 -9.477151E+08 -5.216435E+08
-1.036282E+09 -1.569915E+09 9.741184E+07
-2.674585E+08 -5.124763E+08 6.095693E+07
1.849307E+08 -2.131729E+09 1.45982E+07
6.734942E+07 -4.512139E+08 1.021899E+09
-8.052523E+08 -5.562686E+08 -9.74505E+08
-3.48715E+08 -1.046872E+09 9.829248E+07
-2.142426E+08 -8.180723E+08 6.322637E+07
2.017107E+08 1.240552E+09 1.361388E+07
2.351279E+08 -3.510093E+08 9.350632E+08
1.174459E+09 -6.009642E+08 1.54204E+09
1.916317E+09 -9.621338E+08 9.838797E+07
-2.884952E+08 -7.767181E+08 6.339021E+07
1.258676E+09 -2.864062E+08 1.384633E+07
-1.492924E+09 -3.366569E+08 9.745156E+08
-1.509895E+09 -4.195605E+08 -1.410407E+09
1.882872E+09 -6.556875E+08 9.916595E+07
-3.306331E+08 -7.049556E+08 6.474394E+07
-8.552505E+08 -1.427469E+09 1.407929E+07
1.795416E+09 -1.919534E+08 9.937165E+08
8.221387E+08 -2.891438E+08 -2.131393E+09
-1.723943E+09 -4.274911E+08 9.969101E+07
-3.744748E+08 -6.597344E+08 6.547328E+07
-1.341788E+09 -1.645721E+09 1.41049E+07
-2.130451E+09 -9.738498E+07 1.042278E+09
4.865942E+08 -4.757904E+08 1.17447E+09
-1.841691E+09 -6.301284E+08 9.818496E+07
-4.745454E+08 -6.052758E+08 6.354048E+07
1.309002E+09 -2.132591E+09 1.475103E+07
-8.386147E+08 1.644313E+08 8.61266E+08
-4.864804E+08 -1.143537E+09 -3.850737E+08
4.730997E+08 -1.408893E+09 9.537946E+07
-4.43151E+08 -1.929904E+08 6.1024E+07
1.610983E+09 9.378345E+08 1.637535E+07
-1.157391E+09 2.696821E+08 8.815185E+08
1.140917E+09 -2.112618E+09 7.226816E+08
5.740068E+08 2.066219E+09 9.144218E+07
-2.916955E+08 8.449018E+07 5.763482E+07
2.016797E+08 4.016533E+08 1.708857E+07
-1.593613E+09 4.014094E+08 9.460741E+08
1.593902E+09 1.191576E+09 1.22639E+09
2.050551E+09 1.369637E+09 8.765747E+07
-1.947665E+08 -7390994 5.475149E+07
2.016628E+08 -1.661614E+09 1.644985E+07
-1.039978E+09 4.310971E+08 9.728794E+08
-1.996428E+09 -1.339883E+09 -1.488819E+07
-1.690819E+09 -5.02792E+08 7.556122E+07
-1.195959E+08 -6.069802E+08 4.600013E+07
1.661224E+09 -9.567337E+08 1.321452E+07
-1.157463E+09 4.83329E+08 9.393915E+08
1.023459E+09 -1.173684E+09 -1.575126E+09
1.781993E+09 1.179648E+09 5.918797E+07
-5.858138E+07 -1.472776E+09 3.606835E+07
8.410416E+07 1.677593E+09 1.040134E+07
-6.877318E+08 5.21995E+08 9.269408E+08
2.684716E+08 -7.5078E+08 -1.105308E+09
-1.774704E+09 -7.484865E+08 4.619213E+07
-5169606 -2.054932E+09 2.99031E+07
1.679476E+08 -2.080345E+09 8352312
5.202063E+08 5.029895E+08 9.583988E+08
-1.677407E+08 2.065892E+09 6.394934E+08
-1.75794E+09 -1.715339E+09 3.960192E+07
-2548410 1.830304E+09 2.545741E+07
-1.660799E+09 -1.342159E+09 6783032
1.375827E+09 4.844427E+08 9.486337E+08
-1.560258E+09 -5.104596E+08 -7.699072E+08
-1.489473E+09 1.261306E+09 3.124915E+07
1.79638E+07 1.513765E+09 2.164019E+07
1.510071E+09 1.073812E+09 5883194
6.879502E+08 4.413199E+08 9.713092E+08
2.181267E+08 -6.180042E+08 -1.860553E+09
-3.988846E+08 1.287062E+09 3.139584E+07
7805512 1.51737E+09 2.19991E+07
1.343414E+08 1.224764E+09 5983289
-1.174318E+09 4.2972E+08 9.665906E+08
-1.375707E+09 1.637748E+08 -1.22301E+09
-1.623621E+09 1.943143E+09 3.546266E+07
1.573526E+07 1.788754E+09 2.504704E+07
-3.521785E+08 7.885875E+08 7433529
8.725177E+08 4.40468E+08 9.601027E+08
-1.442809E+09 2.019427E+09 1.528476E+09
-1.539742E+09 -9.193389E+08 4.463667E+07
2.320668E+07 -1.924712E+09 3.160909E+07
-1.576874E+09 1.963013E+09 9909305
3.356754E+08 4.774305E+08 9.585953E+08
1.459658E+09 6.491346E+08 -1.457617E+09
-2.093476E+09 5.804525E+08 5.409946E+07
3.23172E+07 -1.626654E+09 3.498394E+07
1.174612E+09 -7.379935E+08 1.026105E+07
-4.528497E+08 5.352988E+08 9.371654E+08
1.660985E+09 5.951985E+08 -8.032699E+08
5.739891E+08 3.770288E+08 5.315379E+07
8331168 -1.618791E+09 3.512038E+07
-1.341969E+09 -5.368379E+08 1.078892E+07
-1.895684E+09 5.153104E+08 9.220262E+08
-6.710404E+08 -1.102577E+09 1.176395E+09
1.698107E+09 2.007302E+09 6.366259E+07
-2.240555E+07 -9.802736E+08 4.22761E+07
6.042331E+08 1.073621E+09 1.365484E+07
1.124248E+09 4.917176E+08 9.213702E+08
2.181581E+08 5.252717E+08 -9.208781E+08
-1.959304E+09 -1.25449E+09 6.931021E+07
-2.260254E+07 -7.034492E+08 4.590899E+07
1.705123E+07 1.442708E+09 1.427487E+07
-1.761423E+09 5.057424E+08 9.066899E+08
