2025-07-21 15:25:48    绿光---红外光---红光---X轴---Y轴---Z轴
48644 302674 326070 2218 15949 -2839
48535 302550 326010 2231 15950 -2817
48440 302461 325970 2201 15944 -2868
48371 302425 325947 2185 15927 -2902
48320 302410 325950 2204 15942 -2895
48295 302428 325961 2201 15964 -2921
48284 302444 325968 2191 15968 -2946
48280 302473 325992 2158 15960 -2971
48287 302513 326013 2138 15953 -2972
48313 302532 325997 2135 15949 -2942
48339 302525 325987 2135 15945 -2942
48361 302508 325974 2121 15944 -2959
48370 302505 325968 2113 15936 -2959
48368 302508 325956 2115 15943 -2938
48368 302521 325958 2104 15959 -2948
48362 302498 325941 2110 15943 -2972
48368 302509 325942 2141 15916 -2949
48383 302511 325935 2145 15916 -2923
48406 302532 325943 2124 15933 -2934
48431 302558 325962 2109 15950 -2954
48458 302597 325999 2092 15953 -2963
48490 302651 326017 2088 15942 -2964
48526 302705 326055 2100 15941 -2949
48564 302731 326077 2112 15950 -2955
48605 302772 326088 2105 15953 -2970
48646 302826 326105 2108 15954 -2974
48688 302874 326139 2142 15934 -2948
48729 302900 326143 2153 15928 -2924
48771 302966 326171 2135 15955 -2939
48814 302998 326204 2120 15968 -2951
48851 303067 326230 2112 15967 -2952
48892 303096 326251 2114 15963 -2949
48939 303157 326277 2120 15950 -2939
48978 303215 326310 2132 15945 -2928
49017 303268 326331 2126 15954 -2939
49066 303306 326346 2108 15963 -2969
49145 303274 326300 2126 15943 -2951
49198 303184 326233 2140 15920 -2939
49180 303067 326145 2123 15939 -2975
49112 302912 326048 2111 15968 -2970
49014 302754 325942 2117 15982 -2943
48906 302643 325892 2112 15956 -2940
48809 302545 325841 2092 15926 -2957
48735 302510 325825 2092 15929 -2955
48688 302477 325804 2097 15961 -2932
48662 302464 325804 2093 15987 -2937
48647 302477 325791 2133 15960 -2928
48635 302491 325804 2112 15978 -2948
48646 302488 325801 2093 15985 -2942
48677 302461 325787 2087 15980 -2914
48700 302415 325785 2089 15957 -2893
48722 302334 325719 2087 15946 -2890
48744 302236 325640 2081 15969 -2876
48760 302137 325560 2068 15986 -2879
48766 302001 325478 2054 15980 -2911
48746 301912 325392 2068 15971 -2884
48710 301795 325284 2059 15978 -2894
48647 301672 325111 2060 15979 -2884
48589 301537 324914 2070 15958 -2869
48523 301357 324648 2064 15963 -2852
48446 301174 324378 2052 15981 -2843
48381 301013 324172 2042 15974 -2854
48322 300858 324010 2042 15963 -2850
48216 300701 323717 2056 15970 -2856
48146 300550 323490 2022 15991 -2849
48094 300420 323289 2014 15984 -2859
48029 300287 323075 2003 15968 -2877
47964 300183 322888 1981 15967 -2877
47944 300105 322763 1969 15978 -2865
47919 300093 322676 1955 15984 -2867
47895 299984 322534 1907 15982 -2899
47833 299880 322345 1859 15976 -2940
47778 299757 322173 1848 15987 -2945
47741 299694 322071 1850 16005 -2928
47755 299657 322049 1820 16033 -2912
47755 299644 322006 1787 16053 -2927
47748 299492 321810 1804 16042 -2941
47736 299239 321593 1847 16000 -2881
47701 299001 321452 1872 15975 -2826
47638 298789 321369 1847 15966 -2824
47583 298632 321392 1811 15945 -2835
47557 298527 321469 1801 15959 -2847
47536 298494 321562 1798 15992 -2879
47501 298513 321631 1798 16015 -2897
47490 298534 321695 1784 16013 -2876
47512 298524 321770 1781 15992 -2859
47534 298538 321830 1799 15994 -2873
47556 298597 321898 1827 15996 -2846
47580 298650 321953 1862 15993 -2802
47608 298651 321971 1877 15991 -2807
47629 298680 321993 1882 15994 -2810
47636 298679 321972 1865 16005 -2807
47619 298630 321911 1837 16000 -2819
47594 298569 321852 1835 16004 -2861
47585 298569 321852 1844 16034 -2835
47587 298582 321877 1878 16016 -2816
47603 298603 321906 1902 15999 -2814
47636 298617 321939 1911 15996 -2820
47656 298616 321931 1905 15999 -2817
47671 298642 321927 1902 16000 -2802
47672 298647 321900 1878 15992 -2804
47674 298629 321829 1859 15973 -2839
47670 298619 321798 1870 15980 -2859
47687 298637 321776 1847 16011 -2814
47714 298657 321769 1855 16003 -2864
47741 298708 321779 1874 15999 -2879
47782 298777 321823 1893 15997 -2877
47833 298849 321898 1895 15992 -2880
47873 298895 321915 1880 15990 -2873
47890 298918 321893 1843 15995 -2882
47916 298909 321852 1815 16000 -2880
47934 298910 321803 1823 16009 -2873
47972 298920 321795 1816 16014 -2869
47998 298971 321826 1807 16014 -2875
48029 299029 321827 1825 16013 -2907
48078 299012 321800 1878 16015 -2893
48135 298883 321683 1932 16014 -2821
48121 298703 321519 1926 15997 -2809
48058 298497 321377 1905 15982 -2840
47946 298326 321261 1906 15991 -2825
47825 298186 321174 1903 16014 -2812
47697 298064 321078 1912 16020 -2826
47586 297985 320979 1917 16010 -2833
47507 297937 320943 1897 15998 -2826
47480 297941 320958 1890 15988 -2814
47470 297943 320993 1904 15979 -2788
47442 297972 320987 1908 15977 -2767
47412 297977 320959 1907 15983 -2766
47423 297974 320926 1915 15999 -2782
47445 297956 320919 1909 16017 -2779
47444 297931 320888 1874 15988 -2769
47428 297911 320869 1871 15960 -2773
47403 297875 320823 1900 15968 -2746
47362 297859 320783 1909 15979 -2721
47341 297857 320761 1909 15994 -2735
47342 297883 320812 1915 15998 -2747
47355 297931 320866 1925 15994 -2757
47362 297960 320895 1923 16002 -2783
47358 298015 320909 1927 16011 -2799
47361 298063 320929 1930 16009 -2807
47378 298115 320961 1884 15988 -2810
47403 298188 321011 1865 15982 -2816
47435 298260 321079 1896 15995 -2835
47447 298319 321098 1913 15972 -2806
47453 298362 321083 1931 15993 -2819
47471 298400 321104 1940 16003 -2806
47494 298463 321133 1955 15999 -2794
47503 298529 321150 1954 15982 -2791
47513 298606 321167 1932 15979 -2796
47533 298680 321208 1899 15985 -2800
47565 298732 321241 1874 15993 -2793
47584 298775 321246 1884 16004 -2792
47598 298835 321252 1888 15995 -2798
47630 298881 321266 1895 15983 -2805
47686 298878 321260 1931 15989 -2782
47723 298798 321170 1959 15990 -2738
47699 298680 321079 1949 15980 -2754
47634 298513 320986 1926 15983 -2805
47524 298396 320912 1911 16017 -2820
47353 298249 320763 1865 16028 -2844
47188 298121 320610 1832 16022 -2890
47065 298042 320506 1847 16035 -2914
47002 298036 320510 1823 15984 -2811
46994 298059 320566 1852 15994 -2792
47009 298126 320667 1889 16006 -2819
47034 298203 320791 1918 15998 -2832
47050 298265 320818 1950 16003 -2813
47076 298292 320838 1973 16006 -2783
47102 298287 320838 1963 15980 -2787
47114 298276 320816 1942 15952 -2771
47100 298248 320779 1959 15943 -2756
47090 298251 320800 1973 15935 -2770
47075 298248 320799 1964 15946 -2763
47036 298225 320752 1970 15980 -2775
47021 298248 320762 1991 15981 -2801
47020 298288 320802 2007 15962 -2786
47013 298336 320821 2011 15970 -2781
47001 298349 320787 2005 15991 -2805
46980 298370 320745 1989 15996 -2833
46985 298415 320776 1960 15989 -2854
47026 298449 320814 1947 15992 -2859
47082 298499 320898 1965 16003 -2873
47122 298524 320919 1974 15987 -2842
47135 298540 320918 1980 15968 -2800
47164 298553 320930 1998 15971 -2804
47207 298605 320966 2008 15974 -2814
47243 298640 321002 2009 15974 -2823
47266 298694 321036 2002 15977 -2831
47287 298757 321061 1977 15989 -2849
47304 298782 321062 1918 16001 -2864
47332 298811 321068 1884 16005 -2850
47358 298832 321069 1931 15992 -2836
47369 298850 321017 1999 15946 -2796
47399 298827 320970 2031 15932 -2758
47462 298724 320881 2010 15958 -2773
47479 298563 320827 1968 15968 -2815
47402 298375 320672 1946 15979 -2836
47272 298203 320555 1957 16008 -2824
47153 298064 320478 1971 16019 -2832
47064 297975 320442 1950 15986 -2824
47002 297931 320438 1937 15962 -2803
46952 297905 320451 1951 15975 -2802
46937 297894 320467 1956 15947 -2734
46951 297908 320515 1976 15952 -2747
46986 297952 320594 1963 15961 -2784
47048 298028 320723 1960 15985 -2805
47136 298071 320827 1972 16008 -2805
47221 298086 320920 1975 16004 -2812
47292 298106 320990 1960 15988 -2807
47331 298099 321050 1950 15985 -2794
47361 298118 321104 1957 15996 -2809
47379 298126 321151 1933 16008 -2791
47399 298147 321195 1955 16014 -2810
47417 298175 321233 1974 16013 -2833
47439 298180 321266 1973 16009 -2820
47469 298221 321301 1965 16008 -2814
47501 298262 321333 1976 15998 -2827
47538 298300 321384 1972 15978 -2823
47573 298324 321405 1948 15958 -2809
47617 298364 321444 1949 15955 -2802
47652 298424 321483 1983 15963 -2768
47696 298479 321526 1993 15973 -2754
47738 298507 321545 1994 15969 -2773
47787 298547 321566 1982 15975 -2796
47828 298590 321591 1971 15989 -2794
47864 298616 321604 1963 15998 -2806
47912 298653 321637 1943 15999 -2818
47956 298699 321674 1936 15995 -2804
48003 298746 321704 1944 16003 -2802
48042 298776 321715 1944 16008 -2818
48078 298822 321735 1955 15994 -2817
48120 298871 321751 1980 15978 -2791
48164 298888 321773 1997 15972 -2763
48214 298914 321781 1983 15959 -2789
48280 298865 321716 1964 15948 -2827
48307 298747 321611 1978 15972 -2827
48267 298583 321507 1995 15995 -2856
48184 298432 321418 1965 15998 -2879
48076 298307 321364 1953 16005 -2875
47980 298208 321329 1980 16003 -2863
47904 298171 321322 1989 15981 -2808
47857 298145 321335 2000 15981 -2760
47829 298126 321317 2000 15982 -2759
47810 298101 321313 1977 15971 -2783
47801 298098 321323 1970 15978 -2802
47795 298142 321364 1983 16003 -2796
47814 298159 321379 1977 16002 -2810
47846 298151 321383 1949 15950 -2837
47866 298155 321384 1947 15937 -2819
47875 298152 321361 1976 15970 -2808
47885 298129 321355 1989 15981 -2808
47888 298111 321350 2000 15981 -2760
47890 298106 321350 2000 15982 -2759
47894 298119 321358 1977 15971 -2783
47901 298133 321366 1970 15978 -2802
47914 298150 321384 1983 16003 -2796
47929 298155 321391 1977 16002 -2810
47949 298188 321415 1949 15950 -2837
47980 298231 321445 1947 15937 -2819
48017 298283 321492 1976 15970 -2808
48056 298317 321502 1980 15969 -2765
48096 298369 321535 1975 15981 -2789
48137 298406 321560 1985 15989 -2817
48178 298450 321587 1994 15985 -2822
48222 298497 321617 1996 15984 -2822
48259 298537 321630 1993 15988 -2847
48299 298586 321659 1979 15979 -2873
48334 298628 321676 1973 15961 -2859
48382 298645 321699 1997 15962 -2845
48420 298705 321724 2030 15953 -2831
48471 298747 321767 2036 15945 -2821
48517 298834 321821 2023 15959 -2828
48567 298906 321860 2023 15968 -2832
48614 298968 321892 2020 15976 -2823
48670 299029 321931 2007 15991 -2833
48737 299005 321888 1993 16000 -2855
48797 298884 321774 1959 15984 -2844
48805 298746 321682 1938 15967 -2830
48757 298587 321599 1950 15981 -2839
48674 298461 321524 1979 15988 -2825
48581 298357 321458 1993 15990 -2836
48505 298297 321433 2005 15986 -2822
48453 298260 321419 2016 15988 -2775
48409 298202 321359 2010 15977 -2778
48359 298139 321258 2006 15964 -2801
48317 298110 321204 2000 15968 -2802
48298 298127 321217 1997 15986 -2812
48301 298167 321254 2002 16021 -2837
48337 298181 321264 2001 16028 -2857
48357 298173 321266 1996 16002 -2840
48366 298164 321245 2002 15981 -2789
48371 298147 321240 2020 15960 -2746
48384 298147 321227 2023 15935 -2730
48397 298129 321222 2020 15940 -2751
48392 298122 321189 2005 15967 -2792
48376 298132 321190 1961 15991 -2802
48376 298162 321174 1921 15999 -2792
48390 298182 321174 1924 15998 -2791
48424 298216 321211 1943 16003 -2787
48460 298277 321258 1953 15999 -2762
48496 298318 321290 1957 15998 -2747
48530 298352 321312 1965 16003 -2764
48565 298403 321340 1963 16003 -2773
48604 298454 321387 1966 15997 -2778
48654 298509 321417 1976 15983 -2760
48680 298542 321419 1956 15970 -2745
48681 298540 321343 1943 15953 -2761
48677 298560 321286 1967 15956 -2769
48692 298611 321296 1998 15971 -2756
48740 298672 321352 2035 15967 -2738
48814 298754 321441 2032 15978 -2749
48888 298836 321548 2023 15976 -2762
48951 298905 321634 2018 15979 -2754
49009 298960 321669 2015 15993 -2755
49056 299019 321699 1980 15987 -2788
49095 299081 321728 1934 15966 -2798
49133 299125 321724 1927 15973 -2788
49183 299105 321666 1940 15987 -2788
49231 299009 321567 1959 15999 -2749
49243 298870 321459 1981 16003 -2756
49206 298712 321349 2001 16008 -2800
49133 298587 321280 2009 16001 -2814
49048 298490 321217 2011 15989 -2763
48947 298423 321137 1999 15974 -2707
48878 298393 321085 1949 15947 -2723
48838 298394 321069 1935 15953 -2755
48835 298414 321098 1971 15996 -2765
48861 298432 321131 1978 15996 -2777
48884 298484 321203 1961 15995 -2785
48913 298532 321254 1955 15990 -2782
48940 298534 321234 1964 15995 -2764
48946 298515 321190 1978 15996 -2741
48943 298471 321137 1993 15989 -2732
48934 298457 321092 1973 15981 -2748
48902 298426 321005 1958 15990 -2768
48864 298392 320952 1978 16014 -2769
48855 298391 320943 1975 16000 -2762
48864 298408 320960 1968 15976 -2745
48878 298422 320956 1979 15977 -2733
48885 298445 320956 1986 15991 -2725
48890 298481 320958 1998 15999 -2722
48878 298497 320915 2001 15996 -2735
48874 298502 320875 1986 15992 -2751
48906 298538 320890 1981 16009 -2745
48955 298581 320944 1992 16008 -2740
48987 298603 320939 2002 15991 -2754
49009 298646 320947 2006 15984 -2773
49018 298690 320925 2024 15972 -2792
49033 298730 320932 2030 15975 -2788
49068 298774 320962 2023 15978 -2786
49106 298815 321004 2023 15973 -2790
49112 298849 320988 2022 15975 -2792
49105 298868 320935 2029 15977 -2808
49112 298892 320917 2001 15961 -2827
49151 298939 320943 1955 15961 -2831
49198 298984 321002 1954 15981 -2849
49198 299002 320959 1954 15991 -2851
49195 299018 320919 1929 16009 -2824
49228 299056 320936 1922 16018 -2840
49292 299099 320982 1935 16014 -2897
49385 299056 320932 1928 16012 -2920
49453 298926 320831 1932 16008 -2907
49437 298758 320689 1956 16008 -2895
49365 298572 320548 1942 15992 -2897
49281 298446 320470 1918 15954 -2870
49210 298355 320456 1939 15950 -2822
49158 298320 320465 1962 15964 -2809
49115 298317 320492 1925 15934 -2804
49098 298327 320521 1953 15974 -2811
49097 298342 320572 1964 16002 -2828
49111 298376 320624 1965 16017 -2842
49129 298411 320702 1963 16014 -2833
49157 298465 320771 1960 16005 -2815
49188 298456 320765 1952 15981 -2776
49206 298440 320756 1945 15976 -2760
49228 298431 320753 1938 15990 -2786
49239 298423 320774 1910 16002 -2802
49246 298409 320789 1909 16017 -2793
49241 298387 320773 1907 16010 -2814
49230 298395 320764 1921 15996 -2808
49229 298414 320785 1941 15985 -2757
49233 298426 320802 1949 15983 -2731
49252 298467 320853 1928 15965 -2760
49271 298494 320867 1919 15949 -2786
49285 298533 320875 1942 15965 -2789
49304 298561 320898 1955 15979 -2783
49334 298599 320925 1952 15979 -2742
49366 298640 320951 1958 15991 -2754
49389 298661 320955 1977 16004 -2813
49403 298701 320968 1983 15994 -2842
49431 298741 320981 1987 15984 -2834
49465 298783 321021 2001 15980 -2836
49507 298843 321067 1993 15964 -2851
49553 298899 321106 1977 15955 -2826
49581 298940 321117 1979 15962 -2810
49602 298989 321130 1983 15968 -2813
49636 299026 321147 1991 15960 -2814
49675 299059 321187 1988 15960 -2803
49715 299128 321212 1978 15984 -2794
49754 299182 321257 1969 16000 -2804
49785 299227 321277 1967 15997 -2803
49809 299283 321297 1978 15988 -2800
49824 299338 321302 1962 15972 -2813
49845 299373 321285 1944 15961 -2806
49891 299265 321140 1961 15966 -2810
49887 299089 320955 1972 15976 -2833
49827 298901 320791 1990 15975 -2830
49752 298739 320674 2010 15979 -2803
49667 298596 320641 2019 15991 -2777
49582 298497 320630 2002 15979 -2781
49483 298428 320608 1974 15957 -2799
49411 298399 320613 1975 15970 -2804
49356 298381 320616 1964 15997 -2833
49311 298367 320612 1938 16002 -2870
49271 298357 320612 1945 15992 -2893
49230 298387 320637 1972 15982 -2893
49191 298395 320630 1990 15951 -2791
49147 298350 320547 1987 15979 -2785
49102 298309 320461 1968 15997 -2825
49050 298257 320393 1943 16001 -2872
49022 298234 320358 1934 16023 -2888
48996 298208 320338 1932 16032 -2878
48980 298210 320351 1916 15985 -2863
48974 298216 320395 1927 15954 -2854
48963 298215 320406 1955 15966 -2834
48933 298214 320392 1957 15966 -2788
48900 298194 320328 1963 15976 -2806
48868 298198 320296 1964 15991 -2818
48856 298207 320278 1957 16005 -2834
48841 298189 320234 1961 16008 -2829
48857 298239 320265 1947 15999 -2802
48883 298284 320310 1907 15989 -2803
48887 298327 320316 1887 15996 -2810
48876 298338 320286 1899 15999 -2836
48898 298384 320322 1890 15992 -2816
48914 298443 320351 1913 15999 -2815
48922 298486 320365 1936 15990 -2824
48936 298551 320409 1954 15976 -2824
48961 298604 320449 1982 15982 -2825
48999 298648 320512 1994 15994 -2829
49041 298722 320579 1980 15982 -2822
49053 298769 320603 1966 15966 -2810
49073 298821 320617 1967 15967 -2806
49098 298853 320630 1967 15983 -2794
49128 298900 320669 1963 15981 -2764
49142 298919 320652 1963 15969 -2757
49162 298969 320672 1962 15981 -2756
49213 299025 320729 1958 15999 -2769
49285 299072 320774 1955 16012 -2803
49353 299005 320700 1973 16001 -2797
49384 298862 320611 1985 15981 -2731
49361 298680 320524 1963 15967 -2718
49283 298556 320464 1913 15978 -2772
49188 298444 320446 1881 15999 -2783
49062 298346 320366 1884 15998 -2746
48944 298298 320316 1902 16001 -2751
48866 298283 320312 1910 16017 -2783
48796 298263 320270 1907 16019 -2783
48720 298247 320197 1922 16001 -2769
48650 298201 320119 1938 15982 -2749
48617 298216 320121 1911 15974 -2754
48627 298240 320176 1896 15976 -2749
48665 298243 320196 1915 15986 -2700
48675 298230 320210 1932 16000 -2663
48677 298202 320195 1932 16007 -2648
48669 298188 320187 1951 16008 -2652
48641 298155 320145 1966 15993 -2632
48600 298121 320096 1976 15991 -2634
48540 298084 320020 1971 15992 -2660
48503 298052 319979 1951 15986 -2675
48451 298044 319922 1943 15987 -2691
48415 298033 319872 1946 15997 -2715
48414 298049 319884 1949 16006 -2741
48404 298058 319869 1964 15980 -2744
48372 298067 319801 1974 15977 -2793
48335 298043 319722 1973 15988 -2840
48334 298040 319693 1967 16002 -2866
48350 298068 319707 1967 16000 -2868
48349 298059 319672 1974 15989 -2856
48326 298048 319586 1972 15972 -2851
48326 298050 319555 1957 15965 -2851
48344 298057 319544 1967 15978 -2852
48388 298096 319602 1990 15945 -2799
48430 298157 319666 1987 15955 -2814
48429 298198 319662 1996 15971 -2815
48424 298219 319636 2003 15985 -2828
48444 298247 319647 1999 15990 -2835
48472 298294 319699 2004 16005 -2841
48511 298374 319789 2001 15995 -2845
48520 298444 319800 1999 15966 -2800
48525 298430 319755 2021 15968 -2752
48565 298328 319624 2028 15964 -2728
48579 298165 319512 2002 15960 -2722
48535 297981 319440 2004 15982 -2729
48436 297812 319321 2033 16003 -2728
48304 297686 319242 2038 16009 -2744
48170 297573 319160 2032 16000 -2768
48061 297508 319118 2012 16001 -2769
47988 297491 319119 1986 15996 -2750
47954 297487 319143 1966 15980 -2717
47946 297522 319204 1973 15984 -2702
47955 297567 319276 1973 15980 -2708
47970 297611 319357 1948 15966 -2697
48006 297649 319411 1953 15981 -2684
48036 297650 319437 1963 16010 -2696
48037 297634 319405 1967 16007 -2709
48020 297613 319354 1980 15981 -2698
47990 297593 319309 1987 15971 -2677
47954 297546 319248 1989 15983 -2669
47933 297545 319240 1982 15984 -2679
47932 297575 319298 1987 15984 -2711
47949 297613 319348 1994 15981 -2723
47966 297662 319395 2007 15956 -2701
47945 297671 319352 2014 15962 -2705
47928 297687 319313 2007 15988 -2731
47940 297723 319329 1999 15987 -2752
47977 297768 319385 2000 15985 -2742
48020 297831 319457 2027 15983 -2717
48056 297897 319516 2058 15956 -2694
48090 297976 319572 2067 15923 -2698
48133 298057 319645 2062 15936 -2740
48175 298112 319696 2044 15974 -2777
48207 298165 319725 1996 16025 -2802
48237 298209 319732 1988 16023 -2814
48273 298251 319757 1985 16016 -2813
48314 298313 319805 1981 16005 -2802
48356 298388 319852 1980 15996 -2796
48408 298472 319921 1975 15991 -2785
48460 298538 319981 1966 15978 -2787
48508 298594 320026 1968 15979 -2778
48543 298647 320049 1986 15989 -2787
48576 298724 320085 2021 15970 -2775
48619 298803 320130 2038 15975 -2752
48681 298817 320130 2012 15971 -2749
48757 298717 320040 1988 15959 -2785
48782 298586 319929 2007 15972 -2809
48733 298394 319788 2016 16000 -2833
48632 298258 319698 1982 15997 -2868
48518 298119 319630 1968 15988 -2877
48420 298048 319598 1986 15997 -2862
48344 298019 319603 2002 15974 -2774
48305 298016 319633 2007 15955 -2753
48280 298040 319665 2007 15969 -2753
48271 298052 319681 1990 15984 -2764
48273 298065 319712 1991 15994 -2742
48274 298111 319758 1989 16007 -2729
48290 298132 319789 1943 15972 -2772
48317 298118 319764 1929 15954 -2773
48330 298113 319776 1970 15984 -2728
48343 298101 319764 1995 15994 -2706
48346 298104 319766 2005 15991 -2704
48348 298091 319762 2005 15985 -2717
48355 298092 319782 2006 15989 -2731
48357 298112 319799 2007 16003 -2749
48368 298140 319824 2006 16004 -2753
48382 298156 319841 2010 15997 -2758
48401 298174 319843 2003 15991 -2762
48424 298214 319866 1997 15985 -2747
48454 298261 319898 2012 15986 -2748
48482 298288 319904 2034 15981 -2757
48515 298315 319931 2061 15957 -2748
48547 298355 319957 2063 15948 -2730
48586 298402 319978 2045 15962 -2734
48619 298457 320006 2040 15973 -2762
48658 298499 320026 2029 15984 -2785
48693 298543 320039 2017 15991 -2794
48730 298581 320074 1994 15972 -2809
48774 298623 320086 1968 15957 -2827
48816 298674 320118 1974 15971 -2831
48857 298729 320149 1992 15990 -2822
48899 298766 320181 2061 15957 -2748
48946 298801 320187 2063 15948 -2730
48984 298853 320202 2045 15962 -2734
49029 298890 320223 2040 15973 -2762
49071 298945 320244 2029 15984 -2785
49116 298993 320279 2017 15991 -2794
49165 299061 320328 1994 15972 -2809
49213 299115 320345 1968 15957 -2827
49278 299072 320285 1974 15971 -2831
49339 298946 320179 1992 15990 -2822
49346 298801 320088 2020 15965 -2794
49300 298674 320017 2016 15972 -2785
49221 298599 319989 2027 15977 -2797
49125 298514 319964 2030 15977 -2823
49036 298457 319936 2034 15984 -2816
48967 298440 319942 2058 15987 -2776
48932 298426 319945 2062 15970 -2748
48919 298425 319947 2027 15953 -2779
48907 298428 319945 2019 15966 -2816
48900 298436 319943 2045 15997 -2788
48880 298451 319920 2049 16016 -2805
48841 298363 319763 2027 16014 -2842
48794 298295 319612 2014 16009 -2840
48764 298240 319527 2023 16009 -2831
48759 298199 319477 2019 15999 -2796
48756 298162 319461 2014 15983 -2760
48730 298103 319366 1992 15949 -2762
48692 298061 319283 1973 15937 -2780
48661 298012 319187 1989 15972 -2783
48656 297962 319135 2001 16009 -2755
48679 297964 319142 1995 16007 -2731
48727 297985 319186 1991 15988 -2734
48781 297996 319241 2003 15986 -2723
48815 297993 319215 2013 15982 -2706
48822 297954 319146 2018 15986 -2720
48838 297913 319090 2018 15994 -2738
48843 297888 319002 2000 15987 -2723
48827 297864 318896 1992 15975 -2719
48818 297836 318802 1998 15975 -2739
48827 297826 318747 1997 15984 -2735
48842 297803 318684 2004 15997 -2725
48832 297782 318599 2011 16013 -2726
48848 297795 318576 2025 16011 -2745
48887 297822 318584 2040 15992 -2758
48894 297809 318533 2037 15976 -2746
48899 297778 318453 2034 15964 -2720
48924 297794 318439 2016 15959 -2710
48952 297766 318403 2003 15964 -2718
48990 297765 318400 2003 15976 -2728
49018 297783 318368 1995 15987 -2735
49033 297805 318340 1993 15986 -2724
49058 297811 318314 1997 15985 -2723
49093 297761 318219 1992 15986 -2743
49129 297608 318038 1989 15994 -2751
49143 297425 317883 1987 16006 -2758
49133 297241 317761 1974 16000 -2763
49076 297085 317661 1964 16000 -2747
49003 296983 317586 1948 16000 -2762
48933 296935 317556 1939 15992 -2791
48862 296894 317506 1960 15985 -2767
48806 296873 317467 1984 15985 -2720
48783 296854 317455 1981 15982 -2708
48771 296846 317437 1962 15969 -2746
48746 296822 317385 1958 15983 -2767
48745 296810 317371 1969 16012 -2754
48757 296795 317353 1970 16022 -2770
48770 296767 317322 1959 16015 -2801
48786 296722 317277 1928 15990 -2813
48793 296686 317237 1918 15981 -2788
48792 296632 317186 1940 15988 -2746
48774 296615 317143 1912 15995 -2708
48764 296582 317109 1915 16005 -2752
48757 296573 317099 1923 16019 -2741
48754 296565 317069 1925 16025 -2723
48763 296593 317085 1918 16019 -2733
48790 296617 317113 1923 16006 -2724
48814 296638 317134 1924 15986 -2689
48817 296644 317106 1936 15982 -2649
48834 296654 317102 1950 15997 -2657
48871 296702 317138 1945 16003 -2703
48916 296748 317204 1949 15996 -2715
48967 296802 317247 1965 15987 -2708
49013 296848 317294 1990 15989 -2698
49040 296899 317327 2000 16004 -2687
49077 296947 317366 2001 16010 -2684
49105 297002 317399 1978 15985 -2693
49130 297036 317407 1964 15965 -2710
49174 297090 317443 1973 15972 -2716
49230 297132 317516 1974 15974 -2665
49266 297171 317545 1972 15979 -2685
49280 297196 317530 1983 15993 -2689
49299 297227 317527 1975 16007 -2688
49332 297275 317548 1958 16013 -2715
49376 297299 317543 1954 16015 -2721
49421 297197 317417 1939 16003 -2693
49444 297045 317284 1938 15987 -2666
49431 296875 317146 1953 15985 -2676
49353 296721 316997 1947 15985 -2714
49255 296605 316897 1934 15986 -2724
49189 296539 316873 1954 15984 -2709
49146 296526 316908 1968 15984 -2680
49130 296554 316967 1955 15994 -2700
49104 296568 316987 1959 16004 -2745
49078 296562 316973 1977 16013 -2747
49072 296575 316980 1960 16009 -2769
49091 296614 317049 1928 16002 -2785
49145 296634 317096 1930 16001 -2780
49193 296641 317159 1946 15989 -2780
49227 296644 317165 1939 15970 -2743
49212 296614 317120 1946 15961 -2697
49196 296582 317075 1963 15966 -2698
49194 296579 317072 1958 15967 -2712
49202 296591 317085 1967 15982 -2701
49222 296605 317139 1970 16004 -2715
49216 296611 317125 1962 16004 -2743
49207 296618 317099 1952 15992 -2731
49215 296626 317107 1955 15985 -2694
49222 296636 317078 1973 15986 -2675
49215 296616 317021 1957 15985 -2676
49218 296610 316987 1937 15987 -2679
49229 296595 316959 1953 16003 -2697
49229 296568 316891 1979 16015 -2689
49241 296551 316869 1998 16009 -2653
49249 296546 316820 2006 15995 -2630
49252 296558 316774 1997 15985 -2639
49223 296512 316654 1972 15968 -2659
49172 296471 316490 1975 15962 -2652
49144 296448 316389 1997 15978 -2631
49167 296488 316416 2011 15973 -2585
49198 296537 316472 1997 15969 -2584
49230 296594 316502 1998 15980 -2580
49267 296639 316544 2004 15989 -2575
49306 296703 316601 1996 16000 -2575
49372 296765 316686 1965 15996 -2582
49396 296809 316721 1921 15980 -2609
49410 296845 316703 1908 15977 -2639
49450 296820 316669 1917 15997 -2664
49513 296685 316564 1917 16007 -2678
49545 296535 316460 1906 16004 -2682
49498 296335 316298 1912 16006 -2698
49423 296175 316196 1935 16009 -2715
49344 296065 316177 1954 16010 -2703
49242 295963 316093 1968 16022 -2672
49148 295888 316047 1948 16021 -2674
49081 295883 316041 1896 15973 -2709
49050 295871 316048 1890 15955 -2730
49036 295852 316073 1939 15993 -2740
49030 295856 316100 1961 16020 -2756
49002 295870 316118 1946 16019 -2764
48964 295899 316117 1944 16009 -2759
48945 295985 316190 1965 16003 -2717
48945 296024 316258 1980 15998 -2666
48974 295967 316282 1985 15997 -2647
49029 295913 316328 1982 15995 -2639
49100 295928 316466 1944 15984 -2655
49166 296006 316652 1916 15977 -2671
49224 296083 316802 1945 15997 -2657
49268 296156 316930 1951 15999 -2664
49265 296192 316942 1940 15996 -2660
49218 296177 316867 1960 16008 -2634
49201 296199 316835 1992 16007 -2632
49223 296244 316886 2005 15995 -2641
49271 296308 316980 2000 15995 -2652
49338 296398 317109 2000 16008 -2667
49400 296465 317206 1997 16002 -2663
49448 296521 317269 1989 15985 -2646
49480 296579 317306 1997 15987 -2646
49515 296614 317342 2005 15992 -2675
49560 296682 317395 2004 15979 -2688
49608 296762 317458 2008 15986 -2660
49657 296833 317551 2021 15994 -2631
49715 296914 317633 2034 15983 -2615
49768 296988 317702 2044 15980 -2618
49809 297025 317706 2049 15987 -2639
49824 297056 317684 2034 15981 -2652
49844 297084 317693 2004 15964 -2650
49855 297117 317678 2000 15969 -2645
49869 297139 317664 2002 15987 -2654
49910 297148 317630 1999 16006 -2656
49949 297055 317511 1998 16005 -2648
49962 296910 317367 1999 16001 -2666
49940 296755 317247 2004 16008 -2688
49890 296624 317192 2002 16011 -2710
49818 296536 317181 1997 16017 -2751
49726 296454 317144 1994 16012 -2738
49621 296396 317090 2002 15985 -2667
49553 296378 317093 2002 15963 -2630
49513 296374 317114 1993 15957 -2631
49500 296395 317143 2055 15999 -2609
49496 296389 317172 2048 16006 -2647
49482 296415 317211 2030 16016 -2689
49453 296413 317192 2019 16017 -2713
49453 296394 317164 2003 16007 -2715
49450 296380 317156 1994 15994 -2675
49443 296372 317145 1972 15960 -2643
49429 296359 317135 1960 15950 -2645
49422 296347 317161 1967 15982 -2652
49383 296321 317111 1972 16020 -2651
49319 296285 317015 1982 16044 -2626
49279 296285 316980 1993 16020 -2634
49263 296322 317008 1999 15988 -2639
49276 296381 317082 2006 15990 -2610
49313 296439 317163 2018 16003 -2599
49335 296475 317217 2020 16006 -2602
49346 296507 317225 2014 15989 -2618
49356 296534 317229 2004 15970 -2642
49375 296559 317240 2010 15981 -2631
49397 296617 317286 2032 15980 -2612
49428 296663 317332 2034 15966 -2609
49464 296713 317399 2023 15976 -2602
49497 296752 317434 2031 15995 -2619
49499 296778 317399 2040 16000 -2642
49452 296747 317257 2043 15989 -2644
49428 296724 317175 2044 15973 -2650
49437 296733 317144 2037 15941 -2649
49451 296750 317155 2038 15929 -2641
49464 296778 317136 2046 15949 -2646
49473 296814 317148 2045 15961 -2655
49465 296826 317095 2040 15950 -2654
49457 296783 316971 2031 15951 -2649
49466 296638 316825 2022 15961 -2660
49445 296461 316660 2010 15969 -2665
49387 296270 316507 2006 15974 -2663
49296 296132 316409 2016 15965 -2666
49213 296051 316389 2005 15963 -2664
49147 296010 316392 1980 15951 -2646
49110 296014 316450 1970 15956 -2651
49045 295995 316409 1939 15972 -2677
48961 295957 316322 1953 16023 -2684
48916 295920 316263 1937 16036 -2693
48904 295941 316305 1899 16024 -2729
48921 295983 316385 1877 16026 -2738
48973 296004 316455 1885 16023 -2716
49031 296042 316555 1904 16015 -2673
49092 296080 316679 1906 15990 -2618
49124 296119 316765 1902 15973 -2592
49123 296127 316768 1915 15987 -2607
49114 296146 316794 1930 15998 -2610
49114 296148 316809 1948 16002 -2591
49109 296175 316822 1961 15998 -2581
49074 296185 316771 1985 15988 -2563
49024 296155 316652 2013 15975 -2541
49009 296158 316612 2019 15983 -2532
49024 296187 316642 2017 15987 -2543
49069 296271 316735 2005 15983 -2569
49129 296353 316853 2007 15994 -2596
49194 296453 316992 2009 16013 -2614
49262 296532 317085 2022 16018 -2611
49313 296596 317164 2022 15993 -2600
49362 296661 317231 2015 15977 -2605
49413 296721 317296 2014 15977 -2604
49461 296798 317368 2011 15978 -2601
49503 296868 317429 2018 15975 -2602
49543 296927 317470 2026 15961 -2606
49584 296993 317519 2037 15960 -2619
49618 297024 317536 2047 15972 -2615
49657 297085 317578 2039 15965 -2595
49703 297138 317606 2032 15961 -2574
49738 297205 317651 2026 15970 -2582
49778 297275 317713 2015 15994 -2620
49827 297327 317742 2007 16012 -2662
49893 297265 317660 2001 16011 -2684
49939 297155 317570 2004 16001 -2679
49929 296992 317471 1998 15986 -2670
49864 296862 317384 1994 15979 -2677
49777 296770 317329 2008 15987 -2664
49688 296699 317298 2026 16003 -2630
49619 296663 317304 2005 15976 -2614
49564 296642 317298 1990 15940 -2631
49523 296645 317310 2012 15959 -2647
49501 296636 317310 2022 15998 -2648
49482 296627 317300 2017 16022 -2683
49459 296642 317312 2000 16029 -2711
49450 296670 317354 1987 16024 -2692
49450 296656 317351 1988 16005 -2654
49452 296649 317331 2001 15981 -2626
49444 296640 317330 2006 15966 -2611
49433 296616 317316 1992 15966 -2609
49426 296619 317319 1982 15981 -2617
49415 296631 317323 1988 16002 -2613
49411 296647 317337 1998 16014 -2600
49400 296673 317363 2002 15990 -2613
49400 296708 317389 2008 15974 -2615
49405 296747 317416 2018 15976 -2592
49415 296769 317427 2011 15967 -2593
49411 296779 317416 2005 15972 -2609
49400 296792 317369 2017 15988 -2629
49378 296798 317291 2024 15992 -2606
49373 296786 317247 2022 15984 -2599
49355 296777 317173 2031 15984 -2608
49350 296791 317136 2038 15983 -2599
49358 296824 317152 2043 15982 -2612
49352 296858 317110 2044 15984 -2620
49275 296854 316963 2026 15981 -2621
49214 296823 316819 2018 15977 -2629
49181 296821 316750 2026 15977 -2625
49147 296841 316694 2031 15965 -2614
49125 296851 316644 2031 15957 -2590
49093 296854 316574 2027 15967 -2598
49100 296909 316575 2019 15986 -2620
49123 296961 316582 2008 15991 -2640
49143 297001 316579 1995 15993 -2667
49149 297008 316538 1989 15996 -2703
49177 296930 316433 1968 15985 -2706
49201 296740 316273 1951 15970 -2692
49182 296532 316120 1961 15970 -2705
49149 296330 316029 1996 15984 -2696
49104 296194 316011 2008 15989 -2652
49019 296100 315951 1998 15989 -2665
48905 296046 315865 1987 15965 -2692
48839 296000 315843 1997 15970 -2683
48805 295978 315845 2000 15991 -2688
48775 295964 315836 1990 15996 -2716
48709 295931 315760 1992 15988 -2747
48662 295895 315734 2001 15987 -2736
48635 295927 315760 2008 15974 -2672
48620 295901 315718 2015 15951 -2640
48586 295870 315648 2015 15957 -2649
48570 295868 315630 2006 15991 -2658
48569 295862 315662 1982 16025 -2655
48558 295843 315636 1982 16039 -2656
48517 295813 315568 1992 16025 -2645
48487 295792 315547 1968 15975 -2650
48490 295805 315595 1958 15961 -2646
48499 295837 315621 1975 15999 -2608
48475 295854 315589 1981 16017 -2611
48473 295908 315600 1974 16008 -2617
48474 295942 315630 1978 15990 -2619
48457 295985 315633 1981 15992 -2619
48456 296058 315667 1975 16009 -2612
48460 296181 315754 1982 16010 -2618
48468 296256 315806 1979 15999 -2625
48478 296292 315796 1959 15989 -2632
48499 296312 315794 1951 15974 -2621
48526 296338 315827 1955 15964 -2608
48531 296384 315795 1953 15978 -2633
48513 296359 315695 1919 16047 -2616
48512 296338 315603 1941 15997 -2559
48553 296347 315618 1968 15951 -2526
48612 296390 315678 1976 15962 -2556
48651 296413 315689 1954 16012 -2619
48668 296416 315642 1903 16037 -2670
48673 296383 315560 1855 16033 -2682
48691 296400 315548 1860 16025 -2660
48718 296440 315552 1897 16018 -2636
48754 296465 315575 1887 16013 -2620
48821 296501 315626 1902 16010 -2635
48916 296436 315600 1926 15997 -2648
48981 296292 315489 1951 16010 -2666
48983 296166 315406 1965 16016 -2660
48946 296014 315311 1964 16013 -2647
48865 295893 315239 1921 15987 -2657
48796 295792 315184 1907 15955 -2693
48750 295748 315196 1956 15982 -2706
48747 295786 315327 1959 16034 -2709
48781 295847 315486 1899 16069 -2730
48783 295882 315534 1859 16069 -2729
48755 295902 315523 1869 16034 -2701
48742 295928 315550 1886 15983 -2643
48725 295935 315547 1896 15962 -2592
48712 295898 315470 1900 15977 -2573
48707 295887 315449 1866 15999 -2590
48713 295883 315467 1836 16016 -2622
48721 295876 315461 1855 16036 -2637
48723 295897 315492 1848 16041 -2646
48733 295903 315516 1810 16020 -2647
48724 295899 315501 1829 16008 -2633
48698 295891 315444 1878 16011 -2606
48702 295873 315436 1898 16014 -2597
48716 295901 315450 1896 16021 -2631
48719 295920 315459 1897 16034 -2660
48742 295947 315476 1880 16019 -2657
48785 295992 315551 1876 15987 -2650
48841 296057 315634 1916 15981 -2660
48927 296135 315778 1950 15992 -2665
48997 296181 315882 1959 15997 -2642
49040 296235 315929 1972 15991 -2622
49070 296265 315956 2010 15993 -2642
49109 296333 315997 2032 16007 -2658
49149 296371 316042 2035 16022 -2637
49179 296416 316058 2043 16033 -2628
49220 296479 316126 2052 16024 -2622
49279 296551 316205 2047 16001 -2622
49350 296635 316299 2055 15988 -2623
49428 296717 316413 2072 15977 -2583
49507 296800 316522 2098 15947 -2569
49572 296875 316614 2114 15950 -2567
49639 296967 316701 2087 15970 -2545
49703 297045 316791 2054 15970 -2536
49773 297124 316858 2039 15984 -2533
49864 297149 316894 2032 16017 -2561
49943 297093 316863 2002 16036 -2611
49981 296964 316756 1994 16025 -2613
49964 296834 316678 2020 16011 -2559
49921 296739 316622 2046 16012 -2503
49866 296688 316617 2080 15962 -2453
49823 296678 316633 2088 15984 -2406
49791 296707 316669 2080 16002 -2406
49776 296747 316709 2073 16000 -2445
49770 296765 316727 2078 15988 -2478
49768 296769 316739 2084 15973 -2472
49762 296812 316780 2094 15948 -2442
49765 296868 316822 2117 15941 -2427
49793 296859 316817 2123 15963 -2418
49818 296868 316830 2115 15972 -2436
49836 296854 316808 2097 15984 -2424
49841 296872 316811 2079 15991 -2426
49840 296858 316808 2083 15981 -2437
49838 296862 316834 2092 15987 -2433
49839 296897 316845 2085 16016 -2435
49850 296933 316873 2058 16020 -2445
49861 296970 316915 2044 15997 -2461
49881 297012 316942 2048 15995 -2460
49899 297048 316955 2069 15991 -2444
49921 297093 316983 2104 15981 -2452
49936 297127 317008 2115 15981 -2478
49955 297164 317011 2108 15985 -2488
49972 297181 317005 2100 15988 -2487
49994 297222 317000 2102 15980 -2477
50016 297261 317011 2108 15975 -2472
50044 297309 317050 2103 15967 -2488
50079 297378 317087 2106 15970 -2505
50120 297422 317127 2113 15987 -2500
50144 297457 317132 2122 15982 -2495
50165 297484 317128 2123 15967 -2500
50187 297526 317120 2104 15977 -2502
50213 297540 317105 2073 16010 -2512
50202 297562 317044 2054 16025 -2523
50207 297576 316997 2054 16018 -2529
50241 297627 317035 2049 16012 -2535
50285 297686 317087 2035 15997 -2547
50289 297731 317074 2028 15997 -2547
50295 297749 317027 2045 15998 -2531
50337 297710 316966 2066 15985 -2520
50389 297577 316842 2118 15982 -2484
50404 297436 316771 2093 15986 -2457
50390 297302 316709 2061 15969 -2460
50351 297193 316694 2043 15960 -2465
50307 297117 316695 2065 15989 -2498
50258 297064 316710 2099 16009 -2548
50247 297130 316782 2117 16001 -2581
50225 297156 316807 2118 15991 -2602
50210 297179 316854 2117 15985 -2606
50198 297178 316847 2199 15956 -2544
50184 297171 316843 2175 15982 -2537
50169 297209 316881 2117 16020 -2553
50173 297216 316896 2067 16027 -2575
50177 297192 316880 2035 16034 -2548
50145 297164 316807 1990 16039 -2509
50094 297115 316709 1944 16015 -2505
50052 297073 316633 1941 16002 -2466
50018 297035 316573 1959 16008 -2412
49943 296979 316430 1970 16007 -2380
49874 296917 316308 1970 15998 -2343
49841 296896 316238 1969 15995 -2322
49806 296893 316191 1971 16008 -2319
49799 296898 316165 1970 16014 -2319
49799 296933 316181 1976 16011 -2304
49807 296987 316219 1975 16002 -2291
49804 297011 316199 1966 15983 -2281
49795 297027 316167 1967 15988 -2251
49813 297048 316163 1979 16013 -2238
49819 297067 316167 1988 16020 -2244
49832 297078 316155 2001 16024 -2245
49850 297088 316148 2016 16034 -2245
49876 297101 316136 2007 16039 -2230
49877 297093 316084 1993 16040 -2204
49857 297055 315966 1985 16036 -2179
49861 297020 315888 1971 16029 -2167
49881 296989 315857 1943 16024 -2163
49926 296991 315859 1911 16026 -2155
49925 296973 315803 1889 16027 -2151
49903 296925 315686 1877 16019 -2153
49904 296906 315638 1874 16018 -2158
49942 296922 315652 1874 16019 -2157
49987 296955 315702 1891 16016 -2152
50051 297005 315780 1909 16030 -2163
50142 296954 315791 1928 16031 -2158
50233 296834 315766 1936 16027 -2127
50264 296681 315738 1914 16019 -2113
50238 296512 315655 1907 16003 -2134
50141 296384 315547 1934 16012 -2158
50042 296284 315453 1978 16026 -2172
49965 296236 315421 1958 16068 -2216
49912 296219 315431 1957 16052 -2223
49881 296208 315447 1974 16049 -2229
49878 296210 315497 1996 16042 -2216
49876 296189 315518 2002 16020 -2197
49877 296189 315552 1980 16003 -2210
49879 296212 315602 1958 16006 -2230
49897 296217 315612 1962 16026 -2245
49909 296194 315619 1986 16033 -2246
49916 296199 315628 2011 15984 -2262
49902 296178 315591 2027 15981 -2252
49869 296184 315606 2031 15998 -2234
49833 296228 315621 2022 16005 -2238
49820 296221 315621 2017 16015 -2251
49818 296196 315603 2002 16015 -2267
49826 296195 315612 1997 16009 -2286
49837 296228 315651 2008 16014 -2280
49853 296254 315690 2004 16020 -2249
49877 296316 315747 2009 16023 -2222
49907 296369 315802 2026 16013 -2231
49935 296420 315855 2031 16013 -2238
49961 296475 315901 2032 16023 -2237
49986 296529 315943 2046 16027 -2249
50015 296586 315994 2052 16023 -2250
50039 296628 316021 2034 16004 -2251
50068 296680 316052 2025 15980 -2247
50098 296734 316100 2022 15970 -2227
50135 296795 316149 2011 15980 -2225
50158 296855 316191 1996 16006 -2233
50190 296914 316224 1973 16023 -2231
50223 296968 316276 1966 16035 -2231
50256 297014 316305 1976 16049 -2236
50278 297081 316345 1982 16043 -2252
50312 297135 316373 1986 16030 -2249
50349 297182 316410 1988 16017 -2228
50384 297258 316464 1973 16005 -2238
50417 297325 316499 1955 16000 -2250
50437 297371 316497 1965 16007 -2226
50445 297291 316335 1981 16019 -2197
50439 297126 316109 1962 16013 -2219
50417 296978 315958 1924 15983 -2275
50377 296811 315851 1937 15991 -2289
50318 296716 315820 1969 16033 -2273
50263 296672 315849 1971 16046 -2283
50220 296671 315918 1955 16034 -2316
50197 296704 316010 1925 16016 -2348
50177 296737 316064 1929 16012 -2341
50160 296758 316087 1961 16024 -2302
50131 296752 316073 1980 16025 -2279
50113 296779 316079 1973 16011 -2287
50104 296811 316112 1954 16008 -2311
50110 296820 316114 1969 16021 -2309
50099 296808 316068 1985 16027 -2301
50092 296804 316050 1979 16015 -2323
50074 296775 316008 1981 16008 -2327
50046 296745 315957 1979 16004 -2307
50026 296742 315957 1989 16002 -2286
50021 296755 315966 2012 16008 -2278
50033 296783 316032 2019 16011 -2297
50054 296830 316088 2014 16019 -2297
50073 296891 316158 2006 16016 -2282
50102 296946 316221 2016 16011 -2297
50111 296998 316239 2017 16015 -2298
50120 297033 316257 2006 16020 -2303
50137 297076 316286 1989 16007 -2317
50167 297129 316333 1975 15984 -2311
50203 297184 316358 1985 15986 -2295
50244 297244 316428 2005 15996 -2288
50291 297312 316493 2014 15988 -2282
50350 297386 316563 2009 15979 -2292
50409 297472 316657 2004 15988 -2297
50475 297564 316748 2005 16010 -2290
50542 297657 316834 2005 16013 -2288
50595 297722 316892 2009 16016 -2291
50640 297795 316950 1993 16007 -2313
50685 297851 317000 1961 15995 -2321
50723 297920 317039 1963 16012 -2316
50765 297974 317078 1981 16028 -2324
50802 298025 317111 1989 16032 -2318
50848 298069 317138 1982 16026 -2326
50889 298175 317210 1989 16021 -2299
50938 298258 317257 2009 16021 -2253
50993 298254 317236 2013 16014 -2244
51051 298157 317152 1992 15991 -2293
51082 298016 317030 1970 15983 -2324
51065 297861 316940 1969 16014 -2301
51015 297763 316873 1981 16043 -2309
50943 297703 316841 1971 16047 -2325
50873 297678 316831 1948 16039 -2324
50816 297671 316851 1945 16033 -2317
50781 297692 316878 1957 16023 -2293
50759 297716 316888 1978 16017 -2280
50753 297741 316921 1986 16014 -2293
50752 297774 316952 1979 16008 -2314
50752 297820 316976 1971 16017 -2341
50765 297810 316968 1971 16033 -2346
50778 297809 316957 1978 16021 -2321
50783 297811 316952 1989 16007 -2303
50782 297800 316936 2012 16007 -2281
50776 297817 316944 2031 16010 -2279
50753 297831 316965 2033 16014 -2295
50721 297906 317015 2028 16013 -2302
50701 297975 317062 2021 16020 -2305
50696 298048 317113 2019 16023 -2308
50692 298175 317204 2020 16000 -2326
50697 298330 317356 2028 15980 -2337
50717 298461 317447 2034 15984 -2326
50754 298573 317542 2037 16000 -2319
50794 298683 317611 2055 16005 -2321
50844 298759 317688 2070 16000 -2330
50889 298837 317742 2079 16000 -2335
50939 298911 317810 2079 16003 -2320
50990 298978 317872 2071 16005 -2309
51049 299070 317920 2069 16003 -2315
51096 299165 317991 2066 15989 -2335
51145 299266 318066 2055 15990 -2344
51192 299337 318128 2051 16018 -2352
51240 299405 318170 2057 16030 -2355
51286 299464 318211 2074 16006 -2366
51335 299520 318247 2070 16017 -2364
51377 299577 318292 2059 16012 -2357
51419 299648 318345 2049 16002 -2339
51456 299753 318425 2062 16001 -2314
51504 299835 318477 2081 15980 -2311
51564 299901 318520 2082 15951 -2345
51626 299926 318535 2074 15958 -2375
51650 299918 318550 2069 15991 -2367
51624 299920 318573 2103 16036 -2348
51554 299911 318584 2080 16029 -2369
51469 299900 318599 2070 16032 -2399
51387 299906 318629 2070 16034 -2387
51318 299946 318666 2069 16023 -2353
51265 299961 318687 2080 15977 -2340
51242 299979 318712 2086 15949 -2347
51242 299962 318709 2082 15966 -2375
51251 299967 318707 2082 15986 -2345
51255 299986 318735 2101 15988 -2307
51275 300004 318747 2133 15990 -2321
51285 300034 318766 2149 15984 -2316
51273 300122 318832 2168 15976 -2280
51228 300321 318990 2174 15974 -2257
51183 300576 319180 2159 15968 -2249
51163 300745 319327 2191 15948 -2227
51166 300901 319497 2208 15956 -2250
51199 301005 319590 2224 15992 -2276
51239 301057 319672 2302 15977 -2227
51277 301120 319732 2362 15969 -2199
51323 301211 319813 2417 15984 -2218
51364 301322 319910 2469 15973 -2217
51425 301366 319958 2482 15962 -2182
51495 301388 319955 2486 15975 -2181
51558 301423 319983 2453 16005 -2219
51609 301532 320073 2408 16018 -2227
51661 301600 320122 2428 15992 -2240
51710 301677 320169 2443 15981 -2251
51764 301687 320150 2402 15996 -2229
51821 301701 320149 2404 15991 -2209
51861 301786 320197 2463 15947 -2194
51888 301884 320258 2477 15923 -2185
51915 301949 320288 2408 15955 -2189
51943 302004 320324 2346 15979 -2213
51973 302081 320363 2331 15985 -2218
52006 302155 320393 2320 15997 -2204
52047 302212 320427 2343 16002 -2225
52083 302324 320491 2371 15988 -2234
52128 302429 320557 2345 15995 -2211
52186 302492 320576 2309 15998 -2207
52242 302509 320599 2463 15947 -2194
52248 302497 320612 2477 15923 -2185
52194 302431 320582 2408 15955 -2189
52097 302368 320549 2346 15979 -2213
51977 302340 320550 2331 15985 -2218
51866 302283 320534 2320 15997 -2204
51779 302236 320510 2343 16002 -2225
51709 302212 320511 2371 15988 -2234
51665 302182 320494 2345 15995 -2211
51637 302154 320489 2309 15998 -2207
51628 302139 320491 2354 15958 -2248
51622 302140 320523 2372 16004 -2221
51641 302130 320533 2361 16025 -2251
51669 302044 320494 2336 16029 -2287
51712 301938 320459 2351 16019 -2275
51729 301889 320451 2422 15985 -2241
51751 301867 320480 2481 15961 -2215
51771 301822 320476 2457 15957 -2205
51788 301833 320507 2426 15961 -2191
51798 301860 320578 2439 15964 -2206
51813 301934 320665 2454 15978 -2204
51838 302097 320798 2474 16009 -2164
51873 302373 321044 2549 16009 -2128
51908 302717 321333 2636 15988 -2110
51938 303150 321685 2683 15976 -2113
51964 303629 322028 2740 15958 -2097
51978 304034 322344 2829 15922 -2082
51959 304467 322633 2895 15917 -2088
51950 304786 322842 2934 15956 -2085
51937 305085 323015 2983 15962 -2061
51924 305369 323180 3042 15894 -2057
51904 305618 323333 3125 15856 -2060
51865 305908 323510 3187 15902 -2068
51789 306248 323686 3263 15918 -2072
51677 306585 323824 3387 15895 -2046
51545 306814 323872 3477 15892 -2039
51464 306926 323889 3545 15902 -2056
51460 306911 323867 3634 15895 -2050
51326 306980 323767 3683 15884 -2048
51176 306757 323448 3675 15900 -2091
51066 306429 323107 3609 15954 -2167
51048 306060 322826 3525 16011 -2260
51140 305631 322545 3559 16020 -2265
51181 305511 322477 3710 15943 -2127
51181 305508 322517 3953 15779 -1843
51115 305525 322585 4219 15565 -1675
51047 305340 322506 4033 15481 -2077
50976 305048 322353 3307 15805 -2673
50895 304815 322199 2684 16403 -2749
50803 304697 322105 2777 16482 -2281
50732 304605 322045 3559 15938 -1699
50667 304458 321934 4279 15302 -1512
50609 304336 321859 4449 14892 -1788
50467 304385 321827 4126 15015 -2177
50138 304765 321843 3551 15518 -2418
49742 305282 321895 3034 16056 -2438
49449 305601 321906 2782 16308 -2389
49288 305702 321873 2804 16193 -2315
49291 305502 321758 3011 15979 -2186
49439 305042 321559 3306 15793 -2053
49556 304757 321451 3679 15591 -1896
49579 304698 321444 3745 15679 -1962
49570 304756 321501 3737 15791 -2094
49582 304821 321564 3719 15865 -2161
49647 304739 321557 3587 15906 -2148
49743 304638 321545 3436 15912 -2165
49797 304616 321574 3447 15923 -2155
49838 304686 321626 3505 15950 -2085
49865 304784 321707 3492 15948 -2107
49896 304872 321785 3424 15886 -2184
49941 304937 321847 3443 15763 -2133
49984 305043 321930 3630 15647 -2001
49997 305214 322046 3828 15637 -1895
50020 305347 322132 3886 15728 -1866
50075 305397 322190 3850 15796 -1908
50141 305469 322263 3792 15765 -1955
50205 305549 322335 3775 15678 -1999
50275 305617 322391 3845 15647 -2047
50370 305633 322424 3898 15677 -2063
50436 305703 322480 3890 15676 -2066
50500 305794 322550 3810 15626 -2102
50588 305790 322565 3731 15645 -2167
50690 305790 322600 3707 15759 -2212
50731 305932 322699 3659 15866 -2265
50776 306031 322757 3564 15925 -2339
50850 306063 322785 3467 15932 -2387
50931 306099 322852 3465 15914 -2385
50980 306108 322880 3506 15912 -2354
50971 306112 322908 3484 15945 -2346
50924 306077 322900 3430 15963 -2367
50858 306031 322895 3341 15967 -2386
50766 306021 322903 3285 15970 -2420
50704 306001 322886 3298 15949 -2438
50676 305964 322871 3340 15946 -2374
50679 305917 322855 3392 15954 -2274
50686 305929 322881 3407 15934 -2236
50702 305933 322892 3388 15872 -2271
50717 305906 322877 3377 15828 -2269
50747 305857 322854 3388 15868 -2232
50812 305804 322821 3371 15912 -2251
50861 305719 322805 3300 15893 -2298
50903 305618 322728 3255 15882 -2313
50946 305511 322659 3269 15902 -2306
51020 305356 322590 3292 15930 -2300
51095 305251 322565 3303 15959 -2300
51162 305135 322524 3279 15981 -2309
51223 305083 322521 3252 15959 -2313
51264 305090 322524 3248 15920 -2285
51311 305065 322535 3231 15913 -2249
51378 305048 322520 3219 15913 -2249
51437 305057 322542 3181 15883 -2282
51520 304994 322508 3135 15863 -2288
51647 304821 322425 3119 15896 -2265
51786 304639 322318 3101 15923 -2266
51963 304306 322157 3071 15943 -2269
52220 303666 321819 3019 15954 -2304
52550 302740 321311 2954 15930 -2422
52812 302067 320968 2956 15934 -2486
52957 301873 320895 3063 15985 -2440
53058 301702 320812 3151 16030 -2417
53162 301575 320767 3177 16035 -2315
53226 301557 320778 3212 15977 -2253
53256 301693 320880 3281 15858 -2190
53251 301896 321005 3379 15715 -2085
53241 301999 321048 3515 15563 -1920
53220 302071 321051 3651 15506 -1756
53197 302185 321073 3773 15416 -1731
53176 302342 321144 3845 15288 -1756
53152 302449 321180 3805 15270 -1798
53147 302291 321039 3429 15439 -2147
53110 302136 320915 3280 15720 -2293
53055 301984 320816 3098 15958 -2369
52970 301910 320768 2867 16076 -2392
52868 301918 320777 2648 16064 -2449
52788 301903 320777 2500 16029 -2487
52717 301930 320787 2347 16084 -2529
52662 301918 320759 2188 16217 -2578
52624 301856 320704 2093 16282 -2583
52594 301773 320614 2116 16258 -2557
52565 301725 320574 2232 16236 -2471
52531 301759 320594 2315 16205 -2370
52503 301759 320542 2398 16173 -2264
52495 301627 320412 2547 16151 -2167
52472 301540 320335 2736 16117 -2079
52446 301483 320260 2947 16089 -1953
52419 301438 320203 3124 16019 -1816
52400 301379 320137 3242 15882 -1732
52389 301349 320107 3353 15748 -1698
52373 301360 320102 3453 15697 -1656
52289 301429 320066 3441 15739 -1576
52259 301437 320046 3363 15776 -1529
52306 301533 320167 3357 15737 -1499
52327 301604 320208 3373 15715 -1452
52106 302266 320625 3304 15763 -1448
51838 302865 320938 3155 15809 -1507
51566 303327 321105 2984 15817 -1593
51252 303614 321085 2858 15840 -1649
51033 303943 321167 2763 15913 -1682
51083 304119 321341 2666 15973 -1720
51264 304142 321468 2630 15962 -1846
51386 304179 321551 2590 15970 -1947
51553 304146 321486 2643 16002 -1978
51681 304029 321400 2751 16050 -1931
51718 303979 321396 2786 16058 -1944
51538 304400 321596 2790 16039 -1995
51100 305190 321773 2727 16014 -2058
50491 305989 321666 2628 15994 -2116
49505 306985 321283 2654 15979 -2157
48295 308054 320690 2754 15979 -2146
46774 309274 319901 2816 15990 -2109
44683 310629 318690 2801 15996 -2114
42578 311955 317369 2816 15986 -2163
41012 312928 316559 2912 15991 -2187
39199 314056 314856 2957 16015 -2141
36903 315403 313023 2922 16021 -2104
34765 316891 311363 2816 15988 -2155
33006 318347 310478 2733 15956 -2222
31893 319725 310094 2746 15962 -2233
31082 321385 310255 2836 15951 -2199
30231 322835 310229 2834 15982 -2198
29818 325227 311050 2855 15974 -2289
30161 329364 313659 2873 15975 -2289
31147 334128 317437 2855 15986 -2234
32508 338503 321134 2860 15967 -2228
34185 342238 324993 2876 15940 -2234
36180 345101 328164 2869 15933 -2275
38324 347839 331202 2902 15942 -2276
40504 350465 333849 2950 15919 -2260
42487 352318 335796 2954 15864 -2315
44325 353751 337378 3003 15874 -2339
45983 355042 338821 3083 15919 -2337
47606 356210 340028 3117 15936 -2347
49225 357322 341185 3134 15930 -2387
50668 358257 342212 3160 15884 -2519
51787 358985 343008 3174 15846 -2630
52861 359714 343826 3169 15881 -2695
53778 360230 344424 3171 15934 -2772
54370 360496 344722 3193 15941 -2809
54558 360445 344643 3210 15891 -2847
54293 360001 344038 3241 15841 -2902
53651 359126 342925 3261 15850 -2893
52558 357709 341052 3248 15859 -2919
50787 354618 337865 3251 15873 -3012
48307 349854 333371 3245 15903 -3042
44647 343868 326165 3206 15876 -3041
44298 338754 322322 3212 15842 -3055
54678 336391 338666 3239 15837 -3044
61398 332501 344812 3233 15823 -3025
61613 330976 343756 3191 15817 -3005
61437 329899 342822 3196 15836 -2981
61299 328882 342145 3272 15871 -2967
61040 327893 341398 3250 15912 -2922
60714 326995 340686 3153 15963 -2760
60411 326345 340119 3140 15947 -2675
60035 325750 339507 3168 15838 -2652
59762 325122 338983 3117 15779 -2794
59541 324695 338633 3151 15757 -2680
59334 324291 338330 3264 15776 -2257
58693 324326 337736 3266 15779 -2020
56072 326029 335454 3285 15832 -1974
52728 327731 332727 3307 15877 -1957
48951 328622 329379 3307 15901 -1934
45301 328890 325842 3293 15898 -1927
41754 328948 322233 3242 15895 -1970
38905 329546 319989 3187 15928 -2007
36621 329913 317970 3345 15849 -2148
35416 331285 317856 3447 15803 -2200
34985 333724 319589 3310 15925 -2016
35496 337035 322850 3303 15965 -2000
36411 339786 325765 3364 15941 -1995
37475 342101 328451 3448 15902 -2000
38738 344209 330809 3494 15907 -1983
40375 346230 333256 3494 15941 -1982
42269 348053 335853 3474 15939 -2035
43999 349746 337903 3450 15940 -2053
46005 351607 340172 3458 15934 -2055
48022 353205 342332 3382 15875 -2127
50017 354818 344151 3387 15900 -2156
51694 356233 345809 3458 15913 -2178
52768 357116 346690 3504 15892 -2200
53289 357351 346849 3531 15877 -2232
53376 357207 346496 3567 15886 -2219
52969 356643 345455 3571 15864 -2205
51795 354874 343197 3558 15853 -2207
49568 350348 338892 3556 15894 -2207
46318 345215 332323 3551 15917 -2228
44533 342585 326915 3552 15902 -2233
45017 339261 324559 3560 15902 -2218
52831 339373 337993 3615 15918 -2186
57729 338022 343949 3660 15906 -2185
57647 333707 341529 3606 15880 -2222
58428 332003 341601 3525 15883 -2303
58733 331019 341536 3500 15901 -2322
58285 330525 340965 3553 15915 -2365
57002 330354 339681 3611 15925 -2562
54355 330575 336850 3495 15758 -2790
51047 331036 333167 3639 15749 -2575
47643 332321 329941 3901 15809 -2231
43571 334345 326104 3924 15739 -2154
39936 337269 323981 3956 15762 -2074
38195 340868 324378 3954 15810 -2092
37938 343361 325586 3958 15876 -2110
38282 346217 328017 3939 15876 -2123
39190 348929 331086 3928 15851 -2255
40483 350939 333471 3925 15868 -2410
42233 352598 335749 3915 15912 -2475
43609 353671 337498 3905 15974 -2538
45044 354896 339203 3949 15945 -2653
46618 356106 340816 3991 15934 -2685
48181 357279 342274 3993 15929 -2705
49597 358344 343432 3955 15940 -2732
51083 359472 344739 3918 15950 -2739
52586 360573 346089 3917 15877 -2730
53901 361543 347163 3968 15783 -2691
54938 362322 348017 4016 15759 -2637
55667 362822 348677 4088 15727 -2536
56269 363318 349259 4111 15683 -2495
56788 363738 349714 4131 15625 -2483
56998 363817 349721 4162 15604 -2492
56801 363465 349135 4172 15594 -2487
56247 362833 348100 4187 15525 -2478
55168 361749 346140 4232 15472 -2440
52986 358038 341798 4254 15452 -2361
47393 345913 328441 4255 15390 -2284
51377 340939 334567 4314 15447 -2172
62774 336962 349407 4255 15522 -2086
64232 335623 349852 4232 15521 -1972
63365 335263 348554 4250 15498 -1835
63134 334452 347785 4261 15547 -1818
62926 333752 347123 4285 15449 -2111
62762 332933 346534 4103 15582 -2023
62544 332333 346043 3865 15897 -1633
62233 331663 345536 3829 15954 -1490
61846 330953 345035 3745 15990 -1394
61387 330336 344557 3603 16054 -1412
60908 329835 344097 3527 16147 -1461
60437 329359 343659 3493 16165 -1462
60003 328842 343216 3521 16075 -1392
59585 328383 342822 3573 15975 -1317
59200 327947 342417 3578 15919 -1257
58805 327401 341917 3583 15833 -1228
58453 326951 341525 3647 15764 -1197
58121 326595 341171 3732 15795 -1134
57841 326257 340855 3772 15843 -1110
57584 325932 340566 3745 15838 -1116
57331 325585 340285 3734 15830 -1105
57076 325223 339997 3740 15882 -1109
56817 324907 339729 3634 15949 -1195
56537 324650 339473 3483 15973 -1332
56248 324339 339119 3468 15895 -1389
56025 323954 338800 3523 15768 -1390
55803 323605 338478 3498 15757 -1444
55528 323343 338153 3410 15872 -1518
55298 323126 337879 3287 15985 -1541
55154 322762 337561 3157 15965 -1493
55073 322351 337264 3093 15918 -1414
54962 322040 336996 3100 15964 -1279
54776 321891 336790 3034 15994 -1154
54587 321782 336625 2885 15962 -1140
54466 321569 336419 2756 15909 -1222
54394 321257 336188 2688 15895 -1288
54286 321047 336000 2692 15933 -1227
54148 320927 335868 2781 15946 -1095
53990 320778 335668 2902 15855 -1008
53865 320559 335408 3064 15594 -904
53757 320288 335149 3159 15625 -828
53653 320044 334897 3232 15679 -823
53505 319945 334729 3270 15720 -842
53384 319888 334633 3305 15696 -908
53333 319715 334466 3363 15679 -995
53286 319527 334307 3410 15779 -1022
53248 319293 334141 3419 15904 -991
53123 319023 333970 3420 15976 -958
52903 318687 333729 3308 15951 -1000
52634 318338 333476 3288 15970 -1040
52345 317989 333191 3275 16033 -1014
52065 317673 332914 3240 16061 -959
51835 317343 332633 3184 16074 -939
51653 316996 332372 3118 16073 -930
51503 316686 332139 3069 16059 -923
51377 316393 331906 3054 16037 -908
51251 316228 331800 3051 16024 -883
51141 316093 331675 3063 15972 -896
51084 315874 331517 3142 15963 -841
51047 315645 331374 3237 15974 -764
50989 315377 331191 3315 15939 -725
50895 315138 331021 3394 15911 -686
50810 314943 330884 3471 15893 -638
50710 314796 330791 3513 15844 -633
50600 314672 330686 3535 15845 -635
50473 314622 330647 3569 15882 -610
50366 314567 330555 3591 15897 -586
50292 314472 330471 3566 15907 -573
50233 314367 330386 3519 15938 -566
50184 314201 330223 3472 15965 -555
50158 314051 330093 3416 15984 -565
50137 313914 329967 3356 16010 -582
50098 313771 329856 3261 16016 -590
50056 313727 329822 3151 16006 -599
50031 313699 329793 3114 16015 -585
50043 313522 329683 3124 16039 -579
50047 313341 329531 3086 16035 -603
50042 313176 329372 3038 16006 -616
50055 313007 329259 3049 15979 -581
50078 312822 329157 3085 15958 -518
50093 312618 328970 3104 15938 -484
50143 312452 328877 3108 15913 -487
50207 312229 328763 3120 15900 -483
50241 312030 328641 3123 15898 -470
50224 311912 328553 3110 15941 -439
50167 311871 328469 3133 16010 -373
50086 311899 328418 3174 16026 -304
50037 311792 328302 3146 16043 -216
49917 311538 328096 3111 16035 -207
49724 311138 327744 3128 16035 -160
49503 310699 327412 3149 16034 -76
49346 310234 327096 3146 16004 -17
49219 309831 326880 3108 15928 -2
49069 309584 326739 3086 15894 12
48927 309368 326579 3085 15910 39
48814 309248 326505 3086 15912 69
48735 309131 326454 3142 15914 177
48619 309018 326349 3214 15969 189
48477 308903 326178 3270 16010 161
48429 308641 325952 3282 16017 107
48443 308387 325781 3267 16010 76
48446 308245 325749 3299 16001 103
48407 308209 325773 3312 15987 161
48322 308138 325713 3245 15974 180
48236 308001 325587 3108 15955 168
48191 307720 325377 2795 15943 172
48158 307455 325166 2742 15970 166
48126 307284 325048 2728 15980 147
48124 307155 325008 2712 15994 130
48100 307074 324966 2723 16010 114
48040 307033 324891 2738 15990 108
47992 307055 324877 2717 15975 86
47964 307114 324909 2653 15991 35
47966 307125 324931 2584 16021 -16
47990 307074 324894 2566 16038 -80
48024 306996 324867 2602 16021 -142
48046 306965 324844 2637 15999 -178
48062 306991 324879 2654 15997 -198
48065 307056 324937 2686 16037 -173
48049 307132 324969 2689 16101 -110
48031 307172 324980 2594 16136 -90
48049 307190 325000 2423 16112 -164
48083 307174 325011 2264 16045 -283
48125 307177 325022 2188 15996 -356
48152 307209 325042 2195 15990 -374
48165 307224 325035 2283 16024 -369
48189 307261 325045 2367 16057 -320
48219 307277 325032 2404 16074 -266
48282 307236 325043 2398 16075 -254
48354 307114 325001 2330 16066 -279
48360 306978 324960 2269 16056 -333
48299 306833 324927 2214 16032 -379
48216 306674 324922 2151 16027 -419
48145 306569 324956 2094 16037 -484
48075 306466 324968 2056 16047 -540
48000 306425 324977 2024 16120 -565
47938 306347 324944 1998 16159 -575
47910 306290 324926 1980 16131 -611
47906 306267 324912 1956 16121 -667
47913 306234 324936 1933 16117 -690
47906 306253 324978 1927 16121 -702
47896 306269 324990 1910 16130 -700
47898 306283 324991 1911 16123 -687
47904 306291 325011 1951 16109 -664
47907 306257 324996 1974 16094 -641
47899 306235 324992 2024 16120 -565
47909 306223 325002 1998 16159 -575
47906 306215 324992 1980 16131 -611
47896 306185 324955 1956 16121 -667
47901 306163 324929 1933 16117 -690
47911 306146 324895 1927 16121 -702
47883 306118 324807 1910 16130 -700
47855 306113 324707 1911 16123 -687
47871 306096 324665 1951 16109 -664
47896 306102 324661 1974 16094 -641
47920 306126 324653 1951 16068 -662
47964 306167 324671 1910 16075 -664
48021 306203 324724 1837 16077 -706
48089 306241 324761 1760 16083 -757
48138 306252 324772 1681 16091 -786
48182 306293 324773 1625 16082 -824
48240 306333 324795 1586 16079 -857
48307 306380 324828 1539 16099 -881
48368 306442 324886 1504 16105 -924
48430 306507 324951 1468 16114 -953
48474 306567 324982 1427 16126 -964
48528 306611 325019 1384 16121 -990
48590 306659 325046 1324 16125 -1024
48641 306727 325088 1263 16134 -1067
48687 306770 325100 1214 16127 -1097
48766 306781 325098 1175 16124 -1113
48839 306719 325075 1141 16121 -1144
48856 306614 325006 1117 16117 -1181
48795 306414 324874 1098 16126 -1218
48702 306222 324726 1094 16147 -1241
48607 306075 324604 1111 16181 -1256
48542 305956 324525 1126 16180 -1300
48523 305872 324487 1159 16142 -1325
48520 305828 324485 1213 16125 -1317
48527 305810 324484 1235 16114 -1332
48541 305796 324494 1222 16110 -1353
48545 305784 324493 1223 16127 -1336
48557 305786 324477 1224 16139 -1312
48589 305745 324454 1205 16128 -1320
48625 305715 324431 1203 16111 -1330
48656 305693 324427 1215 16127 -1310
48685 305698 324445 1198 16134 -1293
48701 305681 324440 1186 16110 -1294
48706 305673 324424 1208 16095 -1296
48716 305648 324426 1235 16096 -1295
48726 305646 324425 1247 16110 -1300
48735 305637 324403 1286 16134 -1287
48752 305660 324413 1317 16132 -1291
48779 305689 324411 1305 16102 -1309
48809 305741 324462 1309 16088 -1286
48840 305796 324484 1330 16091 -1253
48887 305820 324505 1339 16113 -1246
48927 305845 324527 1320 16124 -1276
48971 305869 324553 1293 16116 -1302
49013 305907 324558 1280 16103 -1325
49050 305944 324563 1299 16104 -1337
49093 305960 324582 1314 16110 -1328
49147 305982 324585 1304 16103 -1329
49187 306002 324587 1301 16103 -1365
49239 306007 324581 1327 16105 -1419
49294 306029 324608 1397 16133 -1409
49366 306067 324630 1452 16105 -1444
49415 306111 324644 1512 16090 -1459
49466 306143 324651 1544 16088 -1435
49530 306154 324655 1565 16090 -1396
49625 306118 324650 1605 16090 -1388
49716 306010 324622 1635 16087 -1426
49752 305856 324582 1646 16097 -1467
49739 305689 324517 1652 16108 -1486
49684 305554 324459 1697 16136 -1480
49626 305474 324403 1761 16118 -1451
49576 305404 324364 1835 16093 -1401
49543 305354 324338 1886 16077 -1368
49530 305336 324335 1891 16057 -1359
49532 305324 324334 1880 16025 -1345
49535 305335 324348 1905 16011 -1318
49534 305375 324357 1946 16024 -1305
49552 305391 324370 1973 16038 -1324
49589 305388 324377 1986 16046 -1329
49620 305378 324360 1998 16053 -1312
49641 305343 324336 2010 16046 -1299
49657 305313 324311 2018 16034 -1278
49673 305283 324297 2026 16036 -1275
49689 305249 324288 2037 16037 -1301
49699 305228 324266 2036 16042 -1304
49713 305205 324245 2044 16066 -1291
49734 305203 324256 2053 16082 -1301
49761 305216 324268 2052 16078 -1330
49779 305237 324283 2067 16079 -1323
49812 305266 324282 2099 16082 -1282
49845 305294 324298 2113 16072 -1266
49875 305301 324297 2098 16058 -1267
49907 305332 324305 2094 16050 -1259
49946 305354 324332 2100 16050 -1248
49981 305394 324346 2104 16042 -1248
50012 305420 324338 2111 16026 -1253
50045 305443 324343 2114 16033 -1266
50083 305461 324361 2110 16039 -1294
50121 305523 324395 2118 16046 -1299
50166 305572 324431 2167 16072 -1275
50214 305603 324457 2201 16074 -1272
50258 305627 324467 2184 16049 -1292
50304 305670 324497 2168 16043 -1290
50353 305723 324545 2151 16053 -1260
50401 305768 324550 2146 16049 -1219
50477 305729 324529 2170 16034 -1200
50547 305629 324492 2180 16034 -1224
50571 305457 324430 2166 16039 -1248
50552 305255 324344 2166 16037 -1230
50488 305077 324249 2217 16032 -1198
50416 304934 324167 2268 16021 -1185
50361 304800 324123 2274 16024 -1164
50321 304694 324071 2297 16021 -1129
50284 304614 324011 2323 16014 -1122
50267 304558 323987 2303 15998 -1153
50259 304500 323962 2305 15993 -1166
50240 304453 323928 2326 16023 -1148
50221 304437 323909 2306 16058 -1169
50236 304411 323885 2276 16073 -1215
50249 304345 323857 2323 16081 -1206
50259 304275 323823 2302 16062 -1211
50243 304208 323762 2290 16036 -1186
50223 304140 323706 2285 16024 -1154
50195 304100 323680 2264 16031 -1153
50183 304081 323662 2266 16037 -1138
50180 304075 323687 2285 16041 -1124
50196 304071 323702 2275 16042 -1140
50197 304073 323695 2271 16044 -1144
50181 304018 323642 2300 16043 -1119
50153 303998 323570 2352 16040 -1090
50152 303992 323537 2364 16038 -1078
50166 303982 323526 2336 16032 -1091
50176 303971 323511 2308 16031 -1102
50196 303991 323524 2290 16033 -1088
50218 303993 323524 2317 16032 -1076
50203 303963 323465 2351 16031 -1086
50197 303956 323408 2338 16036 -1110
50210 303960 323401 2318 16043 -1131
50232 303965 323394 2329 16047 -1145
50261 303961 323412 2380 16047 -1149
50286 303991 323451 2419 16042 -1143
50304 304015 323450 2424 16034 -1135
50331 304040 323469 2426 16049 -1119
50362 304085 323522 2402 16060 -1121
50391 304147 323561 2387 16041 -1118
50408 304179 323560 2388 16025 -1105
50436 304173 323542 2389 16021 -1111
50476 304100 323473 2386 16018 -1108
50485 303948 323349 2353 16011 -1111
50440 303762 323205 2352 16014 -1131
50357 303552 323097 2343 16013 -1147
50238 303377 322996 2291 16006 -1159
50082 303235 322861 2257 16015 -1156
49942 303132 322748 2257 16029 -1122
49848 303086 322678 2261 16016 -1106
49799 303029 322666 2262 15986 -1119
49779 303003 322672 2244 15981 -1129
49764 302981 322673 2219 16004 -1120
49740 302979 322684 2225 16031 -1115
49732 302973 322683 2301 16068 -1146
49723 302926 322641 2274 16057 -1123
49685 302851 322561 2244 16050 -1088
49650 302753 322472 2227 16036 -1061
49614 302666 322408 2224 16010 -1041
49557 302597 322331 2243 15998 -1049
49494 302519 322246 2234 16003 -1061
49442 302476 322192 2197 16027 -1059
49417 302463 322182 2182 16041 -1074
49408 302441 322170 2211 16019 -1093
49380 302433 322122 2253 16022 -1070
49356 302391 322067 2251 16040 -1051
49345 302380 322047 2231 16039 -1061
49332 302353 322012 2225 16045 -1075
49326 302332 321978 2234 16040 -1066
49324 302328 321960 2267 16024 -1044
49327 302332 321953 2291 16027 -1046
49333 302332 321928 2274 16047 -1067
49334 302306 321889 2260 16054 -1075
49339 302296 321854 2332 16037 -1056
49345 302289 321837 2319 16037 -1051
49334 302271 321775 2274 16034 -1052
49334 302265 321757 2274 16041 -1054
49352 302267 321738 2285 16037 -1052
49363 302272 321729 2295 16027 -1046
49369 302253 321704 2284 16025 -1039
49379 302265 321684 2252 16026 -1045
49391 302294 321695 2229 16029 -1053
49383 302301 321669 2257 16038 -1057
49386 302311 321654 2321 16047 -1058
49404 302348 321652 2322 16047 -1067
49442 302297 321593 2280 16043 -1067
49477 302175 321491 2278 16035 -1048
49452 302025 321387 2291 16022 -1042
49370 301824 321257 2296 16014 -1038
49240 301640 321133 2291 16015 -1044
49107 301485 321035 2269 16027 -1028
48983 301405 320984 2251 16033 -990
48885 301374 320964 2246 16025 -994
48821 301365 320978 2260 16017 -1039
48797 301373 321009 2261 16034 -1076
48818 301423 321111 2231 16065 -1072
48888 301502 321281 2205 16076 -1085
49014 301629 321526 2198 16075 -1097
49170 301727 321789 2213 16051 -1089
49303 301796 322034 2233 16011 -1060
49385 301836 322146 2237 16005 -1030
49436 301830 322228 2225 16024 -1024
49441 301803 322228 2226 16036 -1035
49400 301760 322163 2337 16064 -1025
49354 301740 322102 2298 16073 -1043
49339 301746 322101 2259 16060 -1066
49340 301779 322139 2242 16055 -1057
49319 301781 322106 2251 16040 -1043
49293 301797 322058 2267 16027 -1040
49312 301852 322081 2271 16029 -1063
49333 301891 322113 2268 16028 -1087
49356 301941 322142 2267 16031 -1072
49400 302003 322209 2335 16043 -1044
49454 302074 322282 2419 16052 -1013
49485 302150 322333 2427 16047 -989
49515 302214 322390 2399 16037 -971
49551 302279 322444 2368 16029 -940
49595 302338 322501 2358 16031 -922
49641 302412 322566 2371 16020 -932
49688 302463 322621 2353 16008 -944
49732 302512 322655 2298 16026 -988
49754 302556 322652 2258 16045 -1075
49758 302577 322621 2323 16063 -1164
49774 302623 322601 2329 16054 -1185
49805 302680 322639 2326 16035 -1207
49840 302765 322708 2345 16020 -1196
49897 302837 322758 2345 16019 -1175
49942 302897 322787 2348 16010 -1173
49997 302871 322738 2331 16001 -1205
50039 302769 322697 2265 16009 -1258
50028 302637 322630 2206 16018 -1288
49964 302495 322576 2196 16022 -1285
49869 302364 322520 2220 16012 -1277
49762 302263 322454 2200 16010 -1287
49668 302208 322402 2151 16019 -1325
49597 302180 322384 2140 16028 -1335
49535 302173 322353 2179 16055 -1309
49512 302196 322344 2256 16062 -1294
49504 302212 322367 2318 16051 -1301
49507 302266 322396 2339 16039 -1318
49516 302291 322400 2351 16016 -1321
49528 302314 322404 2366 16000 -1307
49547 302308 322409 2418 15986 -1280
49561 302318 322429 2449 15988 -1256
49567 302304 322446 2411 16010 -1226
49570 302307 322462 2383 16022 -1195
49568 302287 322462 2334 16018 -1201
49549 302292 322462 2261 16015 -1241
49547 302307 322458 2223 16019 -1265
49548 302362 322492 2194 16033 -1280
49553 302378 322505 2162 16052 -1330
49535 302399 322458 2142 16048 -1373
49523 302381 322405 2215 16071 -1387
49533 302405 322405 2204 16064 -1413
49543 302452 322413 2184 16047 -1433
49560 302488 322427 2176 16037 -1445
49587 302528 322450 2201 16027 -1433
49637 302557 322479 2213 16009 -1415
49685 302601 322524 2191 16002 -1439
49728 302670 322573 2150 16007 -1499
49771 302728 322625 2111 16032 -1547
49814 302784 322661 2106 16095 -1561
49850 302800 322656 2105 16141 -1570
49874 302835 322664 2089 16108 -1620
49880 302878 322641 2074 16042 -1650
49891 302942 322652 2075 16012 -1620
49910 302986 322653 2103 16022 -1561
49928 303013 322657 2110 16027 -1525
49950 303054 322667 2078 16018 -1568
49969 303085 322656 2042 16013 -1639
50021 303077 322619 2035 16025 -1647
50071 303008 322566 2056 16107 -1572
50071 302887 322487 2032 16127 -1584
50030 302710 322401 2028 16087 -1555
49937 302544 322312 2037 16052 -1493
49812 302404 322204 2023 16024 -1495
49704 302317 322143 1990 16017 -1524
49623 302293 322110 1985 16062 -1521
49576 302285 322117 2018 16097 -1529
49525 302255 322091 2044 16094 -1548
49493 302244 322057 2051 16078 -1535
49466 302271 322065 2059 16050 -1512
49463 302310 322098 2057 16038 -1499
49475 302321 322108 2045 16038 -1484
49497 302321 322121 2043 16032 -1480
49507 302319 322100 2036 16032 -1508
49484 302255 322045 2005 16037 -1539
49459 302211 321999 1997 16059 -1554
49432 302177 321980 2020 16078 -1585
49420 302182 321978 2032 16063 -1639
49419 302176 321989 2037 16067 -1654
49418 302171 321991 2020 16093 -1647
49420 302192 321998 2011 16091 -1679
49430 302217 322000 2036 16076 -1705
49451 302241 322022 2057 16060 -1671
49477 302268 322049 2069 16057 -1622
49494 302297 322037 2066 16041 -1605
49509 302320 322027 2050 16013 -1596
49532 302349 322049 2036 16008 -1600
49562 302367 322043 2020 16030 -1637
49575 302378 322041 2003 16064 -1691
49597 302404 322032 1973 16103 -1721
49625 302407 322021 1953 16114 -1745
49651 302428 322020 1956 16084 -1776
49673 302441 322021 1967 16063 -1784
49712 302476 322043 1991 16051 -1796
49750 302519 322062 2001 16026 -1809
49791 302581 322100 2011 16009 -1787
49834 302642 322146 2042 16009 -1776
49864 302703 322168 2065 16008 -1785
49885 302750 322181 2070 16015 -1790
49908 302775 322176 2088 16041 -1767
49903 302788 322118 2093 16048 -1764
49940 302732 322028 2066 16033 -1781
49982 302601 321912 2043 16035 -1775
49998 302450 321836 2015 16041 -1788
49972 302310 321782 1994 16053 -1788
49907 302187 321740 1990 16045 -1741
49830 302122 321708 1996 16029 -1684
49769 302059 321699 1998 16025 -1683
49727 302034 321704 2004 16023 -1712
49694 302054 321715 2039 16060 -1670
49667 302053 321725 2025 16070 -1672
49663 302072 321744 2017 16065 -1679
49636 302092 321733 2012 16056 -1683
49595 302092 321667 2009 16045 -1675
49557 302024 321537 1995 16029 -1635
49527 301960 321440 1972 16025 -1606
49466 301859 321283 1951 16035 -1628
49382 301725 321074 1947 16053 -1662
49315 301574 320918 1921 16099 -1659
49274 301489 320833 1894 16077 -1698
49274 301426 320822 1909 16064 -1722
49276 301395 320825 1916 16068 -1728
49268 301415 320822 1910 16052 -1754
49280 301425 320834 1882 16027 -1741
49313 301448 320860 1847 16020 -1722
49352 301460 320904 1858 16025 -1727
49411 301472 320956 1891 16039 -1723
49464 301484 321000 1902 16062 -1732
49467 301491 320969 1901 16103 -1755
49479 301492 320953 1934 16123 -1800
49509 301515 320968 1976 16094 -1837
49545 301559 320985 2000 16064 -1839
49592 301601 321034 2017 16052 -1843
49618 301620 321037 2009 16040 -1854
49646 301640 321025 1995 16028 -1851
49665 301657 321020 1994 16041 -1852
49687 301670 321010 1997 16044 -1872
49707 301692 321001 1992 16036 -1883
49726 301716 320986 1971 16038 -1862
49764 301776 321015 1958 16043 -1859
49799 301823 321048 1962 16054 -1886
49820 301848 321034 1968 16056 -1895
49843 301858 321007 1981 16044 -1885
49889 301865 321007 1985 16032 -1886
49943 301766 320924 1984 16029 -1885
49950 301619 320779 1995 16025 -1859
49932 301436 320661 2008 16015 -1838
49886 301285 320586 2023 16006 -1845
49795 301173 320475 2006 16039 -1862
49707 301084 320398 2014 16045 -1887
49652 301058 320389 2016 16050 -1902
49621 301054 320390 2012 16044 -1919
49581 301025 320349 1995 16028 -1927
49568 301029 320321 1969 16007 -1908
49566 301045 320352 1965 16007 -1905
49571 301067 320358 1969 16026 -1903
49585 301098 320389 1970 16037 -1911
49592 301088 320353 1951 16040 -1900
49597 301062 320328 1953 16039 -1916
49601 301040 320313 1959 16032 -1917
49586 301027 320268 1961 16036 -1898
49572 301001 320240 1967 16034 -1877
49559 300987 320227 1944 16024 -1862
49561 300975 320238 1919 16022 -1866
49580 300981 320247 1917 16028 -1872
49614 300992 320310 1917 16030 -1871
49659 301025 320361 1948 16076 -1866
49724 301053 320459 1967 16048 -1871
49776 301119 320538 1984 16024 -1878
49803 301165 320578 1991 16019 -1874
49839 301208 320618 2000 16027 -1886
49874 301252 320646 2002 16041 -1875
49914 301285 320672 1998 16047 -1861
49949 301313 320702 2008 16050 -1869
49956 301334 320667 2019 16052 -1880
49958 301354 320616 2037 16048 -1883
49980 301382 320620 2052 16036 -1861
50019 301413 320647 2049 16029 -1856
50064 301471 320704 2045 16034 -1864
50107 301485 320730 2043 16041 -1863
50120 301509 320706 2044 16046 -1876
50123 301548 320688 2036 16035 -1876
50145 301591 320692 2029 16026 -1870
50191 301639 320740 2043 16031 -1879
50253 301633 320726 2053 16029 -1870
50315 301562 320673 2058 16020 -1847
50345 301436 320615 2069 16018 -1835
50339 301307 320558 2054 16014 -1837
50297 301205 320523 2031 16016 -1842
50208 301096 320437 2036 16033 -1856
50106 301003 320343 2031 16039 -1878
50034 300967 320294 2020 16047 -1890
50006 300968 320309 2014 16041 -1883
49993 300969 320331 2007 16018 -1875
49994 300977 320344 2007 16018 -1883
49989 300993 320374 2009 16036 -1887
49965 300999 320345 1969 16063 -1908
49963 300995 320315 1978 16062 -1918
49977 300984 320315 1994 16059 -1923
49993 300955 320287 2002 16042 -1940
49993 300935 320272 1986 16036 -1928
49993 300906 320262 1961 16036 -1906
49972 300874 320230 1962 16029 -1890
49941 300845 320188 1975 16032 -1885
49918 300840 320161 1991 16036 -1894
49912 300847 320155 2030 16014 -1891
49929 300872 320195 2033 16025 -1897
49937 300896 320218 2025 16022 -1907
49920 300903 320177 2029 16028 -1922
49918 300914 320162 2031 16040 -1934
49929 300929 320180 2023 16034 -1933
49951 300958 320210 2028 16037 -1937
49987 300996 320227 2030 16044 -1942
50019 301021 320253 2024 16048 -1934
50057 301065 320307 2035 16037 -1921
50081 301097 320313 2061 16013 -1907
50080 301112 320293 2064 16017 -1902
50086 301116 320261 2048 16044 -1912
50104 301156 320280 2035 16054 -1930
50145 301196 320319 2017 16052 -1947
50197 301232 320376 1980 16045 -1955
50235 301286 320415 1952 16032 -1953
50273 301344 320478 1966 16036 -1953
50319 301425 320540 1984 16046 -1962
50377 301514 320630 2007 16053 -1946
50452 301535 320672 2021 16049 -1906
50512 301477 320642 2008 16037 -1906
50529 301348 320544 1986 16019 -1936
50476 301196 320413 1971 16012 -1943
50377 301029 320285 1978 16031 -1940
50266 300905 320178 1975 16022 -1937
50171 300838 320123 1975 16000 -1938
50107 300827 320147 1984 16004 -1960
50056 300803 320140 1984 16023 -1986
49991 300785 320081 1996 16027 -1982
49947 300795 320063 2001 16019 -1964
49931 300797 320083 1968 16026 -1985
49934 300822 320138 1918 16054 -2033
49974 300846 320201 1912 16065 -2025
49980 300880 320222 1954 16019 -1947
49967 300889 320222 1959 15982 -1923
49961 300868 320209 1900 16020 -1988
49945 300835 320182 1863 16072 -2039
49942 300790 320166 1882 16101 -2060
49947 300798 320178 1920 16106 -2064
49914 300757 320129 1976 16065 -2045
49881 300731 320074 2015 16033 -2019
49876 300739 320079 2012 16024 -2018
49897 300768 320113 1995 16022 -2025
49913 300783 320150 1989 16032 -2022
49901 300795 320109 1996 16031 -2030
49906 300803 320101 1993 16028 -2047
49924 300804 320117 1984 16030 -2041
49958 300820 320129 1980 16046 -2020
49951 300808 320092 1989 16066 -2024
49951 300799 320053 1988 16035 -1994
49972 300823 320084 1987 16020 -1995
50020 300856 320116 1978 16027 -2010
50079 300912 320205 1975 16029 -2010
50162 300979 320333 1949 16026 -2021
50241 301046 320440 1914 16038 -2040
50261 301073 320425 1919 16047 -2049
50261 301065 320379 1944 16051 -2038
50276 301099 320373 1958 16039 -2029
50290 301117 320369 1964 16016 -2015
50274 301130 320319 1951 16022 -2000
50282 301136 320293 1958 16043 -2004
50279 301103 320205 1989 16040 -2010
50244 300967 319977 2007 16028 -2001
50228 300778 319785 1995 16022 -1990
50192 300580 319632 1960 16012 -2007
50116 300399 319519 1940 16022 -2010
49975 300224 319371 1925 16057 -2025
49853 300105 319267 1911 16078 -2063
49761 300041 319225 1923 16065 -2029
49714 300019 319240 1942 16051 -2023
49672 300020 319252 1969 16039 -2017
49655 300048 319295 1981 16034 -2008
49647 300070 319362 1971 16044 -2015
49622 300076 319354 1940 16060 -2028
49568 300048 319276 1926 16074 -2035
49547 300026 319240 1935 16060 -2038
49558 300005 319251 1954 16033 -2024
49564 299976 319270 1963 16033 -2002
49583 299966 319321 1945 16035 -1979
49581 299939 319345 1930 16034 -1976
49541 299918 319322 1941 16039 -1994
49516 299891 319296 1962 16040 -2002
49513 299885 319326 1970 16038 -2005
49533 299904 319358 1953 16030 -2008
49552 299923 319404 1947 16020 -2009
49529 299933 319377 1963 16018 -1999
49523 299953 319375 1985 16030 -2007
49548 299977 319404 1997 16036 -2015
49573 300009 319435 2012 16038 -1998
49580 300029 319438 2032 16043 -1994
49569 300036 319407 2029 16033 -1998
49575 300051 319404 2018 16033 -1994
49597 300086 319431 2012 16036 -1997
49633 300111 319484 1993 16030 -1994
49689 300145 319538 1979 16023 -1992
49719 300159 319540 1983 16017 -1997
49712 300147 319485 1995 16032 -1998
49714 300114 319444 2011 16043 -1996
49709 300068 319365 2016 16029 -1985
49702 300031 319290 2003 16030 -1977
49721 300030 319260 2000 16040 -1967
49743 300031 319248 2004 16045 -1960
49775 300049 319259 2001 16032 -1963
49822 300020 319221 1971 16002 -1981
49855 299884 319111 1966 15993 -1987
49834 299746 318995 1989 16021 -1978
49761 299590 318860 1990 16052 -1993
49660 299463 318763 2011 16043 -1996
49572 299378 318713 2016 16029 -1985
49511 299325 318712 2003 16030 -1977
49477 299321 318753 2000 16040 -1967
49484 299334 318832 2004 16045 -1960
49482 299344 318866 2001 16032 -1963
49462 299364 318871 1971 16002 -1981
49463 299408 318921 1966 15993 -1987
49493 299434 318979 1989 16021 -1978
49545 299458 319023 1990 16052 -1993
49554 299443 319003 1992 16084 -2024
49518 299377 318909 1980 16071 -2001
49488 299341 318844 1988 16047 -1984
49479 299318 318824 1995 16037 -1972
49483 299307 318846 1986 16039 -1987
49497 299351 318912 1948 16034 -2031
49521 299396 318975 1927 16052 -2026
49530 299424 319000 1940 16063 -1996
49544 299455 319015 1945 16047 -1990
49538 299473 318994 1962 16052 -1970
49540 299461 318964 1978 16047 -1941
49560 299491 318987 1977 16043 -1939
49569 299525 318992 1972 16051 -1949
49554 299536 318941 1960 16049 -1953
49549 299520 318905 1956 16049 -1964
49554 299526 318875 1951 16057 -1954
49580 299566 318899 1946 16057 -1934
49626 299605 318950 1953 16051 -1937
49679 299649 319021 1968 16047 -1946
49708 299687 319030 1985 16051 -1947
49697 299706 318981 1977 16045 -1939
49701 299729 318952 1975 16033 -1945
49729 299780 318978 1983 16030 -1940
49767 299808 319031 1994 16029 -1927
49780 299838 319009 2007 16029 -1940
49761 299850 318953 1996 16012 -1956
49770 299880 318937 1988 16010 -1952
49810 299907 318961 1990 16026 -1944
49862 299884 318923 1987 16035 -1949
49898 299757 318812 1993 16049 -1953
49881 299598 318653 1993 16057 -1962
49824 299440 318548 1981 16050 -1963
49745 299318 318473 1974 16042 -1953
49653 299221 318411 1970 16033 -1948
49580 299143 318375 1968 16031 -1946
49538 299129 318396 1964 16035 -1941
49526 299145 318431 1957 16027 -1924
49528 299151 318487 1963 16017 -1916
49553 299199 318583 1963 16005 -1926
49585 299267 318695 1965 16006 -1948
49632 299354 318823 1966 16059 -1961
49705 299395 318951 1955 16100 -1992
49776 299438 319050 1959 16095 -2031
49808 299432 319068 1973 16081 -2022
49813 299407 319053 1978 16057 -1997
49818 299383 319043 1967 16021 -1979
49821 299398 319064 1946 15994 -1940
49801 299389 319036 1938 15997 -1911
49774 299369 318988 1936 16016 -1905
49764 299375 318974 1945 16035 -1910
49765 299386 318976 1916 16085 -1879
49787 299409 318991 1929 16056 -1899
49802 299429 318986 1960 16054 -1889
49807 299439 318979 1984 16043 -1887
49807 299441 318962 1985 16035 -1895
49823 299460 318954 1969 16037 -1902
49846 299494 318958 1962 16040 -1912
49879 299518 318989 1978 16039 -1926
49918 299563 319038 2000 16029 -1931
49971 299604 319100 2028 16000 -1898
50032 299665 319180 2023 16010 -1904
50085 299722 319217 2025 16018 -1924
50108 299751 319226 2023 16020 -1931
50135 299787 319251 2020 16031 -1924
50179 299823 319285 2012 16021 -1903
50220 299859 319303 2006 16000 -1890
50266 299901 319350 2006 16008 -1900
50319 299953 319402 1997 16020 -1912
50359 300019 319456 1989 16025 -1913
50413 300079 319526 1999 16026 -1907
50476 300137 319571 2000 16032 -1908
50553 300133 319572 1988 16045 -1919
50624 300072 319550 1985 16051 -1924
50652 299962 319510 1985 16049 -1925
50613 299819 319414 1983 16032 -1922
50518 299704 319288 1986 16016 -1912
50424 299620 319205 1999 16028 -1914
50356 299574 319186 2015 16044 -1916
50309 299557 319197 2027 16051 -1905
50272 299551 319181 2035 16047 -1908
50245 299540 319162 2033 16024 -1924
50229 299550 319172 2027 16025 -1913
50207 299548 319147 2036 16042 -1910
50178 299558 319119 2032 16044 -1941
50166 299546 319083 2025 16050 -1957
50165 299534 319063 2029 16059 -1960
50165 299519 319066 2028 16050 -1953
50170 299505 319067 2037 16031 -1938
50162 299505 319076 2046 16025 -1929
50131 299496 319036 2044 16040 -1924
50106 299485 318997 2025 16055 -1938
50096 299516 319028 2000 16064 -1950
50099 299545 319029 1992 16063 -1955
50115 299581 319059 1986 16039 -1946
50124 299604 319071 1972 16019 -1920
50133 299628 319086 1959 16020 -1894
50147 299650 319084 1965 16025 -1875
50165 299680 319082 1980 16037 -1871
50179 299689 319082 1989 16046 -1871
50148 299672 318988 1969 16040 -1844
50109 299663 318887 1970 16041 -1859
50106 299705 318885 1988 16043 -1876
50131 299746 318919 1995 16052 -1884
50166 299773 318953 1989 16044 -1887
50200 299819 318987 2003 16036 -1883
50241 299858 319006 2018 16042 -1866
50278 299915 319066 2024 16041 -1864
50315 299949 319106 2039 16039 -1869
50359 300006 319156 2048 16027 -1858
50398 300059 319203 2049 16026 -1834
50429 300098 319221 2041 16039 -1826
50462 300151 319244 2022 16042 -1837
50501 300184 319267 2002 16041 -1838
50544 300172 319255 1980 16038 -1835
50596 300087 319181 1943 16040 -1846
50605 299952 319073 1934 16048 -1861
50538 299798 318899 1954 16040 -1863
50450 299691 318787 1968 16032 -1864
50377 299612 318745 1980 16046 -1862
50311 299565 318712 1980 16058 -1847
50250 299559 318714 1978 16060 -1846
50233 299577 318743 1983 16052 -1874
50236 299581 318762 1979 16036 -1885
50226 299575 318758 1980 16050 -1875
50181 299588 318713 1974 16066 -1883
50167 299552 318656 1971 16064 -1909
50187 299534 318652 1968 16052 -1911
50217 299523 318642 1952 16040 -1916
50225 299483 318600 1946 16032 -1912
50191 299430 318517 1942 16032 -1877
50159 299372 318435 1952 16048 -1866
50136 299329 318399 1961 16052 -1883
50126 299305 318370 1965 16057 -1903
50102 299281 318321 1959 16062 -1904
50083 299281 318303 1932 16040 -1876
50084 299312 318315 1926 16017 -1857
50099 299321 318336 1952 16019 -1836
50137 299354 318405 1971 16025 -1835
50203 299414 318510 1955 16033 -1844
50298 299501 318671 1929 16060 -1852
50434 299604 318905 1925 16068 -1869
50554 299703 319071 1927 16060 -1879
50595 299752 319114 1933 16048 -1888
50628 299779 319115 1946 16039 -1891
50657 299802 319142 1941 16030 -1895
50704 299815 319168 1940 16033 -1895
50768 299863 319228 1969 16049 -1899
50843 299924 319333 1988 16052 -1898
50923 299999 319460 1992 16051 -1905
50998 300057 319559 2002 16050 -1901
51065 300151 319646 2015 16052 -1879
51121 300222 319731 2014 16062 -1883
51148 300269 319719 2006 16073 -1888
51174 300288 319695 2009 16065 -1899
51236 300236 319649 1982 16033 -1910
51241 300103 319485 1952 16030 -1902
51191 299930 319318 1968 16053 -1899
51135 299790 319214 1984 16041 -1895
51052 299716 319127 1986 16033 -1879
50971 299635 319059 2011 16053 -1829
50929 299609 319069 2018 16047 -1817
50914 299624 319126 2020 16034 -1836
50922 299648 319192 2001 16029 -1857
50947 299683 319264 1983 16028 -1855
50983 299715 319336 1987 16040 -1856
51009 299777 319423 1980 16050 -1879
51055 299791 319466 1970 16055 -1892
51096 299805 319500 1968 16057 -1907
51134 299817 319547 1954 16023 -1872
51167 299820 319576 1971 16022 -1849
51182 299804 319591 1967 16028 -1859
51199 299816 319609 1960 16035 -1886
51210 299840 319647 1951 16040 -1885
51219 299840 319670 1926 16039 -1882
51231 299862 319682 1926 16030 -1895
51244 299891 319710 1960 16027 -1895
51264 299910 319728 1980 16023 -1875
51284 299950 319748 1985 16017 -1862
51315 299992 319795 1970 16009 -1851
51340 300036 319820 1968 16011 -1856
51365 300081 319846 1984 16033 -1878
51397 300120 319882 1983 16046 -1883
51430 300178 319924 1983 16052 -1877
51460 300232 319958 1985 16044 -1860
51504 300283 319994 1998 16026 -1860
51548 300324 320035 2016 16032 -1870
51596 300372 320073 2023 16043 -1883
51638 300421 320097 2021 16044 -1878
51677 300474 320133 2018 16053 -1868
51717 300520 320163 2025 16054 -1862
51758 300540 320185 2032 16054 -1862
51795 300576 320202 2029 16055 -1870
51830 300623 320233 2024 16047 -1870
51864 300663 320269 2009 16041 -1857
51904 300693 320268 2002 16037 -1865
51959 300660 320237 2009 16040 -1891
52015 300561 320147 2009 16046 -1904
52026 300423 320040 2014 16046 -1918
51996 300301 319964 2024 16049 -1894
51928 300212 319915 2036 16054 -1896
51851 300157 319883 2044 16042 -1881
51781 300130 319890 2037 16030 -1863
51731 300108 319867 2004 16002 -1854
51700 300105 319884 1982 15984 -1860
51676 300120 319896 2000 16013 -1863
51658 300138 319913 2016 16041 -1870
51646 300168 319934 2020 16052 -1894
51642 300196 319944 2022 16060 -1910
51651 300191 319951 2020 16078 -1890
51664 300182 319942 2012 16073 -1856
51668 300170 319916 2000 16045 -1844
51666 300146 319898 1994 16032 -1861
51663 300118 319880 1971 16031 -1893
51653 300101 319885 1941 16050 -1907
51646 300113 319888 1945 16072 -1901
51638 300133 319905 1959 16069 -1910
51637 300147 319916 1962 16060 -1915
51647 300182 319928 1968 16056 -1891
51662 300200 319939 1970 16059 -1852
51675 300215 319950 1975 16058 -1850
51695 300241 319980 1985 16048 -1882
51710 300283 319999 1983 16037 -1902
51731 300321 320019 1972 16027 -1909
51751 300356 320046 1960 16020 -1905
51778 300391 320071 1968 16018 -1898
51803 300416 320090 1981 16024 -1898
51828 300466 320126 1985 16032 -1907
51855 300494 320135 1993 16047 -1916
51880 300551 320157 2014 16070 -1904
51903 300595 320181 2023 16058 -1912
51935 300625 320208 2035 16055 -1921
51963 300672 320236 2027 16035 -1920
51994 300706 320268 2007 16007 -1913
52018 300737 320287 2000 16013 -1898
52049 300782 320307 2005 16035 -1896
52082 300839 320339 2022 16048 -1918
52120 300906 320375 2030 16043 -1919
52167 300901 320369 2009 16031 -1875
52219 300811 320279 2010 16036 -1888
52238 300684 320168 2019 16030 -1910
52216 300544 320100 2023 16023 -1900
52161 300437 320031 2016 16001 -1872
52081 300365 320000 2015 15996 -1855
52009 300328 319994 2012 16007 -1871
51954 300311 319981 2009 15999 -1900
51910 300311 320007 2016 16003 -1907
51878 300319 320008 2020 16029 -1909
51863 300326 320025 2012 16053 -1931
51850 300349 320044 2002 16054 -1935
51837 300383 320077 2007 16037 -1920
51844 300368 320076 1999 16029 -1916
51853 300363 320067 1966 16038 -1899
51854 300349 320051 1944 16044 -1894
51848 300333 320035 1941 16061 -1912
51833 300327 320021 1955 16071 -1934
51820 300311 320022 1973 16072 -1945
51809 300308 320028 1975 16060 -1957
51798 300316 320052 1957 16031 -1949
51798 300350 320060 1958 16026 -1915
51806 300359 320071 1975 16024 -1901
51814 300399 320088 1990 16024 -1906
51820 300428 320110 1981 16026 -1914
51828 300459 320132 1958 16027 -1906
51846 300494 320154 1962 16032 -1909
51865 300550 320180 1978 16028 -1919
51891 300572 320205 1991 16026 -1928
51911 300605 320215 1991 16033 -1933
51936 300639 320236 1997 16050 -1919
51962 300669 320255 1996 16052 -1924
51990 300689 320253 1979 16045 -1951
52014 300724 320276 1969 16051 -1950
52040 300779 320302 1966 16052 -1950
52074 300815 320321 1949 16040 -1946
52104 300871 320348 1950 16037 -1946
52133 300915 320383 1966 16039 -1950
52161 300969 320400 1968 16033 -1939
52184 301004 320417 1971 16026 -1940
52209 301040 320435 1937 16074 -1925
52234 301084 320455 1953 16061 -1956
52267 301126 320471 1970 16044 -1967
52305 301145 320477 1961 16034 -1954
52356 301082 320401 1939 16026 -1945
52379 300955 320299 1954 16031 -1970
52364 300791 320190 1980 16044 -1971
52314 300662 320114 1992 16041 -1949
52233 300576 320056 1994 16030 -1940
52137 300501 319977 1950 16022 -1932
51996 300409 319790 1965 16037 -1922
51839 300318 319569 1977 16061 -1946
51734 300243 319432 1983 16074 -1970
51676 300206 319381 1959 16047 -1974
51651 300203 319381 1942 16029 -1974
51562 300183 319239 1958 16025 -1958
51486 300125 319076 1968 16024 -1934
51452 300109 319007 1971 16039 -1948
51438 300059 318970 1912 16061 -1968
51436 300019 318948 1928 16078 -1962
51415 299973 318910 1922 16062 -1963
51351 299941 318814 1915 16048 -1955
51306 299924 318764 1898 16024 -1956
51300 299910 318765 1890 16021 -1968
51302 299925 318785 1896 16037 -1972
51301 299928 318796 1895 16041 -1971
51286 299914 318769 1910 16044 -1963
51256 299907 318699 1923 16058 -1952
51248 299917 318672 1935 16060 -1943
51262 299930 318683 1956 16047 -1926
51273 299934 318695 1976 16040 -1935
51266 299934 318655 1983 16039 -1961
51233 299913 318585 1959 16036 -1962
51215 299897 318505 1947 16028 -1960
51190 299901 318461 1970 16036 -1961
51178 299903 318416 1993 16041 -1962
51146 299900 318338 2002 16035 -1956
51125 299890 318265 1992 16037 -1953
51119 299887 318254 1980 16031 -1945
51131 299920 318257 1976 16030 -1940
51141 299956 318270 1979 16038 -1949
51151 299993 318266 1981 16038 -1951
51151 300019 318250 1944 16023 -1947
51147 300043 318237 1915 16004 -1943
51171 300081 318249 1928 16003 -1933
51221 300069 318249 1948 16017 -1934
51264 299967 318154 1970 16038 -1937
51250 299813 318014 1986 16040 -1932
51210 299649 317898 1961 16048 -1917
51147 299528 317835 1953 16039 -1934
51082 299472 317825 1970 16043 -1951
51044 299432 317848 1968 16055 -1952
51022 299433 317911 1937 16051 -1969
50958 299424 317856 1925 16045 -1987
50907 299400 317826 1937 16040 -1975
50883 299401 317826 1947 16036 -1944
50873 299427 317846 1955 16030 -1922
50849 299438 317826 1920 16034 -1939
50833 299414 317775 1905 16051 -1958
50841 299395 317755 1912 16068 -1962
50850 299359 317741 1911 16059 -1980
50817 299322 317687 1884 16030 -1976
50784 299294 317634 1900 16016 -1944
50768 299278 317630 1940 16025 -1933
50754 299284 317637 1947 16037 -1936
50725 299290 317602 1946 16040 -1944
50701 299281 317576 1930 16060 -1943
50700 299292 317586 1944 16060 -1954
50686 299296 317554 1949 16043 -1950
50667 299289 317517 1951 16035 -1952
50675 299292 317513 1940 16034 -1966
50703 299336 317564 1935 16022 -1972
50737 299375 317600 1952 16021 -1959
50748 299404 317610 1966 16036 -1952
50743 299412 317584 1975 16040 -1957
50758 299416 317570 1968 16041 -1948
50792 299427 317573 1951 16057 -1916
50808 299427 317553 1944 16061 -1902
50814 299455 317547 1946 16054 -1916
50836 299492 317561 1943 16056 -1929
50865 299510 317567 1916 16054 -1943
50878 299548 317571 1897 16045 -1939
50884 299580 317568 1910 16033 -1928
50913 299631 317593 1921 16032 -1932
50954 299655 317629 1926 16040 -1932
50978 299702 317651 1933 16049 -1919
50988 299726 317632 1929 16059 -1919
51023 299768 317649 1936 16062 -1924
51085 299723 317613 1954 16043 -1918
51138 299589 317527 1955 16028 -1915
51157 299452 317464 1919 16019 -1927
51151 299350 317439 1891 16017 -1944
51076 299242 317375 1913 16034 -1941
50979 299181 317315 1932 16052 -1955
50902 299119 317264 1940 16057 -1994
50851 299108 317265 1938 16059 -2008
50805 299095 317254 1932 16056 -1991
50762 299103 317230 1938 16034 -1962
50735 299077 317215 1937 16019 -1938
50736 299106 317235 1927 16030 -1938
50746 299127 317271 1893 16049 -1962
50781 299126 317296 1860 16057 -1973
50763 299101 317232 1882 16061 -1966
50736 299066 317181 1903 16050 -1958
50722 299038 317169 1906 16035 -1947
50724 299054 317198 1920 16031 -1935
50728 299058 317216 1925 16030 -1940
50740 299089 317293 1947 16045 -1969
50731 299115 317313 1959 16045 -1984
50721 299147 317339 1954 16030 -1993
50721 299168 317365 1945 16011 -1972
50722 299222 317410 1962 16012 -1946
50730 299291 317470 1968 16030 -1941
50751 299370 317557 1959 16039 -1951
50774 299440 317628 1966 16057 -1968
50786 299500 317653 2027 16065 -1941
50783 299572 317678 2048 16049 -1931
50787 299626 317710 2038 16049 -1941
50780 299678 317706 2033 16051 -1935
50756 299727 317662 2006 16038 -1918
50726 299768 317630 1988 16014 -1908
50708 299802 317606 1992 16014 -1916
50666 299827 317568 1989 16033 -1923
50635 299868 317518 1995 16044 -1920
50615 299911 317509 1996 16043 -1913
50601 299935 317484 1985 16038 -1890
50615 299942 317468 1990 16030 -1869
50653 299963 317478 2014 16021 -1874
50684 300047 317536 2031 16032 -1892
50722 300126 317624 2074 16054 -1899
50775 300224 317722 2097 16053 -1881
50797 300290 317747 2081 16048 -1879
50834 300321 317753 2106 16005 -1874
50841 300380 317812 2122 15958 -1867
50810 300369 317840 2096 15990 -1869
50770 300361 317898 2095 16052 -1856
50748 300385 318014 2116 16073 -1857
50775 300419 318208 2112 16063 -1884
50861 300496 318428 2113 16056 -1893
50956 300605 318673 2157 16024 -1872
51064 300702 318909 2215 15987 -1825
51192 300762 319099 2256 15976 -1786
51298 300833 319249 2248 15990 -1789
51384 300924 319403 2196 16020 -1836
51481 300955 319482 2170 16053 -1857
51580 300959 319535 2172 16091 -1846
51670 300921 319552 2152 16083 -1861
51750 300874 319567 2123 16047 -1869
51811 300823 319577 2118 16042 -1850
51861 300804 319604 2119 16029 -1832
51903 300806 319620 2149 16015 -1819
51946 300820 319658 2179 16022 -1806
52001 300883 319739 2168 16022 -1802
52041 300987 319823 2176 16017 -1806
52072 301076 319899 2197 16018 -1828
52099 301197 319980 2244 16020 -1818
52129 301314 320043 2273 16024 -1805
52154 301384 320091 2252 16023 -1845
52195 301420 320120 2255 16017 -1869
52246 301443 320140 2265 16013 -1847
52302 301474 320151 2261 16013 -1819
52352 301537 320188 2231 16020 -1837
52397 301604 320232 2208 16028 -1872
52428 301706 320304 2209 16028 -1886
52470 301778 320328 2200 16023 -1887
52519 301780 320318 2236 16039 -1868
52559 301800 320315 2206 16050 -1878
52604 301831 320326 2186 16039 -1882
52654 301873 320353 2184 16023 -1898
52696 301949 320408 2208 16008 -1890
52740 301992 320432 2231 16014 -1861
52794 302023 320433 2230 16024 -1843
52863 301975 320389 2211 16021 -1852
52932 301839 320315 2175 16016 -1874
52959 301721 320245 2231 16043 -1871
52936 301579 320153 2219 16057 -1889
52877 301473 320108 2188 16050 -1916
52817 301415 320082 2173 16044 -1911
52771 301369 320055 2178 16022 -1881
52730 301367 320064 2189 15991 -1852
52705 301381 320068 2174 15986 -1841
52693 301391 320063 2152 16004 -1859
52692 301408 320075 2138 16012 -1893
52697 301442 320109 2146 16033 -1874
52711 301462 320119 2169 16063 -1844
52737 301438 320093 2167 16045 -1860
52753 301426 320069 2149 16024 -1858
52760 301385 320029 2152 16018 -1853
52757 301372 320014 2170 15985 -1849
52758 301370 320019 2185 15981 -1840
52746 301378 320034 2181 16007 -1849
52738 301392 320042 2174 16019 -1858
52734 301405 320046 2170 16028 -1868
52736 301423 320047 2172 16014 -1872
52743 301442 320051 2211 15992 -1852
52752 301437 320052 2238 15986 -1860
52766 301459 320069 2222 15992 -1879
52777 301497 320084 2200 15993 -1868
52794 301531 320090 2198 15994 -1854
52816 301558 320109 2219 15994 -1856
52842 301588 320127 2221 15995 -1865
52867 301642 320154 2213 16000 -1866
52893 301683 320183 2196 16002 -1871
52920 301749 320208 2183 16008 -1878
52943 301819 320236 2213 16003 -1860
52967 301868 320259 2229 15998 -1847
52996 301944 320307 2199 16014 -1867
53023 302029 320348 2197 16033 -1881
53052 302092 320390 2209 16026 -1879
53089 302108 320397 2221 16012 -1855
53132 302030 320327 2199 16004 -1848
53164 301902 320246 2168 16006 -1865
53159 301785 320165 2173 16020 -1878
53119 301678 320111 2162 16026 -1890
53048 301630 320093 2199 16048 -1918
52987 301599 320075 2175 16030 -1899
52932 301604 320082 2145 16025 -1864
52888 301618 320097 2143 16028 -1837
52858 301643 320102 2142 16027 -1825
52842 301666 320124 2127 16023 -1845
52830 301730 320155 2119 16029 -1870
52824 301785 320194 2107 16047 -1881
52836 301787 320187 2103 16047 -1890
52851 301802 320189 2186 16021 -1856
52865 301786 320166 2189 16010 -1854
52871 301771 320141 2157 16017 -1845
52868 301778 320141 2137 16028 -1838
52869 301774 320124 2144 16022 -1841
52870 301778 320129 2150 16025 -1850
52869 301797 320143 2138 16035 -1872
52873 301817 320147 2139 16031 -1886
52878 301853 320177 2166 16025 -1890
52892 301886 320200 2207 16022 -1893
52907 301907 320204 2242 16012 -1878
52927 301950 320229 2240 16008 -1871
52953 301970 320244 2209 16011 -1891
52981 302000 320260 2190 16016 -1904
53010 302058 320298 2194 16009 -1907
53036 302103 320315 2188 16003 -1913
53067 302130 320327 2154 16009 -1921
53101 302158 320352 2133 16013 -1923
53132 302196 320364 2144 16017 -1925
53163 302237 320391 2175 16017 -1935
53201 302270 320407 2220 16026 -1919
53233 302328 320434 2229 16028 -1891
53264 302407 320482 2193 16022 -1866
53300 302443 320500 2157 16011 -1857
53352 302420 320461 2146 15989 -1877
53407 302307 320359 2172 15988 -1880
53438 302187 320266 2183 16009 -1879
53437 302065 320199 2160 16025 -1911
53403 301956 320131 2137 16032 -1926
53347 301899 320100 2135 16032 -1909
53298 301855 320080 2220 16026 -1919
53257 301855 320089 2229 16028 -1891
53227 301897 320111 2193 16022 -1866
53211 301952 320151 2157 16011 -1857
53202 301985 320176 2146 15989 -1877
53202 302042 320207 2172 15988 -1880
53212 302066 320219 2183 16009 -1879
53230 302077 320221 2160 16025 -1911
53248 302073 320209 2137 16032 -1926
53260 302039 320170 2135 16032 -1909
53268 302001 320135 2213 16003 -1852
53264 301972 320109 2176 16003 -1857
53263 301977 320110 2138 15999 -1871
53264 301982 320096 2118 16007 -1887
53271 301993 320116 2128 16026 -1884
53277 302012 320119 2127 16026 -1875
53284 302020 320134 2115 16025 -1875
53301 302050 320136 2116 16034 -1874
53318 302078 320156 2119 16033 -1862
53333 302122 320183 2142 16017 -1841
53354 302166 320205 2150 16019 -1849
53375 302218 320230 2128 16038 -1874
53403 302260 320252 2114 16045 -1882
53427 302289 320269 2113 16040 -1884
53455 302305 320279 2124 16022 -1873
53479 302346 320292 2133 16012 -1859
53510 302382 320312 2139 16019 -1873
53542 302419 320335 2136 16033 -1898
53571 302454 320338 2138 16041 -1911
53598 302509 320370 2236 16015 -1890
53625 302553 320393 2233 16028 -1886
53660 302606 320404 2195 16031 -1902
53704 302596 320394 2183 16025 -1909
53747 302486 320292 2199 16010 -1903
53773 302336 320158 2225 16000 -1911
53767 302186 320072 2227 16005 -1925
53731 302104 320019 2206 16013 -1936
53674 302060 319993 2202 16019 -1930
53622 302044 319993 2241 16004 -1898
53580 302034 319981 2297 15985 -1873
53548 302050 319999 2284 15987 -1868
53530 302088 320022 2228 16002 -1875
53523 302144 320053 2209 16024 -1876
53520 302202 320093 2231 16027 -1887
53528 302225 320115 2251 16019 -1906
53540 302237 320107 2234 16011 -1914
53559 302221 320084 2213 16005 -1907
53570 302189 320051 2188 15991 -1892
53577 302149 320021 2185 15982 -1877
53577 302127 319999 2217 15990 -1864
53571 302125 319994 2213 16001 -1890
53563 302142 319999 2194 16022 -1924
53560 302150 320002 2187 16038 -1932
53564 302164 320021 2188 16020 -1923
53569 302190 320030 2212 16000 -1910
53578 302207 320042 2228 16009 -1910
53586 302230 320059 2215 16024 -1911
53595 302279 320079 2185 16026 -1914
53611 302316 320098 2164 16023 -1917
53623 302347 320109 2186 16039 -1904
53647 302378 320129 2203 16058 -1906
53670 302410 320151 2175 16058 -1921
53687 302422 320149 2162 16043 -1930
53710 302442 320153 2182 16026 -1924
53739 302479 320178 2208 16013 -1908
53755 302558 320209 2207 16007 -1908
53779 302579 320228 2190 16015 -1921
53802 302636 320254 2190 16023 -1935
53842 302612 320215 2198 16020 -1941
53887 302501 320111 2237 16037 -1902
53901 302363 320019 2211 16032 -1890
53889 302242 319955 2185 16027 -1893
53839 302147 319891 2180 16021 -1908
53777 302070 319847 2205 16020 -1884
53714 302037 319847 2221 16021 -1865
53658 302036 319846 2205 16007 -1882
53616 302073 319871 2178 15994 -1890
53590 302086 319868 2162 15997 -1894
53574 302109 319895 2193 16017 -1888
53558 302145 319914 2225 16023 -1902
53559 302162 319920 2208 16023 -1924
53565 302187 319910 2183 16033 -1924
53568 302154 319889 2170 16021 -1916
53564 302126 319851 2155 15985 -1902
53557 302103 319831 2147 15981 -1888
53549 302096 319819 2136 16010 -1896
53527 302105 319821 2132 16027 -1918
53515 302093 319815 2131 16037 -1921
53504 302089 319812 2188 16039 -1910
53494 302098 319810 2203 16034 -1900
53490 302122 319826 2190 16017 -1893
53491 302133 319823 2173 16006 -1896
53499 302163 319846 2186 16003 -1891
53508 302205 319870 2197 16008 -1883
53520 302251 319884 2177 16024 -1900
53537 302274 319900 2165 16033 -1926
53555 302318 319926 2157 16036 -1934
53570 302350 319948 2173 16037 -1928
53590 302370 319952 2219 16036 -1908
53612 302409 319977 2230 16031 -1905
53629 302439 319991 2205 16022 -1922
53649 302471 320003 2188 16025 -1926
53669 302496 320030 2185 16017 -1920
53682 302540 320041 2210 16003 -1907
53709 302579 320064 2220 16003 -1899
53749 302571 320035 2193 16008 -1900
53791 302443 319922 2175 16007 -1913
53800 302286 319797 2170 16002 -1913
53774 302118 319700 2202 16007 -1903
53705 302020 319648 2219 16017 -1905
53610 301939 319606 2207 16026 -1896
53520 301886 319578 2213 16032 -1885
53440 301851 319561 2196 16008 -1909
53377 301861 319573 2165 15961 -1919
53328 301870 319578 2159 15967 -1893
53287 301868 319586 2164 16009 -1881
53253 301887 319582 2159 16030 -1916
53230 301882 319592 2153 16041 -1961
53220 301869 319564 2202 16035 -1918
53214 301838 319553 2171 16013 -1894
53194 301809 319500 2164 16006 -1892
53175 301765 319461 2157 16001 -1895
53145 301729 319434 2148 15998 -1894
53105 301718 319430 2137 16018 -1888
53071 301703 319414 2127 16032 -1894
53041 301692 319409 2121 16020 -1906
53022 301696 319410 2129 16024 -1901
53000 301691 319412 2172 16027 -1888
52986 301700 319400 2205 16019 -1883
52973 301701 319394 2188 16013 -1895
52962 301715 319410 2165 16015 -1913
52948 301736 319400 2159 16022 -1918
52946 301768 319420 2157 16010 -1915
52949 301801 319437 2162 15998 -1922
52955 301826 319450 2155 16002 -1931
52962 301855 319483 2149 16012 -1920
52977 301885 319486 2154 16018 -1887
52989 301911 319499 2254 15997 -1866
53000 301944 319504 2257 16001 -1877
53016 301963 319515 2235 16004 -1896
53032 302019 319537 2202 16013 -1897
53040 302058 319579 2193 16003 -1890
53057 302079 319588 2195 15989 -1894
53085 302033 319539 2184 15996 -1916
53121 301899 319411 2171 16002 -1919
53112 301735 319289 2165 16010 -1910
53066 301580 319196 2184 16030 -1899
52975 301452 319119 2239 16041 -1870
52868 301352 319064 2260 16034 -1857
52758 301306 319036 2212 16010 -1881
52664 301268 319022 2164 15984 -1898
52584 301230 319009 2178 15999 -1886
52509 301231 318967 2201 16022 -1890
52431 301199 318902 2179 16026 -1931
52373 301199 318874 2156 16033 -1941
52333 301195 318834 2147 16037 -1932
52313 301169 318800 2153 16034 -1912
52299 301150 318785 2185 16010 -1868
52279 301114 318759 2194 16000 -1857
52264 301065 318745 2167 16008 -1890
52239 301040 318749 2139 16015 -1910
52219 301049 318765 2121 16029 -1897
52202 301046 318781 2123 16021 -1905
52181 301053 318798 2136 16009 -1924
52167 301054 318823 2149 16005 -1921
52157 301068 318846 2152 16001 -1915
52150 301074 318851 2144 16003 -1917
52146 301091 318852 2190 16017 -1898
52140 301097 318849 2154 16016 -1904
52144 301107 318866 2143 16021 -1916
52158 301129 318889 2173 16019 -1914
52169 301184 318917 2206 16008 -1901
52178 301235 318956 2208 16001 -1897
52192 301263 318979 2204 16010 -1925
52211 301296 318992 2198 16011 -1945
52215 301317 318972 2188 16004 -1937
52210 301332 318934 2228 16001 -1923
52209 301358 318932 2261 15988 -1918
52218 301386 318929 2229 15986 -1911
52229 301425 318960 2199 16008 -1909
52226 301458 318951 2194 16015 -1915
52210 301473 318902 2211 16007 -1910
52191 301404 318745 2206 16010 -1907
52188 301232 318553 2178 16011 -1898
52172 301063 318419 2171 16010 -1905
52122 300904 318315 2171 16032 -1929
52019 300771 318229 2275 16025 -1902
51909 300704 318197 2253 15990 -1901
51817 300669 318192 2186 15972 -1904
51743 300643 318191 2161 15992 -1896
51674 300631 318194 2166 16007 -1899
51591 300619 318121 2166 16016 -1927
51538 300615 318077 2146 16028 -1958
51513 300648 318096 2136 16038 -1956
51514 300668 318123 2134 16036 -1932
51534 300687 318152 2138 16019 -1912
51527 300674 318111 2157 16007 -1907
51482 300613 318026 2152 16011 -1923
51449 300580 317973 2123 16027 -1928
51423 300550 317960 2105 16044 -1926
51400 300535 317961 2104 16016 -1956
51389 300551 317990 2109 15984 -1969
51397 300602 318066 2110 15987 -1947
51424 300669 318174 2102 15988 -1928
51464 300773 318320 2091 15993 -1918
51503 300870 318448 2113 15998 -1922
51544 300940 318552 2159 15976 -1925
51572 301023 318637 2161 15965 -1923
51602 301138 318722 2147 15985 -1931
51625 301231 318812 2146 16001 -1943
51654 301341 318901 2162 16007 -1953
51678 301466 319000 2193 16010 -1952
51713 301593 319093 2193 16009 -1941
51752 301688 319143 2188 16009 -1943
51787 301805 319234 2207 16013 -1951
51820 301912 319311 2224 16013 -1952
51859 302056 319407 2281 16017 -1923
51889 302196 319505 2262 16025 -1935
51920 302347 319625 2240 16013 -1947
51957 302500 319723 2236 16000 -1942
52001 302640 319822 2262 15989 -1937
52047 302765 319893 2268 15997 -1944
52104 302783 319916 2261 16001 -1961
52134 302753 319917 2298 15994 -1942
52121 302689 319899 2363 15988 -1908
52075 302657 319906 2374 16029 -1924
52016 302689 319950 2317 16041 -1973
51969 302801 320035 2291 16047 -1977
51937 302930 320139 2286 16038 -1958
51929 303079 320271 2316 16004 -1940
51938 303228 320371 2333 15967 -1930
51961 303376 320480 2307 15974 -1930
51989 303532 320591 2304 15990 -1935
52029 303622 320657 2332 15999 -1932
52066 303690 320699 2425 15995 -1920
52103 303729 320738 2440 16004 -1894
52124 303717 320740 2432 16015 -1873
52110 303688 320695 2443 15997 -1872
52081 303622 320616 2480 15988 -1875
52059 303576 320565 2490 16004 -1880
52061 303518 320524 2458 16014 -1875
52056 303448 320460 2426 16018 -1872
52049 303399 320389 2416 16020 -1880
52048 303336 320284 2439 16016 -1879
52070 303245 320175 2475 15994 -1864
52113 303116 320081 2502 15982 -1860
52167 302997 320018 2507 15995 -1855
52211 302901 319943 2502 15989 -1852
52229 302820 319845 2509 15973 -1851
52249 302731 319733 2495 15982 -1863
52278 302673 319675 2477 15998 -1890
52307 302708 319693 2474 15993 -1890
52322 302770 319721 2463 15988 -1866
52325 302784 319703 2483 15987 -1855
52321 302769 319658 2529 15966 -1861
52294 302781 319619 2531 15962 -1861
52265 302814 319589 2485 15991 -1850
52239 302858 319567 2448 16006 -1861
52221 302900 319555 2462 16000 -1870
52239 302884 319511 2472 15999 -1862
52224 302781 319351 2445 16002 -1850
52155 302590 319097 2443 15985 -1840
52077 302399 318896 2443 15975 -1836
51994 302260 318782 2420 15985 -1850
51909 302168 318737 2453 15986 -1846
51818 302076 318653 2465 15996 -1839
51703 301975 318513 2412 16026 -1877
51588 301896 318364 2367 16038 -1910
51496 301827 318216 2369 16030 -1919
51405 301720 318024 2400 16015 -1914
51352 301638 317913 2406 16005 -1901
51299 301595 317807 2412 16005 -1884
51284 301507 317698 2415 16014 -1876
51290 301404 317626 2399 16018 -1875
51325 301346 317626 2424 16046 -1858
51384 301329 317669 2432 16065 -1841
51432 301368 317773 2415 16046 -1842
51461 301452 317893 2451 16027 -1838
51500 301553 318043 2534 16011 -1779
51528 301685 318193 2619 16000 -1729
51534 301739 318242 2648 16002 -1755
51540 301744 318207 2692 16007 -1765
51541 301733 318145 2781 15994 -1744
51557 301758 318140 2851 15991 -1720
51625 301746 318172 3037 15925 -1603
51726 301790 318270 3050 15940 -1632
51830 301961 318521 2975 15977 -1689
51980 302162 318793 2995 15969 -1680
52151 302255 319011 3127 15919 -1622
52293 302365 319196 3256 15898 -1566
52418 302473 319353 3284 15919 -1547
52536 302581 319489 3278 15925 -1544
52648 302648 319585 3303 15951 -1566
52775 302679 319660 3318 16009 -1549
52904 302693 319707 3330 16003 -1486
53012 302753 319780 3351 15970 -1479
53089 302881 319885 3341 15944 -1492
53141 302999 319972 3360 15910 -1499
53176 303170 320086 3398 15905 -1507
53243 303200 320103 3362 15947 -1554
53333 303072 320037 3310 16000 -1597
53415 302900 319977 3264 16010 -1622
53470 302723 319913 3237 15969 -1609
53495 302573 319864 3261 15915 -1562
53503 302470 319817 3279 15904 -1563
53499 302417 319824 3289 15928 -1605
53480 302472 319892 3290 15942 -1637
53453 302577 319972 3271 15930 -1639
53427 302665 320019 3267 15913 -1640
53402 302772 320084 3255 15936 -1637
53373 302903 320158 3220 15964 -1652
53364 302999 320190 3175 15958 -1677
53389 302984 320171 3116 15951 -1682
53427 302943 320148 3047 15965 -1646
53453 302932 320133 2991 15990 -1642
53474 302917 320122 2989 16004 -1692
53487 302944 320144 3006 15997 -1706
53490 302979 320149 3038 15975 -1661
53495 303019 320169 3103 15956 -1620
53501 303021 320176 3133 15950 -1634
53518 303043 320189 3135 15965 -1658
53552 303045 320182 3154 15985 -1676
53581 303072 320205 3162 15984 -1684
53608 303119 320231 3122 15954 -1665
53634 303197 320267 3097 15937 -1642
53668 303250 320308 3112 15958 -1642
53712 303271 320322 3120 15978 -1654
53753 303324 320358 3137 15968 -1651
53794 303369 320381 3154 15955 -1642
53837 303420 320410 3153 15968 -1657
53877 303485 320454 3149 15972 -1678
53919 303539 320482 3144 15967 -1688
53959 303598 320526 3140 15968 -1692
53992 303681 320558 3079 15917 -1679
54023 303756 320615 3096 15940 -1708
54062 303803 320647 3105 15971 -1730
54113 303855 320664 3093 15975 -1701
54179 303803 320623 3083 15955 -1652
54226 303717 320566 3071 15941 -1653
54246 303600 320507 3031 15933 -1692
54237 303501 320467 3030 15951 -1716
54207 303436 320424 3066 15980 -1722
54170 303406 320421 3007 15970 -1724
54132 303388 320422 2992 15977 -1746
54106 303404 320422 3001 15992 -1771
54092 303403 320411 2996 15975 -1772
54081 303408 320406 2987 15954 -1748
54072 303436 320433 2989 15956 -1738
54066 303483 320454 2980 15971 -1750
54077 303504 320453 2974 15988 -1752
54086 303487 320438 2961 15996 -1746
54096 303482 320430 2946 15983 -1732
54099 303468 320407 2955 15960 -1707
54101 303472 320410 2955 15964 -1708
54095 303469 320423 2950 15981 -1730
54090 303504 320427 2953 15991 -1736
54089 303541 320457 2944 15981 -1733
54087 303594 320482 2936 15970 -1739
54095 303635 320504 2941 15983 -1753
54104 303676 320503 2948 15987 -1756
54114 303718 320530 2947 15983 -1767
54131 303783 320569 2946 15970 -1775
54144 303847 320601 2958 15944 -1739
54161 303940 320644 3003 15940 -1725
54177 304042 320704 3055 15954 -1752
54193 304172 320753 3076 15959 -1766
54202 304311 320808 3076 15948 -1758
54209 304499 320893 3080 15935 -1761
54219 304711 321027 3080 15939 -1781
54228 304955 321137 3066 15950 -1794
54223 305237 321259 3063 15955 -1801
54223 305474 321383 3069 15955 -1805
54244 305665 321461 3106 15943 -1753
54293 305773 321526 3155 15956 -1740
54340 305822 321540 3151 15964 -1763
54337 305914 321564 3147 15934 -1781
54295 305998 321596 3176 15923 -1770
54216 306088 321600 3194 15950 -1793
54127 306246 321644 3192 15963 -1843
54039 306432 321705 3213 15973 -1876
53965 306591 321767 3237 15984 -1867
53897 306748 321823 3227 15896 -1817
53833 306899 321847 3240 15919 -1814
53785 307032 321879 3247 15939 -1834
53738 307163 321929 3257 15953 -1855
53713 307298 321976 3254 15956 -1877
53705 307382 322000 3256 15957 -1901
53686 307467 322022 3291 15961 -1905
53667 307528 322035 3322 15957 -1877
53651 307561 322044 3329 15949 -1868
53638 307589 322050 3286 15921 -1882
53626 307657 322107 3310 15939 -1906
53610 307694 322115 3346 15959 -1925
53596 307737 322109 3365 15946 -1921
53589 307778 322132 3362 15922 -1911
53587 307824 322146 3367 15925 -1914
53590 307872 322160 3396 15948 -1930
53591 307949 322200 3416 15950 -1945
53590 308011 322210 3421 15940 -1957
53595 308075 322229 3400 15914 -1968
53604 308124 322250 3368 15879 -1964
53619 308193 322282 3379 15884 -1952
53635 308265 322317 3404 15923 -1958
53644 308330 322347 3409 15931 -1965
53651 308374 322358 3422 15911 -1972
53668 308416 322363 3438 15909 -1974
53689 308455 322376 3428 15926 -1960
53703 308501 322384 3417 15944 -1949
53725 308543 322390 3420 15946 -1962
53749 308576 322406 3410 15914 -1989
53767 308627 322428 3369 15883 -1968
53784 308696 322444 3361 15882 -1922
53803 308750 322457 3393 15911 -1916
53842 308768 322465 3375 15912 -1941
53921 308687 322454 3346 15872 -1978
53965 308583 322393 3362 15889 -1978
53953 308484 322352 3387 15939 -1971
53908 308381 322295 3382 15959 -1982
53826 308342 322277 3361 15963 -1968
53723 308312 322217 3363 15954 -1955
53628 308300 322169 3369 15883 -1968
53537 308313 322126 3361 15882 -1922
53468 308343 322102 3393 15911 -1916
53421 308364 322072 3375 15912 -1941
53372 308416 322064 3346 15872 -1978
53326 308477 322062 3362 15889 -1978
53307 308492 322057 3387 15939 -1971
53294 308495 322042 3382 15959 -1982
53269 308493 322012 3361 15963 -1968
53246 308483 321992 3363 15954 -1955
53207 308488 321960 3339 15861 -1899
53160 308489 321940 3362 15910 -1899
53125 308505 321929 3364 15934 -1918
53092 308527 321915 3385 15930 -1927
53070 308538 321921 3395 15924 -1919
53050 308564 321923 3376 15927 -1911
53035 308596 321919 3386 15937 -1910
53021 308613 321914 3408 15931 -1907
53018 308643 321920 3419 15924 -1908
53017 308675 321905 3402 15913 -1910
53015 308705 321913 3398 15913 -1923
53018 308743 321919 3419 15940 -1950
53023 308776 321911 3432 15949 -1954
53026 308818 321914 3439 15926 -1940
53026 308855 321919 3449 15899 -1937
53023 308906 321924 3460 15897 -1952
53032 308942 321916 3467 15909 -1971
53043 308966 321929 3484 15925 -1984
53050 309010 321925 3501 15927 -1982
53054 309054 321937 3463 15898 -1976
53066 309087 321961 3472 15908 -1982
53080 309141 321982 3505 15921 -1984
53086 309193 322006 3519 15912 -1998
53097 309250 322014 3511 15891 -2000
53117 309280 322035 3497 15907 -1985
53161 309255 322007 3479 15930 -1970
53198 309141 321959 3478 15936 -1970
53211 308997 321927 3500 15938 -1976
53174 308883 321895 3497 15919 -1974
53088 308813 321851 3466 15872 -1978
53002 308767 321820 3481 15853 -1960
52923 308732 321789 3518 15872 -1934
52855 308748 321799 3513 15876 -1957
52797 308763 321794 3483 15867 -1980
52763 308778 321791 3480 15883 -1967
52724 308815 321803 3509 15925 -1967
52707 308869 321815 3517 15938 -2004
52708 308871 321821 3500 15934 -2027
52713 308846 321808 3471 15929 -2022
52712 308821 321785 3433 15893 -2001
52700 308788 321756 3442 15883 -1981
52678 308751 321721 3481 15904 -1986
52661 308723 321694 3482 15912 -1997
52632 308715 321692 3479 15906 -1997
52608 308724 321691 3494 15921 -1986
52588 308748 321694 3509 15935 -1986
52580 308771 321700 3521 15912 -1995
52569 308790 321703 3522 15903 -1984
52565 308821 321708 3505 15900 -1963
52565 308858 321714 3421 15865 -1969
52568 308880 321732 3456 15905 -1986
52578 308913 321742 3494 15934 -2010
52589 308950 321758 3520 15925 -2014
52597 308981 321782 3519 15904 -1998
52609 309019 321780 3517 15901 -2003
52623 309059 321794 3534 15908 -2027
52644 309098 321824 3551 15913 -2036
52659 309137 321846 3551 15917 -2040
52675 309187 321874 3489 15849 -2062
52707 309217 321891 3508 15858 -2043
52731 309260 321921 3536 15870 -2029
52747 309308 321948 3553 15869 -2019
52772 309343 321975 3558 15878 -2018
52798 309391 321996 3546 15897 -2023
52851 309357 321987 3518 15910 -2027
52903 309217 321914 3496 15932 -2024
52926 309060 321852 3491 15945 -2028
52902 308909 321794 3489 15894 -2042
52837 308794 321753 3544 15896 -2017
52747 308705 321712 3573 15911 -2001
52660 308652 321679 3548 15893 -1998
52577 308631 321655 3535 15865 -2015
52517 308640 321653 3558 15884 -2026
52467 308640 321647 3563 15916 -2035
52430 308664 321647 3551 15932 -2044
52402 308721 321659 3553 15938 -2047
52392 308748 321678 3537 15913 -2037
52402 308749 321676 3499 15874 -2014
52405 308738 321671 3507 15865 -1999
52404 308717 321661 3514 15877 -1994
52395 308670 321621 3491 15885 -1999
52381 308650 321593 3486 15896 -2014
52357 308641 321597 3475 15917 -2021
52340 308648 321582 3459 15935 -2018
52321 308651 321588 3472 15929 -2009
52314 308668 321601 3490 15929 -1992
52311 308696 321608 3491 15919 -1980
52306 308720 321618 3459 15878 -1977
52307 308748 321635 3454 15887 -1975
52313 308781 321641 3486 15916 -1983
52326 308819 321661 3497 15919 -1990
52340 308851 321680 3514 15901 -1985
52351 308900 321703 3535 15889 -1991
52365 308951 321714 3542 15902 -1991
52384 308985 321730 3564 15912 -1986
52403 309021 321738 3595 15911 -1999
