2025-08-24 01:58:21    绿光---红外光---红光---X轴---Y轴---Z轴
2812 10059 19600 -3944 -15390 3303
2804 10044 19573 -4312 -15513 2392
2924 10585 20623 -4687 -15799 2221
3120 11396 22022 -4972 -16071 2700
3079 11218 21669 -5045 -16218 3267
2995 10888 21051 -4616 -16102 3331
2815 10151 19701 -4232 -15798 2934
2761 9975 19412 -3882 -15384 2354
2867 10426 20233 -4074 -15366 2571
2985 10897 21108 -4376 -15660 3239
3125 11452 22096 -4734 -15899 3759
3086 11251 21749 -4782 -15936 3738
3008 10915 21177 -4596 -15793 3283
2944 10651 20718 -4520 -15616 2838
2962 10731 20913 -4525 -15541 2771
3093 11267 21892 -4781 -15664 3172
3167 11559 22401 -5015 -15820 3648
3162 11549 22347 -4942 -15666 3740
3074 11195 21674 -4677 -15389 3340
2970 10799 20950 -4514 -15189 3078
3170 11531 22469 -4973 -15640 3457
3137 11406 22213 -5066 -15691 3492
3086 11229 21840 -5004 -15669 3499
3021 10984 21362 -4828 -15585 3498
3007 10945 21285 -4678 -15519 3518
3027 11017 21424 -4587 -15500 3543
3043 11069 21534 -4702 -15617 3497
3041 11055 21515 -4808 -15714 3410
3019 10962 21354 -4905 -15806 3354
3022 10967 21368 -4941 -15879 3345
3037 11021 21472 -4932 -15930 3372
3061 11105 21642 -4860 -15933 3382
3075 11148 21738 -4776 -15891 3355
3088 11187 21829 -4722 -15839 3319
3131 11346 22149 -4674 -15783 3317
3178 11517 22459 -4645 -15731 3359
3165 11452 22380 -4627 -15684 3396
3213 11642 22737 -4581 -15639 3434
3195 11560 22598 -4569 -15630 3456
3193 11572 22611 -4531 -15613 3416
3162 11465 22387 -4478 -15612 3374
3175 11522 22513 -4446 -15657 3347
3258 11842 23115 -4410 -15687 3307
3306 11994 23453 -4440 -15722 3273
3361 12170 23833 -4465 -15738 3221
3380 12210 23943 -4559 -15772 3218
3439 12442 24390 -4659 -15832 3282
3514 12704 24856 -4669 -15865 3374
3601 13022 25489 -4618 -15870 3423
3794 13726 26839 -4493 -15823 3345
3974 14309 28067 -4427 -15782 3233
4274 15352 30157 -4400 -15824 3124
4703 16834 33073 -4420 -15910 3098
5467 19489 38254 -4435 -15965 3109
6420 22715 44185 -4349 -15967 3029
6925 24253 47191 -4246 -15949 2916
7402 25898 50288 -3805 -15993 2733
7702 26865 52015 -3723 -16085 2996
7760 27043 52411 -3591 -16204 3301
7999 27897 53970 -3578 -16417 3511
8392 29237 56580 -3659 -16559 3591
9307 32416 62377 -3825 -16564 3610
10378 35954 68941 -4100 -16491 3641
12007 41336 79092 -4338 -16366 3680
14222 48457 92486 -4686 -16287 3901
16459 55504 105628 -5540 -16268 5078
19157 63602 120385 -5990 -16322 5875
21512 70755 133061 -6133 -16164 6519
27413 90378 166108 -5896 -15640 6742
36022 117602 209029 -5319 -14746 6438
38437 123206 216405 -4849 -14124 5883
37850 121036 212360 -4887 -13876 5617
33294 107570 189270 -5028 -13448 5689
21529 70315 128213 -5045 -13051 5920
11668 38321 71260 -4855 -12603 6217
6563 20509 39217 -4134 -12193 5986
5980 17704 37554 -4134 -11409 5108
15474 48057 92639 -4262 -12108 3210
23258 72848 132375 -5167 -15156 2997
30466 94290 167359 -7524 -17211 5093
39358 123195 211801 -5853 -17378 6328
42363 133060 226287 -3427 -17112 5953
42945 134141 228178 -5914 -15592 4480
40826 123440 210126 -7860 -14008 3088
28443 80042 141531 -7695 -14131 1984
15750 38700 80002 -7795 -14896 713
10667 24196 57118 -7079 -15344 -365
15365 41586 85571 -6473 -14875 -356
23942 70651 126778 -6917 -14102 290
30322 94382 162920 -7175 -13926 436
39620 129211 213291 -7718 -14958 -1011
48573 164995 266488 -8405 -14215 -450
53612 187957 304397 -7868 -13688 171
56270 206835 336395 -6831 -14643 -1408
57501 222895 359806 -5822 -15343 -1899
58250 235107 371274 -5345 -15832 -2448
55925 237109 365746 -5627 -15713 -3343
55270 221376 347021 -5588 -15751 -3903
37979 123230 199079 -5309 -15279 -4068
6524 13484 31161 -5282 -14104 -5130
1436 1344 7785 -4969 -13257 -6465
1275 1103 6879 -2597 -12736 -9210
966 927 5220 888 -13076 -11912
847 888 4509 -3985 -13900 -9882
728 887 3756 -9432 -13303 -8735
710 901 3635 -4871 -11691 -10421
724 922 3727 -4087 -11510 -11069
750 951 3870 -4572 -11379 -12248
722 960 3667 -5435 -10999 -13026
694 948 3514 -5679 -11165 -13463
715 918 3710 -5770 -10734 -13503
763 872 4068 -5670 -9665 -13163
779 806 4203 -5543 -8817 -13020
690 728 3627 -5633 -8249 -13434
537 666 2612 -5596 -7566 -13974
309 652 897 -5349 -6897 -14393
304 829 549 -4777 -6089 -14740
347 1029 557 -3556 -4989 -15578
323 909 548 -1621 -3800 -17078
309 844 547 -1939 -3390 -17126
306 824 550 -5890 -3402 -14433
305 811 550 -7560 -2673 -12791
305 808 551 -6907 -2135 -13466
305 819 556 -7130 -2220 -14135
303 823 552 -7140 -2210 -14454
301 823 548 -6956 -2272 -14563
300 829 546 -7122 -2671 -14609
303 871 546 -7623 -3024 -14583
333 1025 548 -7922 -3240 -14471
403 1365 578 -8034 -3195 -14474
493 1780 733 -8043 -2877 -14633
547 1990 959 -7799 -2384 -14796
462 1552 844 -7424 -1832 -14947
337 934 609 -7374 -1459 -15189
305 791 618 -7416 -1205 -15490
329 930 792 -7029 -813 -15571
365 1128 1067 -6673 -1029 -15694
390 1245 1247 -5924 -625 -15698
393 1254 1252 -5619 -613 -15769
392 1244 1207 -5241 -719 -15793
389 1220 1152 -5035 -639 -15862
378 1157 1059 -5019 -519 -16033
364 1072 948 -5073 -505 -16109
357 1021 885 -5151 -521 -16143
361 1036 902 -5082 -290 -16236
414 1273 1206 -4804 15 -16296
908 3510 4341 -4659 150 -16324
19246 74154 97496 -4593 188 -16321
47137 260408 332060 -4408 158 -16277
49180 264247 355599 -4309 31 -16164
34352 152427 208212 -4612 -1393 -14107
12919 47040 56527 -4268 -3079 -14202
2153 8923 9278 -3736 -3612 -16590
768 3086 2862 -4684 -3033 -16370
513 1852 1643 -4118 -2991 -15295
426 1399 1205 -4040 -3134 -15216
383 1166 977 -4445 -3166 -15435
357 1036 855 -4788 -2913 -15785
341 956 784 -4796 -2734 -15885
331 907 743 -4695 -2750 -15817
329 898 739 -4670 -2705 -15788
342 969 815 -4697 -2538 -15807
394 1222 1097 -4804 -2375 -15830
657 2609 2902 -4973 -2259 -15878
10565 42168 52968 -5018 -2203 -15896
46488 257796 287307 -5015 -2191 -15833
52457 317284 443431 -5073 -2253 -15694
53997 307131 431816 -5550 -3956 -14330
50379 199022 304434 -5031 -4125 -14804
9671 38622 70146 -4293 -2650 -16187
1680 7025 8189 -5189 -2388 -15666
711 2631 2817 -5535 -2368 -15357
502 1630 1615 -5247 -2585 -15243
425 1267 1185 -5508 -2616 -15363
387 1092 979 -5904 -2602 -15471
364 994 868 -6129 -2609 -15348
353 943 812 -6182 -2756 -15147
345 910 777 -6183 -2709 -15217
339 879 751 -6184 -2304 -15608
334 860 735 -6258 -1969 -15939
335 864 744 -6422 -1897 -15962
351 948 843 -6512 -1953 -15827
447 1438 1473 -6556 -1988 -15661
5143 21204 27374 -6562 -1935 -15494
52785 221701 238217 -6428 -1924 -15244
59339 349818 447694 -9093 -2265 -10128
59651 331019 444216 -7128 -4569 -12467
42322 174538 271384 -3610 -6129 -18356
5807 22426 48157 -5889 -4810 -16146
1127 4516 5256 -6834 -4125 -15208
614 2185 2400 -6324 -4444 -14799
494 1601 1677 -6273 -4390 -14695
445 1358 1367 -7025 -4143 -14776
416 1211 1186 -7872 -4193 -14494
396 1116 1073 -7689 -4263 -14310
385 1054 1001 -7379 -4144 -14458
377 1011 952 -7247 -3983 -14672
372 990 926 -7291 -3912 -14727
373 1001 938 -7377 -3909 -14660
390 1085 1042 -7615 -3944 -14469
452 1422 1470 -7854 -3958 -14283
944 4135 5390 -7940 -3925 -14186
22567 85395 110315 -7884 -3905 -14159
43157 295863 362987 -7544 -4057 -13855
46183 319177 441629 -6957 -4703 -13780
51355 303128 425872 -6874 -4866 -14162
36725 148302 278528 -7664 -4324 -14110
3325 13766 45414 -8247 -4086 -13819
781 2961 3323 -7958 -4119 -13715
506 1626 1681 -7617 -4074 -13839
438 1283 1272 -7771 -3839 -14204
405 1121 1084 -7911 -3630 -14554
389 1029 980 -7936 -3584 -14664
380 983 930 -8128 -3687 -14492
379 982 932 -8207 -3638 -14513
391 1046 1018 -8222 -3608 -14428
433 1275 1315 -8177 -3573 -14263
589 2133 2514 -8137 -3528 -14114
1660 7961 11291 -8339 -3450 -13984
10988 49456 73933 -8616 -3314 -13904
29996 109581 161414 -8656 -3225 -13804
28422 101953 147202 -8642 -3103 -13702
13177 52833 74225 -8879 -2931 -13467
5041 22644 31132 -8951 -2855 -13377
4204 19571 27479 -9006 -2799 -13335
10285 44451 64799 -9270 -2612 -13405
13908 57133 82846 -9593 -2407 -13455
8921 38327 55572 -9749 -2288 -13397
4417 19650 28225 -9624 -2184 -13303
1918 8415 11946 -9541 -2068 -13220
965 3884 5249 -9699 -1897 -13118
629 2226 2798 -10189 -1499 -12790
495 1551 1814 -10364 -1313 -12528
430 1224 1351 -10751 -1129 -12188
398 1054 1123 -11242 -723 -11805
382 965 1005 -11742 -314 -11439
371 909 936 -13224 -1518 -10122
373 917 934 -14781 -2189 -8651
391 1029 1027 -14949 -1572 -8037
406 1117 1097 -14269 -1680 -7894
417 1197 1169 -13751 -1034 -8204
427 1263 1229 -13719 -316 -8312
429 1282 1195 -14154 -671 -8106
432 1306 1095 -14875 -972 -7739
442 1346 1000 -15317 -1201 -7215
459 1418 977 -15514 -1134 -6771
481 1528 1005 -15499 -698 -6460
504 1633 1045 -15529 -484 -6216
522 1710 1081 -15397 -242 -6221
531 1752 1110 -15229 -260 -6527
556 1857 1174 -15086 -35 -6504
653 2244 1480 -15417 848 -5125
800 2809 2213 -16148 1583 -3774
876 3021 2978 -17011 2248 -2624
912 3122 3334 -17026 2758 -2043
859 2897 3201 -16481 2818 -1787
759 2496 2780 -16237 2829 -1452
678 2174 2426 -16215 3515 -982
649 2062 2272 -15934 4289 -915
613 1908 2033 -15800 4288 -1029
583 1785 1863 -15086 -35 -6504
567 1715 1771 -15417 848 -5125
527 1544 1572 -16148 1583 -3774
495 1418 1427 -17011 2248 -2624
481 1358 1362 -17026 2758 -2043
464 1286 1282 -16481 2818 -1787
446 1211 1194 -16237 2829 -1452
433 1161 1135 -16215 3515 -982
423 1125 1089 -15934 4289 -915
412 1075 1024 -15800 4288 -1029
401 1028 959 -15398 4173 -1068
394 994 917 -15224 4099 -995
394 1004 944 -15247 4848 -1133
436 1139 1180 -15291 5698 -1408
432 1133 1081 -15407 6477 -1703
418 1133 957 -15063 6857 -1953
423 1186 917 -14545 7027 -1820
438 1270 908 -14136 7187 -1338
449 1306 902 -13700 7465 -1183
448 1285 888 -13954 8147 -1195
427 1147 881 -12459 8911 -4823
401 1022 871 -10687 10109 -4212
390 964 864 -12072 10155 3525
384 942 864 -13835 8669 6622
383 938 874 -13501 8103 5593
385 943 892 -12971 8118 5574
383 938 883 -12800 7756 6632
381 943 864 -11686 6883 6940
396 1122 869 -11660 5492 7731
390 1090 863 -13082 3974 8989
399 1186 868 -13836 2854 8341
420 1344 881 -13935 2418 6550
425 1371 884 -14393 1831 5517
482 1720 918 -15286 889 5607
494 1742 987 -15209 390 5259
626 2379 1432 -14686 -56 4442
996 4128 3582 -15441 -2058 4556
2076 9302 10788 -16555 -4413 4604
4562 20583 26504 -16916 -5540 4203
15047 65846 92779 -17162 -6063 4825
44507 236431 316420 -16152 -5569 5710
46749 299890 426486 -14424 -4277 6025
52224 321245 441806 -13500 -3037 5660
57251 332529 449973 -13352 -2323 4530
61319 340631 456335 -14412 -2471 3920
64734 347340 460763 -15088 -2691 4055
67029 350753 462937 -14834 -2559 4802
68245 349597 463312 -13693 -2108 5590
69451 342123 457398 -11822 -1737 5464
70284 332994 447708 -14744 -3745 9815
70550 326484 440118 -16865 -4542 12653
71099 324969 437747 -14658 -2372 9993
71676 322999 434133 -14289 -980 8618
72272 319235 428408 -14740 113 8055
72774 315373 422784 -15190 1011 7415
72183 315321 422151 -15483 1849 6320
72020 318087 424286 -15748 2699 4906
72468 319045 424270 -15787 3017 2886
72816 316079 420111 -15583 2852 457
73404 310805 414172 -15567 2855 -1885
70912 304246 404315 -12999 3919 -8191
71813 300225 400632 -13098 4421 -8074
72121 296726 398277 -13163 5473 -7063
71185 301172 402989 -13120 6399 -5724
71822 311900 412934 -13209 6848 -4639
73811 319170 420189 -13328 6843 -3966
74998 323468 424650 -13459 6731 -3861
75835 323427 424998 -13679 7290 -4086
75460 319282 424515 -13670 8203 -4224
78581 307608 428018 -13466 8857 -3985
82401 286333 426457 -13075 9084 -3229
78767 253466 394941 -12534 9380 -2439
69282 226120 355616 -12413 10476 -1951
64056 237670 376154 -12729 10959 -1851
59428 227171 356986 -13226 10336 -2437
46095 152547 240452 -13640 9315 -3265
20942 63019 113779 -13400 7333 -3902
6645 19846 35142 -13415 6229 -3334
5080 19608 31431 -13605 6646 -1161
4422 18614 28887 -13439 6843 1396
4488 18719 29063 -13782 7909 5881
4161 17312 26829 -12863 7276 7228
4054 16563 25876 -11572 7072 8494
3912 15575 24538 -10426 7042 9703
3604 14335 22498 -8230 4884 10302
3139 12701 19507 -9760 679 13468
2676 11190 16525 -10721 -997 11415
1847 7777 10818 -9347 1163 5908
1628 6369 8485 -10867 3351 6390
1721 6671 7529 -12525 5596 6875
2484 11096 11046 -12788 7097 7569
3660 16746 15137 -12371 8056 7846
3620 16150 13506 -11689 7307 7641
2284 9966 8498 -11177 6025 7497
2301 10299 8605 -11955 3906 5794
5877 24545 19957 -13528 3736 3952
10537 40318 36421 -12406 7277 5395
6479 26462 21831 -8376 7916 10512
3723 16200 15651 -5855 6101 16845
4734 18557 18787 -5277 4627 19989
8034 30926 33866 -4377 3628 16820
8311 30842 33918 -3293 3410 12641
8305 32177 37455 -3077 1237 13754
11237 46089 58293 -2791 514 17186
16486 65290 86024 -1165 753 18183
24644 93982 125117 -343 -1294 16295
30937 111438 146493 -552 -2013 15336
25109 92645 114587 -3268 -4148 18266
19927 74500 88388 -5049 -6922 19161
27772 96782 120166 -2739 -7499 15640
31534 107604 135328 -573 -7139 13248
42759 145062 200649 944 -6631 13254
56266 202173 291916 3309 -5577 15232
57320 208732 298793 5007 -4880 17992
50656 171666 239929 3726 -6002 19536
48970 164642 228470 4802 -5847 17954
53486 179101 249065 6376 -5149 14463
48849 161463 221104 1525 -5563 12459
37456 122747 157110 -38 -4735 11968
20157 68504 72609 4419 -3473 13439
6815 25245 19943 6966 -2979 17300
3094 10230 13520 6673 -1864 20014
3695 10455 22611 6760 -39 18783
5890 17751 37810 7721 1028 16449
9114 29376 58177 6664 1393 17004
13401 44411 84132 4443 2116 18881
15372 50160 95670 2075 3279 20734
19251 62799 117366 -1571 4522 21939
26115 85074 154220 -5186 4937 19883
34762 112889 197756 -8569 2855 13759
37552 121538 208910 -9225 1092 12338
33991 109190 188693 -10264 -590 11173
27247 86321 152065 -11333 -2370 10533
19021 58655 107764 -11563 -5105 9841
13428 40307 77466 -11611 -5669 9489
9814 28728 56537 -11649 -4316 9796
7180 20487 41215 -11919 -3188 10100
5064 13887 28840 -12539 -2262 9917
3291 8685 18326 -12554 -1405 9111
2144 5790 11458 -12069 -158 8685
1789 5166 9169 -11530 1142 9116
1634 5250 7671 -11152 2603 10195
1712 6270 7338 -11023 3762 10264
2229 8990 9169 -10710 4933 9505
3442 14370 14605 -9916 6339 9216
5147 21393 22424 -9043 7619 8991
7149 29375 31906 -8015 8404 8945
10174 41138 46918 -6697 9061 9100
14173 56234 67033 -5395 10185 8783
17247 66964 81027 -4027 11328 8146
18040 68876 82965 -2503 12071 7685
18637 70274 84211 -880 12455 7280
19186 71618 85343 499 12773 6672
18861 69969 82135 1162 12846 6040
17284 63886 72551 1734 12992 5302
15495 57228 62667 2420 13186 4114
13623 50385 53273 2774 13106 2683
10064 37725 37475 3503 13453 1193
6523 24920 22971 4700 14104 -380
4600 17889 16240 4897 12788 -1953
4387 17334 17073 4685 12100 -1876
6134 24876 26735 5613 12157 -1983
10004 40272 44726 6805 12674 -2587
13801 55211 64061 6852 12909 -3137
16370 63695 76116 6624 13232 -3140
10429 39845 47148 6290 14336 -2780
6200 22842 27078 5585 15359 -2465
4447 15718 19087 4254 15965 -1862
3653 12784 15802 7410 18516 -1042
4945 17424 21265 7596 17516 111
4976 17373 21317 5049 15747 1006
5393 18918 23755 2774 15151 1331
5262 18556 23788 2427 15413 -613
5462 20343 26597 2004 15667 -4371
7312 28221 35753 1246 15398 -7248
10770 43377 52438 363 15694 -6330
15636 63476 74203 286 15782 -4553
18846 76092 88302 265 15420 -4107
18527 74454 89024 1163 13160 -1881
19969 79862 101514 3375 11974 1369
22989 89935 121521 3534 13508 2803
26042 100427 139585 1267 14007 2063
28273 108429 153533 -1533 14508 844
30520 118190 168270 -4476 15085 -426
32785 128042 182652 -5969 15858 -2071
34806 138014 195435 -6222 15948 -2460
34041 134502 190487 -8952 13699 -4587
32119 122801 175200 -9138 13115 -4946
29333 107460 155383 -9090 12374 -5004
25856 91130 133798 -8862 12009 -5507
21719 74300 111554 -9033 11987 -6275
17883 59680 93294 -9611 11880 -6540
15851 53503 85728 -9133 11889 -6185
14049 48925 77813 -8936 11591 -6378
11796 42804 65990 -9861 11119 -6828
10111 38658 56042 -10665 10887 -6702
9112 36153 49837 -11164 10655 -6490
8767 36168 46659 -11649 10392 -6439
8147 34691 41679 -11297 10771 -5935
7238 31541 35348 -9849 11688 -4895
6312 27864 29409 -8201 12694 -3601
5576 24787 25753 -6657 13585 -2348
5478 24563 26269 -5352 14042 -1851
6249 28307 32560 -4417 14672 -2069
8401 39276 51016 -3439 15503 -2572
13805 66757 94287 -2355 16127 -2942
21682 103546 147932 -1451 16505 -2890
26111 118434 166519 -38 16241 -3136
25576 109102 152104 1434 15849 -3940
24033 96941 135519 2480 15831 -5140
25703 102372 140283 3246 15398 -6784
29744 120484 160072 3219 14374 -8407
34474 142989 186961 2316 13485 -9264
39739 169029 222512 277 13175 -8004
44380 191211 250463 -2187 12811 -6319
42326 177120 233380 -4129 12375 -5184
37099 147228 200261 -5318 12268 -3287
28729 91553 138481 -6199 12360 -431
28909 80924 124667 -7711 12839 2217
35024 95385 141662 -9264 13668 3343
43164 112194 164667 -9981 14353 2805
54133 132634 192362 -10091 14484 934
63684 147604 211199 -9046 14276 -633
71917 161625 227279 -8264 14003 -954
78657 173523 240309 -9049 13986 -184
81668 178382 246053 -9601 13887 308
81759 180558 249505 -9214 13523 148
82869 189242 260494 -8509 13426 761
85186 208939 283415 -7616 13499 1879
86080 227148 302809 -6878 13840 3072
86662 238072 314891 -5311 14592 4578
87209 245273 322731 -2128 15667 6316
85619 249413 327746 361 16246 7345
84274 251094 329611 449 15948 7883
83382 251195 329653 -972 15265 8624
82999 250963 329381 -2809 14727 9183
82906 250540 328847 -4693 14630 9877
83367 251243 330000 -4583 14410 10028
84387 251168 329935 -4504 13734 10228
85188 250947 329787 -4779 12738 10635
85811 249985 329388 -5465 11935 10601
86199 249938 330923 -5365 11427 10599
86709 248274 330688 -5244 11003 10237
90166 240606 323772 -6611 11116 8351
92942 228286 314868 -8581 11001 6827
92515 227831 322438 -9587 10615 5545
90437 226949 329432 -9821 10337 4166
90129 233810 342992 -9770 10469 3605
85477 231673 338528 -9922 11036 3991
80324 226739 330148 -9548 11316 4038
79903 241146 348720 -9904 11054 2425
75899 273730 372926 -10999 10787 563
61108 253695 374983 -11491 10537 -692
55603 205339 323113 -12133 10166 -1657
35917 131220 210240 -12625 10073 -2101
19393 72247 113772 -11382 10481 -2076
8415 31673 46747 -10074 11094 -1809
6146 23124 31149 -9982 11699 -1385
7015 25545 33638 -10351 12099 -870
7969 28946 37835 -10700 12158 -628
8984 33068 42569 -9981 12416 -606
9735 35840 45476 -8536 13135 -118
10156 37225 46608 -8529 12249 74
10270 37569 46390 -10910 10047 235
10471 38545 45758 -13157 8944 1610
11289 42079 47983 -14477 8509 2966
12348 46537 52154 -14363 8383 3540
13409 50865 56142 -14314 7974 3276
14673 55995 60394 -14115 7712 3494
16164 61993 65818 -13509 7898 3754
16880 64910 68475 -13401 8031 3587
16840 64705 68349 -13367 7986 3507
16655 63671 67266 -13368 7790 4090
14790 55205 60054 -13371 7594 4896
12459 44485 56156 -13203 7520 5465
13216 45999 66225 -13307 7622 6019
17456 62728 87760 -13220 7672 5985
25292 101229 127478 -13511 7690 5619
28145 147346 164713 -13487 7705 5351
25260 201114 210532 -13372 7774 5200
35033 296688 305009 -13539 7977 4293
42988 356398 355763 -13458 8374 2893
48369 385799 378473 -13009 8960 1624
50809 398287 388477 -12483 9685 569
51578 406977 396308 -11899 10492 -456
51369 412930 402626 -11519 10761 -1889
50764 414966 405563 -11218 10593 -3513
50609 415362 406711 -10996 10675 -4734
51219 413650 405540 -10862 10866 -5407
52411 410024 402620 -10569 11070 -5675
54962 404801 403144 -10370 11213 -5638
64289 430308 442395 -10254 11183 -5323
62203 435174 437487 -10226 11062 -4862
63408 435888 439614 -10130 11138 -4363
64078 440625 438404 -10082 11318 -3906
63381 428928 428977 -10342 11266 -3446
58495 378139 381313 -11380 10883 -2808
52981 339863 347059 -13700 9499 -2036
53608 344291 352581 -15185 7916 -1600
54028 332932 341862 -14573 7661 -1890
52019 309259 319769 -14032 7690 -2140
44837 258538 270237 -14074 7676 -2253
41460 234330 244124 -13312 8451 -2545
39522 218673 229376 -12898 9050 -2532
40044 220782 232902 -13456 8896 -2628
36715 197678 209452 -13804 8826 -2898
30611 159561 169904 -13396 8974 -2590
25418 129412 137904 -12657 9307 -2530
22245 111439 118551 -12294 9655 -2585
19624 97134 103024 -12274 9860 -2486
18896 92759 98885 -12063 10545 -2581
21894 108082 116756 -11819 11280 -2570
26420 131880 143809 -11420 11566 -2124
28785 145474 158805 -10930 11584 -1438
26727 133734 146038 -11154 11914 -687
23935 116027 126927 -11518 11625 -236
20782 97691 106666 -12045 10907 413
18476 87192 94609 -12387 10137 1153
18821 95224 101619 -12412 9592 1665
21061 112473 119496 -12641 9068 1871
24651 134170 143955 -13087 8511 1803
27986 153840 166245 -13537 8332 1791
31097 172949 187969 -13661 9101 2241
33818 190266 207026 -13360 9710 2556
36015 205665 223040 -13082 9616 2370
38140 223233 240711 -13051 9389 2129
40051 236741 253923 -13145 9159 1801
41741 247079 264484 -13165 9107 1470
41844 244120 261467 -13000 9202 1330
38564 220461 236665 -12307 9630 1544
33626 188742 203629 -12001 9938 1562
30136 163784 175110 -12546 9774 1311
22746 114220 120270 -12859 9599 1481
18498 83856 90547 -12960 10049 1677
18311 76804 86330 -12214 10829 1862
18500 74690 86109 -10969 10799 2517
18277 74073 86353 -10292 11262 2890
17489 71492 82508 -10191 12242 3019
15511 64413 70617 -10323 12480 3361
15701 66482 68538 -10377 12500 3528
17034 71524 72168 -10372 12489 3728
18052 74578 75629 -10442 12608 3905
19372 80075 82067 -10456 12686 4010
21354 89879 92447 -10305 11879 4157
24132 103907 107082 -10863 10039 4613
27243 119012 123720 -11054 9716 4825
33157 148898 156904 -11496 9598 4673
41019 193764 204281 -11998 9540 4430
44756 230130 240957 -12227 9786 4212
42606 240097 253657 -12280 9838 4227
38622 224259 240767 -12561 8932 4543
35481 200884 216354 -13093 7524 5006
33901 184753 197600 -13277 7308 5161
32860 174056 185628 -11952 10174 4584
31517 165211 176074 -12151 9933 4381
31349 164187 175354 -12339 9222 4137
33737 171865 183383 -12175 8989 4120
36354 178122 190061 -11608 9661 4284
38494 185447 198005 -11632 10233 4267
40958 196590 210207 -12659 9674 3908
43927 209720 224592 -13051 9146 3765
47311 224390 241173 -12932 9123 3789
49745 233300 251391 -12811 9184 3881
50541 235193 253828 -12774 9083 3987
50222 233883 252601 -12809 8640 4160
48846 227919 246553 -13013 7865 4349
46708 217303 236035 -13358 7206 4439
43077 198950 217122 -13615 6817 4555
35962 164377 180151 -13785 6525 4792
29014 136601 149139 -14045 6061 5141
26947 132272 144398 -14385 5548 5357
28148 138346 151098 -13801 5174 5068
28925 140422 153664 -14049 6287 5111
30142 144298 158520 -15005 7489 5122
32192 157175 172045 -14701 7232 4783
33329 166670 181570 -14396 7033 4819
34150 174325 189303 -14358 6636 5048
34762 179954 194923 -14446 6263 5102
35073 182307 197245 -14492 6328 4983
35312 184150 199138 -14580 6351 4992
35515 185736 200712 -14905 6201 4984
35626 186799 201789 -14976 6086 5169
35722 187724 202736 -14867 5948 5402
35800 188518 203596 -14991 5456 5585
35873 189301 204421 -15036 5234 5660
35945 190076 205197 -15093 5031 5657
36017 190748 205902 -15131 4815 5533
36070 191313 206501 -15145 4603 5376
36111 191885 207090 -15150 4395 5259
36115 192328 207539 -15158 4165 5091
36110 192668 207915 -15180 3895 4778
36099 193035 208332 -15267 3551 4354
36084 193364 208713 -15355 3134 4043
36055 193671 209097 -15380 2706 3881
36038 194003 209498 -15379 2295 3768
36028 194333 209900 -15397 1855 3702
36037 194755 210381 -15470 1370 3667
36052 195163 210842 -15574 888 3664
36070 195594 211323 -15673 451 3676
36097 196156 211914 -15739 54 3697
36124 196726 212506 -15780 -289 3683
36145 197207 213024 -15830 -574 3605
36159 197677 213501 -15932 -1085 3372
36168 198123 213978 -15965 -1286 3252
36165 198509 214372 -16014 -1429 3116
36126 198735 214618 -16049 -1523 2941
36103 199153 215049 -16073 -1585 2698
36064 199440 215342 -16082 -1622 2405
36026 199614 215544 -16071 -1646 2135
35966 199662 215608 -16049 -1679 1916
35919 199927 215886 -16081 -1711 1736
35936 200639 216623 -16091 -1750 1586
35984 201483 217463 -16068 -1779 1395
35960 201840 217825 -16075 -1773 1174
35884 201813 217805 -16084 -1777 959
35859 201943 217957 -16103 -1797 739
35862 202312 218347 -16138 -1834 563
35896 202845 218904 -16132 -1900 450
35941 203520 219587 -16129 -1983 364
36006 204173 220258 -16155 -2075 292
36041 204664 220775 -16168 -2200 228
36030 204964 221117 -16192 -2376 199
36008 205337 221430 -16297 -2722 124
36016 205833 221966 -16368 -2804 32
36052 206414 222607 -16408 -2857 -39
36010 206766 222989 -16419 -2912 -91
35912 207082 223333 -16434 -2965 -174
35855 207724 224006 -16453 -2967 -355
35794 208339 224612 -16400 -2860 -615
35644 208389 224649 -16313 -2710 -886
35492 208358 224632 -16292 -2572 -1142
35399 208718 224973 -16284 -2260 -1813
35337 209256 225495 -16268 -2101 -2124
35268 209823 226019 -16214 -1946 -2422
35187 210070 226260 -16149 -1773 -2700
35174 210645 226860 -16121 -1629 -2944
35161 211268 227476 -16154 -1498 -3218
35151 211796 228002 -16207 -1366 -3497
35083 211994 228214 -16209 -1229 -3721
34987 212297 228522 -16170 -1068 -3906
34984 212912 229161 -16085 -928 -4059
34937 213480 229737 -15966 -861 -4157
34843 213813 230080 -15926 -803 -4231
34807 214443 230720 -15908 -711 -4289
34751 214539 230845 -15866 -595 -4363
34650 214252 230592 -15750 -426 -4446
34598 214428 230787 -15609 -260 -4550
34597 214548 230932 -15582 -141 -4676
34622 214742 231155 -15561 -70 -4737
34592 214804 231234 -15535 -54 -4743
34586 215103 231548 -15585 3 -4768
34570 215311 231743 -15615 123 -4799
34565 215540 231976 -15631 257 -4792
34573 215780 232246 -15701 398 -4748
34593 216059 232537 -15790 523 -4679
34610 216336 232813 -15840 666 -4601
34629 216603 233100 -15879 833 -4560
34643 216829 233357 -15908 986 -4529
34631 216960 233526 -15899 1106 -4446
34622 217017 233665 -15918 1179 -4317
34601 217060 233793 -16024 1165 -4126
34563 217106 233916 -16274 1107 -3713
34519 217205 234042 -16293 1240 -3682
34481 217323 234179 -16224 1468 -3708
34450 217420 234301 -16114 1730 -3775
34427 217580 234474 -15971 1967 -3891
34418 217837 234729 -15822 2194 -4003
34435 218149 235043 -15696 2369 -4027
34461 218501 235423 -15624 2483 -4002
34493 218925 235872 -15637 2596 -3988
34536 219373 236362 -16024 1165 -4126
34585 219769 236817 -16274 1107 -3713
34628 220206 237303 -16293 1240 -3682
34652 220509 237601 -16224 1468 -3708
34679 220822 237905 -16114 1730 -3775
34702 221123 238296 -15971 1967 -3891
34720 221291 238535 -15822 2194 -4003
34765 221561 238867 -15696 2369 -4027
34811 221829 239179 -15624 2483 -4002
34829 222102 239463 -15637 2596 -3988
34685 221873 239206 -15736 2715 -3808
34489 221344 238751 -15822 2661 -3657
34380 220360 237973 -15912 2627 -3556
34607 221641 239299 -15971 2659 -3520
34483 221357 239035 -16056 2700 -3495
34349 221061 238736 -16152 2763 -3505
34187 219775 237633 -16203 2829 -3462
34183 220054 237880 -16210 2848 -3335
34079 220048 237905 -16104 2936 -3375
33915 219831 237694 -15871 3166 -3579
33762 219823 237781 -15727 3379 -3481
33597 219909 237937 -15922 3531 -3079
33376 219806 237936 -16278 3502 -2910
33027 218826 237130 -16513 3564 -3292
32828 218733 237166 -16462 3892 -3808
32560 218095 236744 -16151 4283 -3995
32307 217531 236368 -15862 4605 -4082
32071 216837 235871 -15707 4982 -4554
31896 216379 235567 -15430 5516 -5260
31737 215879 235212 -14963 6000 -5784
31550 215363 234853 -14463 6413 -6167
31377 214918 234581 -13948 6769 -6536
31233 214503 234350 -13495 7105 -6952
31110 214231 234252 -13120 7357 -7312
31011 214099 234253 -12768 7546 -7594
30947 214070 234330 -12395 7713 -7826
30913 214186 234524 -12054 7846 -8024
30893 214283 234664 -11716 7936 -8215
30862 214261 234683 -11286 7969 -8385
30831 214270 234737 -10889 8021 -8605
30804 214222 234726 -10475 8262 -9285
30784 214255 234789 -10212 8333 -9585
30758 214290 234877 -9917 8381 -9776
30748 214416 235089 -9700 8388 -9822
30748 214547 235276 -9617 8365 -9802
30762 214651 235410 -9675 8338 -9836
30784 214826 235595 -9688 8310 -9851
30805 215002 235804 -9655 8294 -9842
30826 215224 236069 -9653 8286 -9854
30838 215390 236258 -9636 8275 -9858
30805 215536 236485 -9606 8274 -9916
30736 215612 236697 -9582 8304 -10066
30662 215421 236605 -9547 8399 -10254
30593 215021 236258 -9463 8524 -10407
30523 214481 235734 -9379 8612 -10453
30413 213463 234711 -9385 8645 -10464
30358 212329 233522 -9517 8660 -10511
30299 210859 231913 -9765 8722 -10563
30266 209282 230153 -9981 8827 -10630
30239 208001 228714 -9895 9335 -11385
30279 207284 227851 -9471 9597 -11705
30364 206424 226807 -9078 9560 -11471
30436 205393 225673 -8978 9169 -10772
30444 204685 224850 -9188 8591 -9860
30463 204432 224565 -9666 7845 -8833
30501 204289 224386 -10225 6874 -7643
30535 204119 224174 -10813 5775 -6269
30568 204080 224122 -11523 4732 -4885
30604 204213 224240 -12396 3747 -3633
30611 204215 224242 -13260 2702 -2389
30623 204264 224293 -14195 1613 -1186
30649 204308 224326 -15341 581 -404
30670 204246 224238 -16398 -145 -170
30687 204106 224067 -17146 -500 -177
30713 203906 223833 -17551 -617 -185
30716 203605 223497 -17687 -583 -177
30732 203286 223118 -17650 -453 -190
30729 202851 222624 -17530 -297 -218
30731 202455 222191 -17381 -132 -253
30757 202073 221763 -17263 9 -312
30779 201578 221267 -17200 100 -354
30816 201053 220788 -17143 149 -335
30851 200555 220228 -17082 144 -236
30909 200224 219851 -16989 81 -91
31002 199801 219398 -16921 -28 9
31066 199124 218708 -16872 -181 62
31089 198510 218236 -16801 -362 91
31113 198063 217896 -16765 -527 95
31144 197196 217044 -16745 -729 133
31089 196177 216026 -16774 -1180 416
30961 195555 215424 -16789 -1388 579
30830 195260 215164 -16855 -1538 794
30743 195181 215102 -17004 -1797 1305
30652 195208 215184 -17277 -2201 1915
30591 195497 215550 -17485 -2403 2223
30578 196018 216156 -17455 -2339 2514
30576 196734 216972 -17246 -2251 3006
30609 197721 218062 -16968 -2013 3185
30642 198623 219044 -16345 -689 1795
30695 199473 219981 -15904 39 1009
31252 204096 224960 -15509 374 -3864
31278 204278 225168 -15713 330 -3755
31304 204474 225383 -15837 321 -3518
31342 204709 225626 -15997 321 -3175
31381 204942 225878 -16189 346 -2871
31413 205206 226162 -16329 405 -2616
31432 205457 226462 -16431 499 -2390
31424 205687 226744 -16510 635 -2211
31396 205890 227005 -16577 777 -2050
31361 206037 227227 -16638 877 -1931
31333 206221 227455 -16672 930 -1854
31304 206439 227729 -16653 953 -1749
31290 206701 228040 -16592 971 -1621
31284 206978 228362 -16571 992 -1513
31280 207260 228670 -16607 972 -1425
31272 207554 229012 -16631 919 -1348
31274 207919 229415 -16617 856 -1266
31277 208300 229871 -16559 814 -1154
31283 208701 230325 -16351 855 -986
31289 209105 230777 -16301 919 -908
31298 209523 231246 -16298 973 -805
31304 209896 231668 -16340 1031 -727
31314 210225 232050 -16372 1103 -682
31271 210528 232431 -16353 1182 -637
31127 211175 233259 -16327 1256 -571
31068 211612 233815 -16328 1335 -473
31067 212195 234485 -16309 1410 -346
31087 212825 235244 -16246 1527 -67
31048 212886 235452 -16199 1578 114
30788 212037 235001 -16114 1610 326
29933 210040 234375 -16088 1673 541
29555 213515 239400 -16144 1774 764
29812 218312 244811 -16177 1806 971
29911 220997 248178 -16151 1829 1122
30018 222918 250397 -16081 1831 1312
30112 224173 251699 -16007 1869 1582
30201 224915 252465 -15990 1900 1879
30279 225562 253156 -16014 2251 2190
30344 226094 253733 -16033 2715 2527
30363 226463 254043 -16053 2960 2755
30354 226728 254364 -15962 3257 2883
30320 226762 254444 -15800 3481 3033
30280 226723 254443 -15711 3645 3178
30246 226775 254571 -15761 3773 3272
30226 226837 254677 -15912 3892 3295
30212 226788 254638 -15997 4001 3310
30192 226460 254311 -16026 4095 3333
30173 226180 254042 -16069 4168 3368
30153 225795 253652 -16131 4204 3393
30154 225470 253313 -16187 4246 3345
30161 225130 252924 -16204 4298 3276
30171 224890 252712 -16164 4341 3279
30171 224741 252554 -16080 4333 3334
30164 224547 252380 -15955 4282 3373
30158 224420 252277 -15855 4248 3398
30146 224341 252205 -15770 4209 3426
30119 224345 252266 -15691 4163 3477
30103 224620 252659 -15709 3887 3715
30121 225032 253132 -15916 3642 3750
30127 225339 253500 -16133 3285 3755
30138 225677 253889 -16253 2869 3710
30143 225939 254231 -16311 2519 3563
30153 226267 254628 -16376 2403 3201
30179 226533 254942 -16436 2580 2627
30202 226499 254907 -16371 2967 2058
30214 226272 254678 -16182 3421 1529
30222 225969 254365 -15952 3899 1045
30235 225680 254027 -15834 4435 683
30233 225231 253555 -15883 5050 440
30208 224792 253109 -15973 5658 373
28482 208050 235868 -11994 9882 7934
28471 208433 236415 -11813 9498 8701
28486 208975 237082 -11872 8853 9371
28484 209136 237289 -12015 7964 10002
28470 209314 237568 -12245 6863 10399
28467 209659 238032 -12642 5854 10355
28463 209854 238265 -13077 5085 9986
28453 209981 238449 -13559 4559 9381
28445 210148 238690 -14146 4321 8642
28433 210260 238850 -14511 4225 7993
28432 210327 238946 -14634 4116 7322
28430 210338 238963 -14611 4036 6590
28427 210267 238912 -14548 3990 5995
28429 210172 238787 -14639 3845 5509
28431 209924 238504 -14899 3623 5038
28435 209722 238260 -15248 3399 4590
28450 209655 238163 -15535 3109 4242
28474 209614 238090 -15660 2811 4038
28487 209444 237847 -15699 2540 3851
28491 209179 237505 -15701 2268 3622
28461 208925 237248 -15572 1970 3473
28402 208718 237053 -15357 1628 3413
28327 208345 236639 -15161 1354 3394
28235 207939 236209 -15051 1218 3433
28163 207767 236040 -15023 1147 3573
28136 207723 235982 -15077 1074 3881
28114 207550 235720 -15222 999 4292
28089 207452 235617 -15603 912 4724
28085 207595 235774 -15757 842 4996
28091 207655 235806 -15915 751 5295
28097 207602 235687 -16057 764 5389
28094 207516 235594 -16058 807 5481
28097 207545 235617 -15959 749 5690
28110 207544 235569 -15899 736 5736
28095 207350 235332 -15853 892 5645
28073 207187 235149 -15756 1068 5682
28055 207072 235008 -15649 1165 5806
28036 206976 234902 -15599 1206 5776
28020 206895 234810 -15613 1230 5642
28001 206780 234697 -15597 1255 5666
27991 206719 234634 -15630 1204 5823
27983 206686 234600 -15868 1068 5891
27977 206665 234590 -16096 965 5894
27965 206639 234585 -16151 892 5873
27961 206656 234613 -16094 836 5757
27961 206552 234498 -15992 850 5600
27950 206355 234274 -15909 968 5437
27946 206220 234118 -15787 1146 5258
27946 205997 233856 -15518 1376 5066
27923 205673 233482 -15176 1662 4862
27868 205260 233039 -14902 2034 4704
27779 204910 232686 -14683 2498 4686
27683 204596 232263 -14522 2902 4794
27593 204113 231729 -14401 3257 4892
27518 203642 231182 -14281 3602 5016
27451 203255 230754 -14302 3839 5250
27416 202944 230384 -14414 3962 5506
27391 202659 230059 -14546 4144 5765
27367 202407 229768 -14641 4164 5888
27355 202222 229635 -14672 4114 6106
27349 202120 229543 -14720 4025 6289
27350 202002 229399 -14816 3967 6371
27344 201861 229215 -14857 3923 6516
27329 201736 229096 -14883 3846 6667
27309 201698 229078 -14946 3775 6692
27292 201686 229089 -15043 3772 6595
27272 201558 228957 -15168 3777 6457
27251 201439 228833 -15112 3728 6446
27235 201445 228878 -15044 3709 6382
27230 201534 229004 -14981 3738 6241
27223 201531 228995 -14906 3755 6069
27220 201503 228967 -14860 3718 5962
27221 201468 228938 -14817 3686 5948
27224 201445 228912 -14796 3748 5895
27228 201431 228908 -14784 3852 5797
27230 201391 228868 -14704 3881 5756
27230 201405 228916 -14643 3854 5756
27238 201443 228978 -14697 3798 5795
27243 201471 229036 -14785 3704 5808
27221 201503 229097 -14791 3596 5751
27169 201471 229118 -14729 3510 5703
27096 201437 229136 -14714 3485 5633
27030 201335 229075 -14773 3527 5464
26980 201278 229027 -14816 3607 5316
26946 201199 228945 -14798 3672 5252
26926 201120 228863 -14742 3686 5220
26921 201031 228758 -14710 3671 5173
26921 200908 228592 -14726 3656 5131
26929 200857 228528 -14732 3625 5166
26943 200788 228427 -14741 3569 5253
26956 200627 228212 -14794 3507 5369
26960 200305 227819 -14886 3423 5511
26941 199707 227118 -15021 3287 5690
26883 198939 226243 -15148 3112 5829
26824 198137 225369 -15229 2895 5891
26746 196910 223959 -15331 2634 5959
26633 195488 222382 -15453 2366 6120
26496 194356 221290 -15635 2081 6453
26396 193505 220560 -15924 1749 6830
26321 192923 220009 -16221 1434 6994
26288 192662 219772 -16411 1193 7137
26285 192272 219339 -16494 1013 7402
26268 192097 219232 -16536 902 7391
26262 192326 219625 -16464 965 6961
26277 192305 219600 -16306 1190 6495
26262 191840 219061 -16246 1401 6037
26220 191433 218666 -15971 1588 5741
26182 191325 218637 -16285 1495 5328
26129 191139 218488 -16591 1495 4587
26009 191391 219056 -16628 1566 4199
25940 192889 221161 -16468 1516 4022
25931 194091 222645 -16053 1561 3436
25892 194943 223798 -15447 1828 2515
25876 196548 225894 -15007 2178 1686
25923 198040 227694 -14953 2706 347
25968 199346 229260 -14873 3446 -1530
25978 199988 230091 -14258 4094 -2882
26121 201924 232271 -13627 4542 -3925
26216 202952 233402 -13413 5033 -5344
26326 204290 234934 -13175 5503 -6556
26424 205562 236369 -12757 5791 -7287
26522 206474 237325 -12435 6021 -7964
26599 206882 237583 -12081 6228 -8614
26655 207480 238254 -11716 6323 -9006
26730 208469 239369 -11497 6403 -9300
26825 209470 240445 -11392 6647 -9856
26932 210379 241373 -11232 6919 -10263
27029 211252 242276 -10913 6937 -10116
27138 212314 243413 -10671 6849 -9999
27244 213343 244449 -10571 6948 -10295
27362 214236 245345 -10507 7127 -10602
27473 215019 246134 -10414 7198 -10685
27584 215824 246952 -10334 7167 -10673
27704 216708 247831 -10286 7231 -10833
27839 217640 248730 -10151 7449 -11095
27963 218465 249561 -9951 7682 -11243
28063 219241 250386 -9914 7791 -11319
28146 219977 251178 -9988 7805 -11450
28196 220548 251769 -9854 7781 -11579
28202 220919 252137 -9544 7683 -11571
28162 221163 252479 -9287 7488 -11435
28122 221436 252876 -9216 7292 -11434
28101 221689 253135 -9293 7251 -11730
28091 221800 253245 -9287 7299 -12034
28086 221876 253339 -9156 7249 -12039
28095 221970 253430 -9099 7083 -11888
28116 222018 253462 -9370 6899 -12088
28145 222046 253473 -9311 6783 -12121
28186 222094 253478 -9161 6663 -12027
28217 222068 253429 -9066 6642 -11999
28246 222044 253381 -8963 6649 -12004
28262 221962 253285 -8785 6627 -11999
28278 221853 253175 -8642 6593 -11945
28283 221730 253044 -8630 6548 -11824
28274 221698 253030 -8712 6543 -11790
28273 221642 252969 -8826 6560 -11848
28275 221579 252887 -8949 6560 -11926
28284 221524 252829 -9051 6517 -11978
28305 221496 252786 -9106 6458 -11950
28330 221441 252695 -9125 6426 -11931
28354 221362 252587 -9144 6383 -11982
28378 221273 252468 -9216 6327 -12091
28399 221225 252413 -9356 6261 -12194
28423 221181 252340 -9525 6166 -12232
28454 221095 252232 -9645 6032 -12178
28482 221029 252146 -9712 5864 -12096
28511 221003 252094 -9738 5712 -12048
28533 220973 252040 -9712 5588 -12080
28524 220884 251968 -9678 5484 -12161
28473 220819 251953 -9683 5360 -12181
28391 220674 251847 -9729 5249 -12200
28310 220461 251641 -9767 5188 -12228
28235 220251 251438 -9788 5144 -12220
28179 220182 251373 -9813 5122 -12223
28156 220142 251330 -9864 5126 -12283
28149 220130 251303 -9969 5112 -12357
28152 220079 251245 -10192 4852 -12171
28160 220057 251214 -10273 4747 -12117
28175 220000 251125 -10282 4702 -12162
28191 219904 251006 -10271 4662 -12176
28338 220550 251663 -9803 4678 -12615
28359 220503 251604 -9943 4621 -12503
28377 220416 251504 -10036 4626 -12407
28392 220309 251376 -10106 4677 -12332
28404 220220 251267 -10168 4703 -12221
28421 220131 251171 -10216 4648 -12210
28440 220002 251027 -10226 4590 -12178
28468 219912 250922 -10173 4593 -12152
28497 219890 250885 -10120 4626 -12151
28519 219858 250858 -10093 4634 -12159
28513 219779 250790 -10068 4636 -12154
28460 219639 250689 -10016 4681 -12137
28372 219521 250611 -9967 4765 -12152
28276 219403 250528 -9955 4821 -12188
28190 219333 250491 -9988 4833 -12214
28134 219316 250502 -10035 4824 -12218
28103 219331 250530 -10053 4814 -12211
28087 219334 250534 -10061 4832 -12231
28079 219368 250580 -10060 4875 -12294
28081 219451 250670 -10015 4903 -12357
28095 219509 250730 -9932 4899 -12398
28115 219567 250782 -9856 4904 -12426
28136 219625 250847 -9808 4938 -12463
28155 219699 250932 -9788 4977 -12486
28169 219756 250992 -9658 5012 -12484
28178 219776 251016 -9551 5046 -12521
28180 219827 251075 -9501 5102 -12552
28170 219895 251162 -9526 5116 -12542
28167 219988 251274 -9572 5089 -12485
28169 220064 251372 -9589 5086 -12452
28459 221445 252848 -10334 5238 -12000
28495 221591 252998 -10398 5119 -12038
28534 221633 253025 -10443 4839 -12085
28562 221721 253110 -10459 4589 -12005
28597 221935 253357 -10301 4407 -11974
28626 222078 253539 -10062 4372 -12012
28637 222061 253535 -10036 4358 -12077
28601 222041 253572 -10139 4263 -12176
28522 222085 253725 -10035 4182 -12292
28411 222114 253854 -9812 4235 -12354
28303 221979 253778 -9814 4363 -12322
28209 221805 253645 -9923 4411 -12148
28151 221709 253560 -9915 4441 -11842
28106 221568 253427 -10009 4472 -11479
28078 221516 253419 -10379 4436 -11202
28065 221534 253480 -10898 4452 -11176
28073 221424 253341 -11399 4601 -11297
28086 221016 252820 -11864 4642 -11187
28081 220534 252291 -12287 4349 -10656
28081 220314 252094 -12668 3896 -10108
28091 220162 251920 -12993 3564 -9953
28091 219758 251438 -13227 3344 -9883
28080 219209 250814 -13414 3030 -9545
28055 218591 250116 -13548 2606 -9089
28053 218455 249942 -13692 2204 -8750
28056 218263 249720 -13865 1919 -8544
28071 217992 249393 -14067 1732 -8347
28094 217863 249218 -14302 1595 -8087
28135 217984 249339 -14466 1511 -7770
28182 218050 249387 -14609 1493 -7544
28222 218055 249379 -14775 1533 -7436
28267 218105 249413 -14926 1587 -7291
28322 218282 249571 -15358 1567 -6883
28381 218515 249788 -15503 1545 -6675
28441 218767 250018 -15520 1503 -6436
28503 219000 250211 -15456 1473 -6140
28564 219191 250375 -15415 1451 -5832
28620 219381 250563 -15452 1445 -5620
28678 219552 250716 -15531 1484 -5513
28739 219688 250822 -15611 1532 -5425
28680 219788 250921 -15677 1568 -5303
28696 219928 251052 -15842 1529 -5056
28719 220105 251212 -15921 1526 -4996
28751 220244 251343 -15962 1544 -4970
28793 220408 251502 -15925 1550 -4935
28840 220625 251696 -15873 1521 -4883
28889 220865 251929 -15857 1468 -4804
28940 221086 252138 -15874 1448 -4766
28974 221208 252246 -15891 1462 -4795
28992 221317 252345 -15854 1479 -4838
29008 221433 252462 -15678 1525 -4882
29022 221529 252571 -15672 1587 -4889
29045 221616 252649 -15677 1626 -4903
29071 221698 252707 -15681 1675 -4915
29101 221770 252759 -15649 1736 -4938
29127 221831 252804 -15611 1814 -4985
29159 221886 252854 -15606 1883 -4958
29192 221927 252865 -15606 1929 -4883
29229 221981 252903 -15595 1973 -4884
29267 222088 253000 -15570 2045 -4955
29310 222211 253101 -15551 2130 -5037
29359 222312 253195 -15529 2222 -5070
29404 222452 253308 -15494 2321 -5034
29453 222611 253450 -15485 2436 -4970
29508 222805 253624 -15526 2583 -4947
29562 222973 253775 -15580 2744 -4963
29626 223133 253907 -15590 2891 -4987
29680 223265 253912 -15578 2996 -5006
29724 223357 253965 -15570 3084 -5046
29727 223382 254005 -15555 3157 -5119
29693 223414 254067 -15515 3210 -5165
29628 223427 254125 -15459 3281 -5183
29549 223407 254142 -15397 3353 -5205
29480 223387 254144 -15337 3418 -5223
29433 223366 254131 -15278 3459 -5232
29408 223356 254128 -15212 3453 -5213
29398 223357 254125 -15154 3428 -5147
29400 223339 254093 -15147 3398 -5103
29411 223343 254072 -15191 3374 -5144
29433 223356 254082 -15227 3367 -5235
29464 223386 254098 -15246 3363 -5316
29493 223409 254108 -15203 3378 -5370
29518 223403 254084 -15124 3405 -5434
29533 223379 254043 -15063 3419 -5516
29540 223345 254002 -15014 3450 -5562
29538 223314 253962 -14990 3511 -5588
29537 223262 253913 -14980 3582 -5632
29534 223202 253842 -14977 3638 -5654
29539 223139 253765 -14981 3689 -5649
29546 223064 253681 -15003 3743 -5674
29557 223004 253605 -15057 3837 -5757
29577 222970 253554 -15044 3884 -5734
29598 222945 253512 -15060 3901 -5676
29623 222927 253479 -15081 3900 -5648
29652 222923 253450 -15072 3885 -5653
29681 222910 253424 -15053 3875 -5652
29709 222902 253384 -15035 3874 -5669
29741 222884 253368 -15014 3863 -5679
29776 222869 253326 -14999 3821 -5637
29808 222840 253264 -15047 3709 -5555
29838 222807 253226 -15061 3715 -5524
29851 222787 253199 -15069 3716 -5477
29825 222709 253141 -15070 3699 -5405
29761 222601 253069 -15070 3669 -5342
29676 222480 252988 -15087 3634 -5303
29592 222402 252925 -15115 3597 -5290
29528 222346 252889 -15139 3558 -5285
29486 222295 252848 -15147 3513 -5275
29466 222234 252781 -15189 3437 -5321
29462 222205 252741 -15204 3429 -5343
29468 222170 252677 -15226 3409 -5317
29479 222135 252631 -15269 3363 -5263
29505 222135 252620 -15270 3339 -5203
29537 222124 252603 -15237 3338 -5159
29566 222123 252567 -15232 3355 -5114
29582 222088 252533 -15260 3364 -5076
29589 222105 252545 -15289 3366 -5036
29593 222146 252588 -15333 3344 -4972
29595 222209 252654 -15370 3294 -4919
29602 222290 252722 -15402 3288 -4871
29613 222352 252796 -15437 3309 -4840
29627 222452 252902 -15446 3317 -4841
29648 222559 253001 -15447 3309 -4839
29675 222662 253099 -15452 3286 -4845
29701 222763 253199 -15444 3265 -4880
29734 222878 253321 -15405 3265 -4946
29767 222976 253397 -15356 3296 -5011
29799 223044 253456 -15323 3336 -5052
29833 223116 253515 -15278 3423 -5235
29870 223200 253584 -15207 3516 -5311
29909 223263 253642 -15133 3597 -5364
29950 223316 253667 -15060 3674 -5422
29988 223359 253694 -15005 3762 -5509
30017 223404 253729 -14980 3846 -5589
30018 223418 253759 -14970 3899 -5653
29971 223412 253786 -14957 3928 -5704
29890 223356 253766 -14951 3959 -5713
29794 223269 253731 -14968 3961 -5662
29715 223225 253711 -14973 3952 -5576
29651 223177 253672 -14960 3971 -5511
29609 223137 253641 -14969 3997 -5505
29586 223114 253615 -14973 4038 -5529
29574 223109 253617 -14963 4074 -5528
29580 223133 253627 -14955 4078 -5496
29594 223161 253645 -14960 4079 -5469
29617 223195 253672 -14971 4084 -5470
29643 223217 253688 -14970 4077 -5473
29666 223256 253714 -15004 4046 -5438
29684 223286 253748 -15004 4034 -5419
29689 223307 253752 -14981 4022 -5383
29687 223319 253784 -14963 4008 -5304
29686 223365 253847 -14956 4008 -5221
29684 223423 253907 -14967 4034 -5179
29690 223486 253970 -14986 4075 -5195
29702 223562 254051 -15012 4110 -5232
29715 223644 254114 -15014 4135 -5259
29736 223700 254183 -14986 4168 -5277
29758 223805 254272 -14963 4220 -5338
29793 223954 254431 -14929 4255 -5423
29831 224125 254598 -14893 4285 -5517
29866 224240 254705 -14870 4326 -5633
29901 224323 254763 -14852 4347 -5725
29934 224353 254788 -14834 4330 -5791
29963 224365 254779 -14817 4313 -5870
30002 224352 254756 -14784 4326 -5966
30037 224334 254717 -14687 4384 -5996
30068 224296 254661 -14560 4498 -5915
30070 224230 254595 -14481 4632 -5818
30026 224118 254511 -14509 4751 -5763
29945 224021 254428 -14605 4843 -5739
29850 223906 254347 -14684 4921 -5745
29762 223818 254295 -14727 4976 -5729
29695 223778 254266 -14749 5003 -5678
29652 223731 254241 -14767 5021 -5634
29632 223726 254234 -14774 5035 -5576
29621 223748 254250 -14775 5033 -5489
29626 223793 254291 -14780 5003 -5408
29640 223834 254318 -14769 4988 -5398
29666 223861 254334 -14764 4991 -5422
29688 223894 254350 -14762 4972 -5445
29708 223926 254384 -14756 4949 -5456
29728 223967 254413 -14748 4946 -5481
29738 223989 254440 -14736 4957 -5494
29744 224064 254503 -14704 4983 -5474
29751 224162 254609 -14687 5021 -5441
29760 224275 254732 -14706 5072 -5431
29781 224423 254870 -14728 5215 -5458
29810 224644 255086 -14705 5243 -5445
29853 224941 255374 -14677 5286 -5426
29901 225255 255685 -14643 5337 -5441
29956 225569 256015 -14609 5393 -5473
30009 225861 256297 -14613 5441 -5492
30063 226097 256509 -14662 5422 -5481
30117 226293 256665 -14704 5349 -5448
30166 226493 256828 -14720 5273 -5437
30214 226651 256967 -14721 5228 -5493
30257 226735 257040 -14727 5207 -5613
30298 226763 257049 -14728 5158 -5706
30337 226744 256997 -14678 5085 -5691
30365 226686 256927 -14614 5028 -5616
30361 226579 256809 -14571 5004 -5562
30313 226424 256678 -14542 5021 -5541
30228 226259 256546 -14568 5066 -5536
30129 226109 256428 -14623 5119 -5518
30042 225997 256337 -14687 5145 -5483
29979 225908 256261 -14775 5138 -5430
29942 225870 256228 -14870 5124 -5337
29923 225849 256215 -14904 5075 -5213
29916 225868 256228 -14871 5016 -5103
29924 225902 256271 -14849 4987 -5060
29940 225960 256315 -14851 4972 -5064
29966 226020 256367 -14856 4956 -5040
29994 226051 256396 -14854 4959 -5000
30019 226084 256432 -14848 4990 -5002
30035 226107 256442 -14821 5019 -5064
30037 226103 256440 -14778 5037 -5126
30038 226096 256436 -14711 5074 -5231
30034 226079 256419 -14731 5053 -5300
30034 226082 256441 -14738 5020 -5324
30038 226107 256476 -14740 4985 -5320
30047 226140 256484 -14732 4975 -5297
30061 226174 256519 -14719 4992 -5244
30078 226212 256547 -14714 5026 -5206
30095 226240 256583 -14719 5085 -5211
30119 226288 256608 -14735 5161 -5221
30147 226307 256611 -14719 5285 -5207
30172 226328 256621 -14693 5412 -5200
30200 226362 256639 -14688 5502 -5227
30230 226396 256670 -14692 5566 -5272
30263 226444 256706 -14709 5583 -5274
30300 226508 256754 -14720 5547 -5233
30329 226582 256833 -14729 5465 -5204
30332 226607 256867 -14739 5392 -5223
30290 226580 256862 -14744 5322 -5287
30208 226539 256863 -14727 5231 -5367
30113 226499 256879 -14686 5159 -5485
30034 226474 256869 -14665 5114 -5618
29971 226441 256856 -14683 5051 -5716
29936 226412 256853 -14694 4976 -5734
29916 226396 256840 -14660 4917 -5671
29911 226398 256834 -14628 4904 -5611
29911 226370 256815 -14628 4942 -5578
29925 226417 256847 -14643 4992 -5551
29950 226459 256878 -14660 5037 -5550
29976 226450 256856 -14677 5090 -5541
29992 226449 256845 -14706 5152 -5514
29998 226445 256835 -14739 5209 -5496
30000 226427 256807 -14750 5224 -5480
29992 226402 256777 -14750 5225 -5492
29986 226416 256820 -14742 5209 -5512
29985 226466 256867 -14728 5144 -5510
29992 226489 256892 -14718 5067 -5472
30003 226519 256910 -14729 4981 -5400
30017 226570 256964 -14749 4882 -5334
30033 226641 257039 -14756 4809 -5293
30060 226717 257130 -14761 4787 -5278
30086 226796 257205 -14731 4837 -5228
30109 226870 257275 -14722 4877 -5196
30139 226937 257335 -14717 4955 -5245
30168 226999 257371 -14714 5048 -5337
30207 227022 257382 -14685 5145 -5408
30237 227076 257411 -14651 5246 -5450
30268 227143 257472 -14633 5334 -5484
30277 227152 257496 -14647 5403 -5546
30236 227095 257473 -14696 5406 -5587
30157 227056 257460 -14714 5262 -5544
30060 226971 257411 -14698 5176 -5556
29965 226875 257361 -14682 5132 -5601
29896 226831 257342 -14620 5134 -5635
29850 226824 257337 -14554 5160 -5674
29820 226790 257330 -14524 5176 -5680
29806 226778 257306 -14528 5194 -5672
29801 226764 257299 -14552 5222 -5705
29803 226763 257294 -14573 5258 -5724
29815 226762 257281 -14627 5380 -5703
29834 226762 257274 -14656 5407 -5672
29845 226753 257259 -14656 5399 -5611
29854 226750 257262 -14632 5386 -5524
29851 226739 257236 -14626 5371 -5471
29843 226728 257235 -14629 5361 -5446
29837 226716 257240 -14642 5375 -5423
29828 226738 257254 -14659 5390 -5419
29829 226764 257286 -14657 5395 -5416
29828 226752 257262 -14646 5401 -5414
29833 226742 257265 -14614 5432 -5422
29845 226778 257300 -14586 5483 -5406
29863 226825 257349 -14572 5511 -5377
29884 226902 257420 -14574 5524 -5382
29910 226978 257491 -14602 5536 -5432
29940 227058 257553 -14613 5538 -5503
29975 227167 257659 -14592 5544 -5589
30013 227311 257789 -14561 5557 -5652
30059 227451 257926 -14534 5547 -5657
30109 227635 258106 -14535 5517 -5605
30142 227772 258242 -14568 5483 -5462
30137 227837 258322 -14599 5472 -5409
30091 227893 258418 -14625 5486 -5384
30009 227905 258476 -14669 5485 -5379
29913 227871 258481 -14689 5492 -5377
29836 227850 258494 -14689 5486 -5372
29781 227860 258520 -14695 5472 -5392
29750 227905 258574 -14683 5448 -5419
29734 227960 258632 -14649 5385 -5425
29729 228015 258697 -14576 5286 -5418
29736 228080 258753 -14616 5219 -5413
29746 228143 258825 -14671 5162 -5401
29765 228264 258937 -14710 5112 -5363
29789 228370 259064 -14733 5087 -5355
29810 228475 259179 -14745 5075 -5427
29817 228527 259237 -14725 5081 -5499
29812 228542 259260 -14678 5103 -5496
29808 228558 259284 -14641 5119 -5454
29802 228583 259322 -14609 5138 -5432
29800 228587 259338 -14599 5175 -5442
29804 228586 259347 -14636 5203 -5460
29810 228591 259348 -14680 5209 -5492
29823 228608 259371 -14706 5199 -5541
29843 228637 259400 -14726 5182 -5578
29867 228671 259429 -14736 5143 -5593
29893 228740 259480 -14733 5080 -5585
29923 228805 259537 -14734 5013 -5555
29954 228856 259566 -14730 4961 -5538
29988 228896 259614 -14698 4943 -5516
30027 228987 259673 -14658 4934 -5478
30066 229051 259718 -14671 4906 -5470
30100 229091 259738 -14712 4886 -5504
30111 229091 259747 -14712 4876 -5531
30081 229037 259725 -14695 4862 -5545
30016 228988 259701 -14701 4849 -5570
29929 228906 259659 -14727 4833 -5586
29845 228864 259652 -14759 4800 -5562
29780 228837 259642 -14777 4737 -5506
29739 228794 259601 -14784 4690 -5473
29702 228586 259379 -14798 4676 -5483
29683 228476 259264 -14802 4648 -5490
29679 228541 259334 -14793 4604 -5484
29691 228620 259411 -14781 4580 -5499
29716 228784 259587 -14780 4584 -5519
29743 228927 259737 -14785 4586 -5520
29767 229013 259820 -14779 4576 -5511
29880 229258 260051 -14731 4672 -5752
29906 229282 260063 -14750 4632 -5764
29933 229287 260054 -14766 4556 -5711
29958 229311 260062 -14738 4497 -5689
29994 229345 260080 -14728 4463 -5700
30027 229378 260110 -14746 4448 -5727
30061 229420 260122 -14781 4421 -5750
30094 229461 260167 -14804 4396 -5771
30100 229482 260196 -14804 4392 -5787
30064 229454 260201 -14806 4409 -5825
29698 229218 260204 -14502 4994 -6618
29709 228904 259841 -14458 4809 -6523
29696 228538 259452 -14474 4422 -6134
29680 228208 259086 -14629 3940 -5622
29658 227819 258652 -14869 3378 -5171
29636 227417 258220 -15124 2808 -4786
29617 227100 257875 -15445 2269 -4419
29611 226915 257668 -15779 1766 -4079
29606 226763 257488 -16039 1392 -3803
29608 226644 257356 -16236 1139 -3572
29605 226444 257148 -16364 988 -3406
29612 226458 257164 -16404 975 -3379
29629 226527 257234 -16269 1144 -3667
29659 226711 257421 -16158 1282 -3865
29692 226836 257543 -16042 1421 -4000
29720 226920 257603 -15950 1530 -4083
29755 226972 257645 -15859 1625 -4127
29790 226996 257638 -15817 1719 -4135
29820 226964 257573 -15829 1752 -4069
29823 226900 257502 -15867 1746 -3939
29786 226824 257436 -15943 1767 -3815
29709 226680 257319 -16103 1786 -3512
29611 226480 257131 -16137 1802 -3369
29522 226317 256977 -16197 1837 -3304
29459 226218 256882 -16261 1865 -3250
29413 226115 256776 -16297 1877 -3171
29386 226065 256711 -16338 1876 -3066
29369 226046 256679 -16395 1889 -2928
29362 226000 256617 -16439 1898 -2793
29361 225949 256542 -16465 1903 -2684
29368 225951 256528 -16463 1900 -2665
29385 225988 256565 -16397 1919 -2721
29396 226038 256598 -16308 1986 -2774
29393 226047 256610 -16278 2053 -2831
29393 226085 256654 -16264 2098 -2913
29388 226139 256711 -16229 2115 -2961
29379 226200 256773 -16205 2114 -2994
29380 226286 256858 -16207 2110 -3062
29382 226387 256967 -16208 2096 -3118
29396 226534 257117 -16183 2081 -3121
29415 226631 257193 -16145 2070 -3055
29436 226695 257242 -16112 2061 -2944
29464 226765 257284 -16094 2058 -2782
29486 226810 257305 -16114 2057 -2607
29506 226820 257307 -16174 2072 -2505
29530 226850 257315 -16251 2095 -2464
29555 226867 257312 -16295 2096 -2449
29584 226903 257330 -16307 2085 -2445
29616 226947 257341 -16308 2072 -2450
29653 226996 257362 -16270 2051 -2432
29683 227049 257401 -16207 2029 -2385
29685 227092 257437 -16106 1972 -2308
29642 227105 257474 -16106 1960 -2259
29558 227081 257478 -16130 1940 -2169
29455 226942 257360 -16123 1928 -2054
29356 226795 257236 -16045 1929 -1961
29279 226654 257118 -15998 1953 -1929
29226 226589 257068 -16001 2005 -1915
29188 226531 256990 -16024 2085 -1881
29165 226497 256953 -16065 2180 -1839
29144 226499 256961 -16207 2029 -2385
29134 226554 257025 -16106 1972 -2308
29142 226638 257112 -16106 1960 -2259
29159 226715 257178 -16130 1940 -2169
29176 226742 257192 -16123 1928 -2054
29180 226702 257137 -16045 1929 -1961
29177 226638 257071 -15998 1953 -1929
29163 226527 256952 -16001 2005 -1915
29149 226378 256779 -16024 2085 -1881
29137 226218 256585 -16065 2180 -1839
29140 226035 256349 -16019 2509 -1747
29145 225840 256094 -15969 2730 -1713
29147 225605 255819 -15961 2943 -1708
29146 225397 255582 -16004 3118 -1669
29153 225257 255411 -16089 3230 -1592
29172 225161 255263 -16151 3286 -1536
29196 225063 255118 -16156 3295 -1493
29215 224961 254964 -16117 3245 -1437
29241 224851 254817 -16026 3111 -1301
29266 224729 254640 -15895 2930 -1021
29288 224574 254426 -15826 2702 -676
29314 224412 254235 -15869 2454 -388
29342 224244 254030 -15991 2260 -215
29366 224073 253813 -16134 2132 -114
29380 223880 253577 -16219 2056 23
29351 223611 253297 -16239 2012 222
29280 223292 252956 -16257 1996 412
29169 222928 252604 -16284 2005 612
29052 222647 252369 -16295 2010 851
28954 222488 252261 -16299 2001 1046
28882 222316 252129 -16310 1996 1174
28838 222152 251955 -16330 2003 1282
28827 222056 251841 -16382 2002 1361
28822 222029 251780 -16447 1973 1440
28821 222083 251810 -16479 1923 1583
28822 222183 251918 -16425 1873 1828
28832 222282 252026 -16240 1863 2119
28844 222313 252037 -16048 1929 2237
28852 222270 251978 -16034 2092 2104
28850 222188 251876 -16180 2299 1848
28841 222069 251740 -16312 2410 1561
28828 221901 251569 -16388 2347 1389
28817 221765 251414 -16417 2184 1428
28817 221700 251347 -16342 2023 1577
28828 221698 251328 -16202 1918 1713
28842 221650 251257 -16056 1909 1748
28853 221555 251137 -15955 1954 1711
28866 221505 251076 -15906 1995 1698
28885 221515 251069 -15876 2015 1735
28906 221485 251010 -15877 2022 1790
28925 221416 250924 -15898 2022 1878
28935 221349 250833 -15928 2010 1929
28953 221262 250707 -15980 2007 1892
28973 221097 250502 -16036 2010 1838
28989 220931 250307 -16074 1999 1815
29017 220892 250234 -16089 1937 1820
29064 220943 250235 -16094 1859 1846
29110 220892 250129 -16086 1801 1906
29139 220816 250015 -16062 1747 1992
29131 220774 249991 -16047 1698 2079
29083 220694 249943 -15928 1623 2166
29000 220574 249863 -15868 1585 2258
28900 220409 249730 -15820 1509 2436
28810 220258 249623 -15794 1389 2632
28743 220162 249547 -15771 1266 2818
28690 220091 249506 -15728 1165 3094
28654 220069 249500 -15727 1051 3434
28627 220057 249500 -15779 977 3731
28610 220030 249493 -15895 986 3904
28597 219986 249459 -15999 1059 3999
28592 219971 249426 -16008 1165 4113
28593 219968 249440 -15993 1300 4225
28596 220013 249499 -15996 1468 4314
28592 220017 249520 -16008 1664 4364
28580 219988 249491 -16016 1863 4350
28564 219983 249500 -15962 2050 4306
28553 219994 249525 -15871 2253 4324
28543 219996 249530 -15831 2423 4405
28533 219984 249530 -15848 2498 4451
28527 219983 249541 -15853 2534 4433
28530 220040 249616 -15799 2590 4391
28535 220117 249706 -15743 2632 4327
28543 220145 249748 -15709 2623 4271
28547 220100 249690 -15686 2558 4266
28556 220069 249651 -15699 2457 4243
28573 220019 249586 -15704 2358 4184
28590 219852 249366 -15669 2283 4138
28600 219523 248967 -15620 2225 4089
28603 218982 248349 -15621 2172 4026
28576 218174 247458 -15697 2122 3960
28514 217269 246506 -15753 2096 3909
28434 216552 245835 -15780 2090 3846
28339 216097 245455 -15792 2088 3785
28247 215849 245285 -15774 2095 3773
28153 215759 245244 -15749 2126 3830
28063 215726 245272 -15763 2148 4013
27990 215765 245385 -15946 2099 4300
27935 216005 245721 -16206 1968 4668
27915 216389 246179 -16370 1797 5063
27912 216608 246422 -16430 1631 5264
27878 216705 246570 -16425 1393 4461
27845 217246 247312 -16457 1375 3746
27845 217826 247984 -16352 1381 3232
27800 217716 247949 -16112 1341 2953
27768 218196 248686 -15857 1235 2728
27839 218158 248449 -15671 1058 2381
27845 216585 246428 -15582 909 1897
27762 214778 244387 -15502 859 1531
27706 213931 243486 -15326 828 1440
27648 212906 242301 -15091 887 1242
27638 214401 244041 -15509 5913 11286
27644 214316 243971 -16169 5114 11257
27655 214378 244068 -16269 4578 10830
27687 214476 244143 -15839 4284 10016
27703 214348 243978 -15196 4207 9013
27683 214093 243746 -14674 4200 8176
27641 213942 243653 -14260 4094 7656
27568 213889 243665 -13897 3941 7152
27478 213827 243671 -13679 3868 6671
27393 213534 243397 -13736 3765 6652
27327 213269 243136 -14272 3398 6688
27280 213160 243065 -14240 3482 6464
27252 213119 243036 -14098 3495 6499
27239 213061 242965 -14250 3363 6558
27230 212924 242809 -14501 3283 6398
27219 212747 242616 -14499 3301 6109
27223 212643 242499 -14223 3298 5777
27243 212566 242391 -14031 3160 5493
27270 212477 242273 -14148 2893 5373
27293 212477 242259 -14679 2492 5272
27313 212537 242307 -14831 2344 5281
27330 212583 242344 -14909 2241 5347
27339 212569 242316 -14995 2186 5424
27342 212526 242257 -15203 2143 5530
27342 212432 242167 -15497 2095 5598
27332 212367 242132 -15763 2048 5626
27326 212211 241971 -15971 1972 5668
27328 212070 241795 -16114 1866 5723
27352 211900 241554 -16222 1577 5765
27361 211568 241142 -16213 1390 5803
27359 211239 240764 -16212 1247 5816
27372 211083 240577 -16250 1217 5644
27395 210920 240373 -16302 1289 5196
27430 210919 240343 -16326 1318 4754
27468 210947 240323 -16330 1242 4571
27488 210739 240082 -16287 1074 4584
27517 210637 239956 -16164 825 4710
27565 210811 240138 -16055 579 4775
27592 210829 240174 -15981 431 4681
27595 210873 240272 -15898 362 4566
27681 210447 239792 -16096 1775 4321
27727 210699 240058 -16297 1804 4303
27777 210899 240246 -16367 1816 4334
27825 211143 240515 -16402 1803 4406
27881 211377 240723 -16446 1782 4423
27929 211536 240894 -16470 1760 4285
27976 211694 241042 -16344 1767 4039
28029 211768 241088 -16317 1761 4061
28081 211820 241116 -16332 1786 4053
28118 211864 241185 -16400 1779 4145
28145 212016 241383 -16513 1718 4281
28154 212140 241564 -16603 1662 4373
28117 212346 241919 -16671 1610 4555
28048 212724 242496 -16802 1525 4813
27977 213221 243195 -16990 1470 4901
27935 213730 243851 -17109 1547 4699
27898 214188 244500 -17084 1664 4411
27868 214756 245273 -16934 1800 3955
27862 215442 246172 -16750 2021 3123
27881 216201 247121 -16494 2285 2115
27909 216760 247811 -16084 2567 1214
27939 217114 248275 -15647 2840 390
27982 217502 248737 -15331 3076 -593
28041 217967 249293 -15098 3257 -1686
28102 218508 249925 -14797 3428 -2666
28159 218963 250431 -14524 3540 -3392
28203 219238 250748 -14470 3513 -3893
28235 219449 250996 -14568 3413 -4263
28270 219824 251442 -14614 3333 -4549
28315 220175 251841 -14521 3339 -4811
28358 220371 252065 -14391 3426 -5033
28401 220531 252246 -14383 3517 -5164
28455 220745 252461 -14453 3585 -5239
28512 221020 252755 -14464 3697 -5426
28572 221277 252995 -14473 3864 -5731
28639 221508 253219 -14540 4000 -5948
28702 221744 253467 -14631 4177 -6023
28768 222022 253749 -14645 4219 -6066
28836 222305 254033 -14633 4268 -6123
28911 222586 254298 -14617 4305 -6149
28990 222843 254545 -14608 4328 -6146
29070 223092 254769 -14628 4364 -6192
29140 223352 255025 -14646 4420 -6295
29199 223607 255276 -14649 4478 -6389
29225 223849 255532 -14657 4538 -6431
29222 224063 255770 -14666 4646 -6362
29199 224221 255937 -14706 4695 -6355
29176 224411 256140 -14754 4726 -6342
29166 224621 256361 -14779 4716 -6283
29176 224828 256558 -14800 4654 -6150
29197 224992 256712 -14806 4560 -5966
29230 225167 256862 -14798 4496 -5821
29265 225343 257000 -14789 4467 -5715
29309 225497 257154 -14790 4430 -5599
29363 225661 257272 -14788 4386 -5510
29419 225820 257407 -14823 4354 -5460
29481 225996 257567 -14870 4315 -5433
29549 226198 257734 -14895 4281 -5408
29589 226215 257741 -14922 4260 -5364
29631 226348 257856 -14940 4237 -5309
29671 226400 257891 -14943 4231 -5293
29705 226458 257929 -14925 4226 -5292
29746 226538 257976 -14935 4208 -5282
29790 226586 257996 -14992 4202 -5298
29835 226660 258026 -15066 4176 -5274
29883 226787 258132 -15128 4104 -5204
29937 226910 258232 -15162 4033 -5138
29985 227014 258313 -15178 3941 -5090
30035 227153 258432 -15140 3796 -5025
30098 227340 258596 -15058 3649 -4987
30158 227503 258737 -15000 3546 -5024
30212 227651 258877 -14978 3485 -5063
30272 227782 258999 -14988 3456 -5079
30335 227939 259124 -14987 3449 -5061
30394 228035 259200 -14959 3464 -5020
30446 228109 259279 -15032 3569 -5189
30467 228121 259285 -15040 3645 -5270
30441 228119 259314 -14999 3691 -5291
30385 228049 259267 -14985 3735 -5296
30324 227989 259231 -15025 3743 -5315
30280 227986 259226 -15057 3714 -5275
30253 228003 259242 -15097 3662 -5201
30244 228057 259278 -15129 3581 -5151
30253 228117 259332 -15118 3485 -5102
30269 228200 259400 -15100 3344 -5000
30295 228300 259490 -15096 3348 -4954
30333 228416 259573 -15120 3393 -4919
30373 228503 259647 -15164 3451 -4898
30417 228562 259689 -15186 3519 -4888
30456 228641 259763 -15172 3577 -4900
30777 229056 259921 -15386 3554 -4915
30814 229009 259849 -15368 3477 -4843
30854 229003 259799 -15316 3413 -4754
30900 229051 259816 -15326 3352 -4680
30955 229157 259881 -15375 3264 -4632
31007 229233 259905 -15451 3196 -4590
31054 229353 260001 -15554 3153 -4523
31078 229390 260042 -15583 3109 -4440
31055 229347 260024 -15559 3080 -4375
31004 229356 260071 -15553 3087 -4343
30946 229355 260072 -15592 3106 -4346
30896 229367 260064 -15650 3101 -4351
30860 229359 260021 -15689 3075 -4359
30840 229322 259953 -15710 3034 -4362
30831 229345 259953 -15728 2834 -4254
30834 229394 259988 -15757 2651 -4133
30841 229398 259969 -15758 2500 -4009
30855 229395 259943 -15746 2430 -3898
30878 229372 259894 -15744 2447 -3784
30906 229334 259832 -15739 2536 -3681
30936 229340 259825 -15707 2651 -3599
30959 229287 259743 -15679 2771 -3544
30971 229158 259574 -15687 2918 -3511
30972 229043 259436 -15781 3101 -3351
30978 228976 259349 -15875 3154 -3250
30994 228976 259308 -15963 3234 -3179
31006 228946 259242 -15961 3349 -3043
31022 228880 259135 -15937 3460 -2832
31042 228830 259036 -15977 3545 -2655
31070 228837 259000 -15982 3650 -2516
31100 228820 258932 -15901 3800 -2356
31127 228689 258741 -15870 3958 -2181
31155 228550 258543 -15929 4086 -1974
31166 228298 258234 -15975 4179 -1722
31185 228178 258078 -16065 4224 -1490
31196 228001 257874 -16212 4247 -1337
31198 227860 257720 -16291 4277 -1288
31209 227867 257742 -16273 4290 -1381
31222 227966 257877 -16157 4342 -1634
31210 228020 257978 -16008 4468 -1991
31150 227989 257983 -15867 4626 -2393
31060 227979 258042 -15685 4801 -2786
30958 227898 258015 -15476 4946 -3064
30868 227838 257999 -15297 5050 -3230
30790 227770 257966 -15152 5140 -3405
30732 227725 257944 -15030 5233 -3587
30701 227767 257989 -14950 5331 -3737
30680 227818 258024 -14906 5434 -3830
30658 227824 258045 -14870 5560 -3833
30645 227862 258074 -14845 5669 -3762
30641 227924 258131 -14854 5737 -3715
30648 228011 258235 -14895 5793 -3750
30655 228123 258360 -14929 5842 -3794
30652 228177 258434 -14957 5884 -3817
30644 228211 258487 -14954 5953 -3869
30634 228269 258577 -14931 6012 -3946
30617 228275 258592 -14942 6024 -4013
30593 228235 258570 -14995 6027 -4064
30581 228270 258636 -15039 5990 -4082
30588 228473 258863 -14997 5899 -4086
30597 228686 259105 -14929 5789 -4135
30621 228878 259277 -14882 5696 -4228
30619 228752 259149 -14830 5619 -4313
30626 228762 259169 -14699 5400 -4322
30632 228788 259211 -14672 5188 -4264
30622 228599 259036 -14737 5013 -4277
30624 228327 258744 -14826 4869 -4350
30621 227851 258206 -14925 4738 -4380
30605 227258 257543 -15010 4595 -4312
30576 226671 256939 -15047 4406 -4151
30557 226231 256476 -15025 4171 -4013
30550 225751 255918 -14952 3964 -4030
30490 225140 255234 -14828 3714 -3987
30406 224888 254992 -14724 3232 -3581
30312 224697 254736 -14726 2622 -3004
30261 224582 254493 -14686 2116 -2582
30242 224458 254220 -14471 1700 -2159
30232 224313 253965 -14317 1200 -1419
30215 224086 253609 -14505 657 -402
30185 223643 253070 -14898 275 533
30187 223347 252685 -15185 33 1296
30218 223251 252496 -15454 -183 1989
30256 223228 252371 -15774 -400 2578
30279 223053 252100 -15973 -547 3038
30287 222866 251855 -16009 -620 3383
30286 222704 251642 -16000 -737 3694
30294 222505 251381 -15991 -940 3947
30305 222308 251091 -16003 -1162 4045
30310 222181 250891 -16023 -1377 4099
30316 222044 250686 -15991 -1582 4261
30328 221876 250452 -15904 -1761 4496
30351 221693 250202 -15794 -1953 4721
30378 221505 249942 -15670 -2149 4911
30398 221282 249681 -15518 -2309 5147
30415 221143 249493 -15398 -2463 5515
30432 221054 249361 -15320 -2609 5909
30453 220929 249199 -15214 -2691 6228
30480 220819 249036 -15096 -2696 6474
30506 220711 248891 -15043 -2650 6705
30519 220716 248898 -15074 -2579 6950
30066 220392 248706 -14999 -1368 7164
30038 220377 248703 -15018 -1215 6993
30018 220352 248666 -15073 -1077 6858
30006 220316 248634 -15120 -985 6774
30010 220305 248622 -15118 -917 6698
30018 220281 248569 -15118 -858 6628
30028 220265 248531 -15107 -804 6566
30029 220236 248515 -15084 -785 6514
30018 220255 248536 -15068 -794 6470
30002 220176 248457 -15054 -808 6417
30015 220269 248541 -15020 -846 6367
30004 220201 248462 -14975 -889 6346
29969 219343 247505 -14990 -1043 6464
30080 219602 247728 -14998 -1093 6506
30195 220393 248499 -14952 -1155 6490
30246 220588 248662 -14885 -1256 6449
30203 219376 247298 -14864 -1304 6421
30281 219453 247374 -14901 -1348 6486
30324 220011 248025 -14852 -1366 6598
30327 220036 248056 -14761 -1401 6711
30331 219272 247177 -14808 -1444 6825
30388 219352 247220 -14733 -1376 6916
30402 219184 247019 -14732 -1372 6967
30421 218977 246820 -14764 -1321 6962
30456 219332 247192 -14770 -1271 6949
30417 219412 247326 -14765 -1233 6952
30367 219407 247339 -14760 -1189 6964
30303 219256 247203 -14746 -1182 7004
30244 219136 247085 -14727 -1204 7029
30202 219187 247163 -14718 -1240 7034
30195 219442 247442 -14689 -1272 7059
30224 219756 247742 -14617 -1339 7118
30292 220325 248312 -14546 -1453 7209
30351 220691 248662 -14502 -1572 7308
30395 220838 248774 -14434 -1673 7401
30446 221112 249038 -14292 -1751 7473
30491 221217 249109 -14123 -1831 7513
30529 221069 248912 -14033 -1929 7562
30563 220717 248487 -13973 -2077 7658
30590 220501 248216 -13839 -2237 7823
30580 220017 247669 -13722 -2342 8009
30539 218998 246543 -13743 -2422 8163
30511 218192 245623 -13837 -2472 8284
30563 218413 245930 -13886 -2544 8405
30590 218281 245701 -13963 -2579 8564
30723 219242 246731 -13962 -2499 8642
30746 218753 246145 -13898 -2472 8699
30687 217906 245257 -13834 -2462 8778
30644 217435 244762 -13778 -2388 8779
30647 217576 244951 -13823 -2304 8755
30745 218892 246323 -13726 -2204 8672
30691 217563 244858 -14046 -2095 8587
30709 217108 244338 -13850 -2072 8468
30674 216571 243771 -13676 -2059 8490
30699 216899 244154 -13557 -1993 8530
30734 217343 244638 -13498 -1969 8541
30710 217296 244603 -13384 -1982 8596
30642 217004 244325 -13260 -2035 8687
30544 216585 243915 -13172 -2139 8761
30422 216173 243528 -13141 -2251 8750
30343 216133 243534 -13167 -2378 8614
30310 216271 243710 -13170 -2552 8408
30291 216325 243759 -13113 -2729 8239
30279 216371 243794 -13011 -2829 8229
30273 216430 243861 -12894 -2834 8413
30265 216433 243843 -12861 -2799 8732
30278 216432 243828 -12976 -2735 9088
30286 216533 243944 -13174 -2577 9336
30294 216803 244248 -13364 -2310 9434
30295 217032 244505 -13512 -2035 9534
30277 217112 244603 -13681 -1775 9677
30249 217130 244639 -13905 -1477 9785
30214 217298 244880 -14129 -1137 9773
30187 217639 245297 -14328 -789 9609
30176 217919 245610 -14406 -486 9415
30168 218014 245734 -14336 -268 9305
30156 218109 245844 -14285 -113 9213
30142 218382 246176 -14298 34 9035
30140 218819 246686 -14327 178 8775
30143 219186 247097 -14375 292 8520
29833 220780 249287 -14598 1912 5449
29657 219225 247673 -14591 1867 5177
29581 218775 247229 -14557 1887 5054
29590 219181 247716 -14571 1935 4937
29648 219798 248374 -14495 2064 4986
29697 220112 248681 -14316 2300 5058
29710 220013 248571 -14180 2642 4993
29727 219904 248441 -14147 2995 4914
29737 219739 248261 -14150 3305 4933
29711 219498 248036 -14172 3604 4955
29697 217036 245221 -14265 4084 5154
29706 216994 245176 -14390 4189 5390
29719 217025 245211 -14555 4244 5612
29747 217171 245367 -14703 4276 5791
29798 217451 245637 -14784 4291 6011
29825 217582 245771 -14822 4276 6246
29821 217363 245541 -14840 4223 6467
29792 217182 245365 -14832 4152 6704
29749 217108 245320 -14801 4115 6892
29679 216977 245203 -14739 4127 6979
29590 216692 244917 -14687 4168 6985
29509 216299 244523 -14673 4219 6881
29474 216157 244358 -14643 4264 6703
29458 216149 244352 -14549 4294 6566
29448 216084 244265 -14446 4317 6428
29427 215772 243913 -14374 4319 6311
29407 215378 243478 -14291 4305 6287
29405 215173 243234 -14258 4273 6293
29420 215096 243137 -14277 4222 6346
29445 215126 243147 -14283 4204 6413
29471 215207 243215 -14262 4224 6482
29460 215043 243048 -14238 4246 6572
29441 214863 242877 -14250 4254 6625
29432 214802 242814 -14292 4261 6571
29415 214665 242677 -14306 4246 6483
29405 214521 242514 -14237 4210 6510
29414 214490 242477 -14229 4184 6603
29443 214731 242736 -14325 4161 6671
29469 214855 242848 -14398 4139 6708
29465 214707 242697 -14414 4129 6741
29455 214524 242514 -14377 4121 6731
29468 214474 242451 -14363 4130 6674
29504 214574 242541 -14361 4156 6654
29516 214381 242306 -14337 4159 6691
29537 214207 242101 -14342 4153 6719
29579 214270 242139 -14322 4151 6731
29599 214246 242122 -14277 4167 6720
29590 214172 242066 -14263 4212 6687
29552 214221 242167 -14251 4264 6664
29491 214196 242182 -14268 4330 6624
29437 214116 242126 -14368 4497 6507
29406 214272 242325 -14420 4475 6479
29396 214475 242549 -14465 4402 6465
29400 214620 242697 -14473 4325 6482
29421 214818 242904 -14470 4270 6549
29473 215289 243395 -14493 4256 6617
29545 215983 244125 -14522 4292 6653
29664 217077 245275 -14545 4346 6600
29785 218089 246313 -14574 4409 6456
29854 218741 247000 -14496 4569 6249
29889 219110 247404 -14527 4558 6082
29907 219371 247697 -14578 4463 5924
29920 219667 248031 -14603 4339 5859
29911 219763 248158 -14615 4230 5853
29899 219756 248168 -14634 4138 5857
29878 219622 248016 -14654 4039 5848
29855 219356 247736 -14672 3917 5859
29843 219077 247415 -14696 3776 5873
29834 218759 247073 -14721 3639 5882
29827 218510 246790 -14723 3551 5898
29843 218498 246769 -14722 3512 5890
29882 218638 246894 -14732 3482 5819
29940 218933 247186 -14729 3449 5705
30013 219369 247631 -14717 3428 5612
30085 219737 247999 -14716 3417 5533
30164 220172 248446 -14719 3374 5466
30256 220745 249030 -14714 3289 5467
30302 221059 249376 -14723 3207 5514
30293 221152 249505 -14748 3164 5530
30249 221062 249439 -14779 3143 5525
30196 220906 249296 -14809 3152 5540
30149 220774 249163 -14846 3198 5567
30103 220636 249032 -14885 3231 5582
30094 220775 249185 -14915 3239 5602
30088 220851 249263 -14967 3236 5631
30072 220812 249220 -15011 3232 5647
30047 220611 249020 -15015 3228 5647
30032 220481 248883 -15003 3208 5645
30033 220385 248760 -14992 3173 5630
30039 220293 248662 -14983 3110 5568
30038 220190 248544 -14938 3103 5562
30042 220146 248485 -14910 3117 5526
30047 220165 248502 -14904 3141 5486
30051 220236 248569 -14904 3164 5471
30066 220346 248688 -14899 3196 5465
30089 220536 248878 -14903 3233 5464
30122 220775 249114 -14920 3240 5488
30156 220953 249281 -14931 3235 5533
30183 221058 249378 -14991 3194 5581
30207 221082 249391 -14974 3184 5622
30224 221035 249320 -14942 3198 5649
30244 220967 249239 -14927 3218 5633
30269 220950 249202 -14921 3237 5610
30293 220935 249168 -14918 3269 5602
30309 220825 249044 -14913 3297 5593
30323 220735 248935 -14909 3306 5566
30329 220628 248823 -14905 3307 5534
30306 220450 248654 -14898 3295 5509
30247 220154 248365 -14888 3267 5491
30162 219789 248033 -14877 3250 5502
30074 219408 247645 -14873 3243 5556
29997 219042 247280 -14877 3236 5617
29940 218727 246960 -14883 3245 5658
29906 218585 246806 -14895 3267 5672
29902 218626 246843 -14903 3292 5671
29897 218633 246847 -14901 3310 5678
29896 218593 246807 -14901 3321 5698
29940 218936 247142 -14904 3340 5712
29975 219090 247291 -14923 3345 5706
29971 218923 247123 -14920 3351 5707
29955 218734 246924 -14901 3365 5727
29952 218711 246896 -14901 3362 5735
29953 218742 246949 -14905 3361 5728
29948 218818 247049 -14902 3353 5722
29942 218831 247063 -14928 3354 5710
29918 218644 246878 -14967 3379 5704
29898 218528 246765 -14988 3390 5696
29908 218684 246951 -15021 3403 5680
29915 218801 247087 -15051 3414 5680
29926 218967 247276 -15039 3462 5686
29937 219107 247442 -15086 3519 5635
29928 219136 247503 -15171 3566 5602
29923 219187 247603 -15272 3588 5592
29937 219351 247786 -15351 3609 5550
29961 219614 248111 -15381 3621 5484
29980 219945 248517 -15409 3627 5367
29999 220260 248899 -15454 3648 5259
29992 220458 249166 -15598 3698 4947
29960 220661 249467 -15664 3767 4717
29905 220916 249822 -15668 3797 4513
29853 221248 250231 -15643 3793 4276
29799 221502 250562 -15652 3796 4030
29761 221714 250855 -15730 3786 3829
29732 221764 250924 -15836 3732 3664
29716 221871 251063 -15852 3661 3484
29724 222148 251365 -15746 3622 3247
29735 222395 251638 -15320 3565 2613
29740 222562 251844 -15133 3570 2265
29767 222761 252065 -15011 3551 2070
29798 222921 252229 -14962 3503 2002
29826 222932 252222 -14962 3460 1955
29839 222870 252148 -14968 3430 1881
29855 222888 252157 -15007 3439 1766
29870 222897 252141 -15097 3487 1644
29890 222909 252144 -15205 3518 1589
29914 222878 252087 -15312 3504 1649
29940 222884 252072 -15421 3440 1782
29966 222897 252073 -15520 3376 1925
29992 222888 252034 -15598 3329 2118
30023 222890 252015 -15670 3275 2337
30062 222880 251971 -15747 3230 2537
30086 222799 251861 -15807 3213 2718
30121 222746 251785 -15824 3226 2850
30164 222736 251736 -15813 3252 2937
30206 222766 251739 -15789 3292 3008
30249 222786 251736 -15773 3323 3093
30287 222787 251712 -15770 3315 3168
30304 222778 251707 -15798 3315 3241
30298 222766 251696 -15826 3333 3320
30260 222650 251577 -15805 3323 3379
30196 222406 251331 -15779 3302 3411
30124 222074 251001 -15771 3263 3435
30068 221823 250742 -15799 3213 3456
30032 221645 250546 -15832 3182 3474
30029 221679 250585 -15813 3181 3499
30033 221869 250794 -15756 3201 3512
30050 222141 251082 -15733 3212 3459
30085 222550 251516 -15764 3243 3434
30131 222965 251953 -15755 3283 3416
30152 223088 252085 -15729 3314 3398
30158 223029 252018 -15704 3346 3381
30151 222891 251873 -15686 3400 3352
30130 222663 251662 -15677 3489 3287
30111 222542 251541 -15669 3612 3197
30100 222473 251489 -15677 3711 3134
30094 222488 251532 -15714 3734 3077
30096 222567 251629 -15746 3717 3033
30108 222733 251834 -15776 3735 3010
30111 222906 252060 -15788 3780 2961
30116 223174 252393 -15791 3821 2895
30129 223530 252815 -15819 3850 2784
30136 223849 253234 -15857 3855 2639
30157 224373 253866 -15870 3859 2470
30182 225089 254747 -15864 3894 2210
30224 225973 255784 -15855 3965 1927
30257 226805 256713 -15843 4025 1761
30289 227518 257584 -15868 4039 1641
30307 228088 258291 -15952 4070 1467
30294 228424 258812 -16010 4155 1200
30262 228646 259174 -15989 4282 866
30192 228890 259548 -15996 4394 518
30118 229156 259943 -15994 4464 147
30038 229235 260140 -15933 4543 -239
29963 229218 260238 -15858 4682 -738
29914 229317 260454 -15722 4854 -1250
29875 229361 260597 -15560 4964 -1606
29835 229312 260673 -15393 5068 -1974
29788 229061 260512 -15267 5202 -2328
29795 229194 260701 -15145 5309 -2699
29798 229009 260549 -14907 5513 -3157
29787 228716 260303 -14719 5771 -3484
29758 228273 259901 -14701 5941 -3759
29742 228079 259766 -14726 6079 -4087
29743 228075 259783 -14724 6195 -4420
29722 227877 259617 -14680 6242 -4745
29709 227881 259651 -14571 6220 -5043
29706 227966 259754 -14491 5991 -5658
29724 228213 260016 -14367 5993 -5949
29759 228664 260523 -14136 5972 -6179
29795 228903 260745 -13956 5930 -6374
29637 224532 256303 -12481 6782 -8432
29585 224288 256116 -12341 6916 -8606
29527 224239 256123 -12237 7040 -8802
29454 224307 256278 -12112 7065 -8975
29404 224549 256597 -12002 7045 -9160
29380 224946 257079 -11975 7074 -9394
29350 225123 257337 -11804 7069 -9555
29279 224570 256831 -11423 6989 -9534
29243 224256 256499 -11074 6941 -9478
29280 224670 256901 -10809 7022 -9533
29136 222471 254793 -9572 8093 -10397
29140 222353 254672 -9499 8117 -10378
29177 222472 254772 -9473 8120 -10343
29222 222611 254847 -9536 8102 -10301
29253 222727 254932 -9652 8071 -10280
29279 222784 255003 -9825 8043 -10321
29305 222872 255115 -10202 7958 -10453
29328 222849 255109 -10364 7977 -10402
29339 222715 254998 -10410 7991 -10146
29366 222647 254946 -10395 8007 -9910
29401 222679 254983 -10347 8058 -9867
29427 222705 255003 -10234 8140 -9931
29406 222537 254839 -10131 8211 -9987
29322 222117 254483 -10009 8268 -10015
29232 221786 254217 -9809 8310 -10003
29153 221568 254029 -9574 8452 -10028
29098 221461 253908 -9625 8482 -10065
29048 221293 253741 -9700 8506 -10087
29008 221119 253586 -9756 8498 -10076
28993 221071 253547 -9778 8441 -10044
28984 221067 253553 -9775 8386 -9997
28976 221055 253537 -9783 8326 -9974
28986 221100 253593 -9803 8274 -10025
29015 221198 253690 -9811 8233 -10117
29045 221342 253825 -9774 8188 -10196
29057 221401 253882 -9726 8152 -10243
29067 221435 253924 -9720 8142 -10267
29069 221464 253920 -9753 8126 -10279
29063 221487 253960 -9791 8104 -10267
29073 221609 254106 -9861 8101 -10241
29090 221776 254307 -9991 8113 -10175
29109 221932 254466 -10119 8133 -10038
29139 222145 254689 -10173 8162 -9899
29169 222291 254834 -10143 8207 -9875
29198 222412 254947 -10095 8301 -9903
29227 222477 255001 -10090 8433 -9898
29257 222502 255021 -10047 8544 -9918
29278 222448 254940 -9904 8606 -9946
29306 222430 254923 -9717 8632 -9961
29339 222459 254928 -9557 8645 -9959
29374 222511 254970 -9450 8628 -9929
29406 222489 254925 -9394 8602 -9929
29432 222440 254870 -9409 8593 -9978
29467 222466 254884 -9466 8540 -9987
29504 222459 254849 -9507 8461 -9904
29539 222432 254795 -9608 8411 -9788
29573 222467 254799 -9816 8358 -9742
29596 222476 254813 -10022 8296 -9801
29589 222466 254818 -10175 8249 -9892
29543 222407 254800 -10277 8199 -9910
29465 222387 254825 -10342 8140 -9813
29382 222379 254852 -10370 8083 -9741
29310 222361 254880 -10377 8060 -9782
29259 222340 254878 -10400 8072 -9837
29222 222331 254897 -10418 8095 -9829
29198 222371 254942 -10328 8127 -9712
29182 222421 255011 -10288 8165 -9713
29172 222502 255110 -10211 8206 -9735
29173 222585 255206 -10097 8251 -9773
29179 222679 255303 -9994 8298 -9822
29178 222615 255251 -9889 8346 -9864
29177 222526 255179 -9808 8404 -9935
29161 222311 254968 -9757 8445 -10028
29138 222057 254704 -9711 8448 -10107
29103 221724 254371 -9698 8447 -10162
29069 221412 254082 -9787 8421 -10199
29011 220908 253588 -9916 8360 -10243
28946 220281 253005 -9895 8295 -10208
28967 220482 253225 -9788 8234 -10072
28969 220474 253264 -9764 8211 -9996
28961 220357 253226 -9700 8233 -10005
29008 220742 253663 -9605 8287 -10023
29079 221285 254218 -9436 8345 -10033
29163 221797 254696 -9219 8410 -10069
29261 222228 255045 -9130 8534 -10168
29330 222522 255270 -9115 8687 -10291
29371 222669 255423 -9116 8772 -10398
29428 223015 255779 -9161 8769 -10454
29489 223302 256048 -9254 8684 -10455
29539 223435 256168 -9269 8567 -10435
29564 223308 256043 -9253 8468 -10401
29601 223342 256037 -9274 8393 -10355
29596 223193 255884 -9288 8352 -10331
29548 223036 255760 -9282 8322 -10349
29486 223051 255832 -9255 8312 -10359
29421 223137 255961 -9289 8382 -10336
29358 223174 256026 -9263 8460 -10273
29313 223187 256057 -9143 8481 -10184
29279 223127 256002 -9105 8551 -10179
29263 223163 256028 -9090 8703 -10261
29252 223197 256062 -9039 8824 -10324
29242 223177 256031 -9029 8863 -10333
29244 223150 255997 -9098 8836 -10292
29250 223123 255943 -9184 8747 -10254
29258 223088 255915 -9227 8641 -10235
29272 223135 255957 -9280 8580 -10168
29285 223164 255998 -9309 8551 -10173
29294 223199 256011 -9272 8556 -10204
29267 222980 255814 -9200 8590 -10258
29196 222381 255280 -9123 8628 -10302
29161 222133 255091 -9063 8661 -10304
29182 222178 255113 -9024 8665 -10244
29190 222096 255011 -8993 8663 -10195
29196 221981 254888 -8997 8715 -10219
29202 221843 254758 -9163 8736 -10272
29213 221752 254661 -9196 8686 -10284
29237 221730 254632 -9221 8646 -10312
29277 221835 254718 -9211 8589 -10310
29333 222065 254907 -9184 8533 -10291
29392 222320 255116 -9198 8504 -10301
29434 222416 255165 -9240 8479 -10318
29473 222494 255233 -9277 8457 -10314
29509 222609 255338 -9294 8440 -10307
29552 222734 255458 -9303 8463 -10281
29599 222810 255515 -9314 8517 -10229
29635 222829 255517 -9314 8548 -10224
29647 222642 255338 -9312 8580 -10264
29648 222397 255110 -9298 8620 -10289
29633 222222 254987 -9256 8623 -10300
29593 222078 254871 -9228 8598 -10309
29519 221921 254747 -9224 8583 -10320
29428 221690 254563 -9223 8587 -10347
29342 221464 254377 -9224 8581 -10371
29281 221309 254255 -9250 8563 -10384
29245 221212 254164 -9261 8543 -10377
29218 221091 254054 -9261 8479 -10361
29197 220974 253966 -9278 8397 -10352
29197 220945 253942 -9274 8354 -10345
29208 220969 253973 -9245 8337 -10340
29235 221101 254079 -9224 8337 -10354
29278 221296 254227 -9214 8354 -10386
29321 221496 254393 -9195 8390 -10387
29361 221706 254551 -9195 8431 -10385
29380 221804 254608 -9216 8444 -10416
29369 221768 254574 -9233 8462 -10428
29361 221708 254524 -9249 8422 -10400
29365 221795 254622 -9226 8385 -10365
29386 221937 254743 -9228 8366 -10383
29407 222050 254860 -9234 8371 -10436
29429 222158 254977 -9235 8370 -10447
29466 222384 255182 -9231 8364 -10420
29503 222589 255368 -9231 8360 -10419
29537 222706 255483 -9264 8357 -10443
29569 222792 255562 -9282 8399 -10411
29579 222747 255538 -9266 8408 -10401
29586 222652 255471 -9245 8421 -10403
29631 222843 255627 -9209 8452 -10396
29680 223014 255769 -9144 8504 -10370
29704 222992 255763 -9045 8552 -10346
29736 223032 255810 -8940 8586 -10334
29798 223313 256050 -8929 8641 -10345
29839 223437 256154 -8962 8703 -10355
29835 223503 256223 -8980 8738 -10341
29799 223504 256247 -8985 8774 -10328
29740 223466 256220 -9000 8802 -10339
29688 223516 256269 -9022 8813 -10330
29651 223564 256315 -9004 8803 -10277
29638 223745 256470 -9034 8788 -10256
29633 223900 256610 -9131 8778 -10270
29650 224093 256776 -9204 8734 -10227
29654 224186 256845 -9193 8714 -10179
29661 224250 256904 -9139 8753 -10167
29679 224267 256906 -9091 8806 -10159
29689 224152 256784 -9058 8842 -10133
29692 224051 256667 -9035 8855 -10127
29695 223922 256542 -9055 8847 -10173
29704 223886 256493 -9069 8835 -10204
29704 223856 256466 -9024 8836 -10202
29714 223856 256468 -8971 8827 -10193
29727 223866 256470 -8944 8831 -10200
29740 223858 256459 -8929 8853 -10221
29769 223880 256475 -8915 8887 -10245
29798 223897 256475 -8921 8926 -10251
29825 223870 256448 -8961 8986 -10237
29856 223862 256430 -8949 8974 -10242
29900 223933 256478 -8953 8942 -10233
29956 224102 256631 -8936 8907 -10216
30017 224339 256821 -8890 8878 -10200
30079 224511 256946 -8861 8886 -10188
30130 224561 256975 -8873 8906 -10199
30163 224477 256898 -8885 8909 -10210
30181 224233 256677 -8871 8910 -10217
30222 224170 256611 -8874 8924 -10225
30286 224290 256701 -8900 8959 -10241
30375 224616 256953 -8888 8969 -10271
30439 224701 256990 -8826 8951 -10284
30462 224671 256972 -8788 8920 -10254
30450 224564 256876 -8787 8884 -10225
30400 224514 256830 -8814 8887 -10228
30308 224281 256644 -8840 8931 -10226
30232 224168 256553 -8818 8959 -10204
30176 224107 256488 -8824 8966 -10210
30133 224049 256431 -8849 9007 -10227
30115 224018 256407 -8857 9038 -10195
30105 223977 256365 -8890 9039 -10151
30106 223989 256363 -8948 9039 -10127
30102 223935 256320 -9017 9032 -10109
30096 223785 256203 -9046 9004 -10089
30089 223594 256052 -9008 8964 -10036
30118 223712 256180 -8970 8970 -10004
30151 223835 256264 -8983 9013 -10049
30152 223807 256249 -9044 9054 -10118
30159 223826 256264 -9077 9063 -10137
30169 223930 256357 -9085 9024 -10117
30163 223835 256247 -9120 8942 -10100
30170 223881 256301 -9118 8841 -10064
30181 223888 256327 -9170 8782 -9991
30193 223914 256354 -9246 8785 -9919
30211 223954 256389 -9243 8829 -9929
30221 223867 256326 -9188 8895 -9957
30243 223876 256339 -9113 8954 -9969
30282 224005 256457 -9089 9013 -10017
30324 224167 256583 -9102 9078 -10049
30380 224412 256816 -9040 9158 -9966
30432 224588 256976 -9004 9145 -9966
30500 224861 257201 -8981 9100 -10015
30574 225245 257519 -9005 9056 -10051
30644 225517 257749 -9078 9028 -10031
30680 225522 257764 -9135 9013 -9999
30701 225319 257552 -9142 8968 -10020
30738 225272 257490 -9144 8887 -10093
30751 225124 257328 -9209 8800 -10157
30719 224901 257140 -9324 8673 -10100
30630 224548 256832 -9333 8596 -10028
30533 224327 256654 -9341 8582 -9962
30443 224147 256490 -9340 8602 -9978
30374 224001 256359 -9311 8621 -10012
30303 223736 256150 -9254 8681 -9965
30277 223694 256124 -9330 8781 -9926
30295 224082 256546 -9390 8876 -9901
30362 224793 257213 -9332 8941 -9840
30404 225089 257428 -9272 8977 -9709
30446 225359 257670 -9090 9052 -9506
30483 225569 257883 -8880 9220 -9358
30542 225858 258113 -8825 9459 -9360
30585 226128 258360 -8839 9684 -9436
30594 226092 258309 -8893 9847 -9434
30573 225815 258025 -8999 9982 -9370
30518 225196 257369 -9110 10056 -9339
30438 224430 256586 -9255 10053 -9342
30340 223348 255472 -9406 9972 -9292
30348 223420 255505 -9570 9863 -9201
30371 223545 255577 -9626 9775 -9122
30377 223528 255562 -9575 9615 -9042
30417 223774 255787 -9544 9476 -8982
30449 223844 255831 -9492 9447 -8926
30480 223948 255918 -9398 9520 -8872
30498 223913 255904 -9250 9724 -8891
30521 223872 255876 -9152 9937 -9034
30543 223789 255780 -9133 10078 -9205
30567 223713 255651 -9162 10123 -9255
30595 223593 255471 -9268 10056 -9190
30616 223440 255286 -9381 9870 -9057
30638 223276 255077 -9423 9623 -8862
30668 223183 254943 -9488 9394 -8673
30688 223083 254818 -9667 9217 -8567
30675 222902 254631 -9872 9115 -8555
30618 222698 254417 -10065 9057 -8581
30534 222514 254237 -10239 9027 -8551
30445 222334 254039 -10390 9031 -8485
30365 222166 253886 -10536 9001 -8411
30308 222061 253775 -10663 8911 -8365
30281 222030 253707 -10762 8851 -8406
30273 221997 253656 -10849 8833 -8453
30264 221861 253449 -11010 8777 -8429
30261 221713 253226 -11290 8656 -8352
30272 221654 253093 -11622 8509 -8199
30303 221838 253240 -11908 8375 -7972
30340 222055 253426 -11970 8286 -7771
30377 222250 253585 -11926 8236 -7639
30400 222304 253589 -12005 8200 -7514
30415 222369 253614 -12174 8149 -7343
30414 222309 253511 -12426 7855 -7005
30405 222183 253328 -12569 7741 -6915
30419 222186 253281 -12752 7615 -6840
30430 222164 253206 -12952 7469 -6727
30442 222086 253093 -13159 7286 -6610
30460 222025 252969 -13263 7107 -6519
30480 221880 252743 -13251 6960 -6378
30501 221750 252532 -13228 6789 -6143
30532 221674 252391 -13224 6633 -5817
30561 221555 252168 -13322 6499 -5467
30596 221374 251864 -13624 6289 -5121
30631 221249 251617 -14059 5960 -4762
30671 221197 251497 -14434 5610 -4429
30715 221244 251507 -14664 5323 -4157
30759 221291 251514 -14821 5132 -3999
30804 221326 251499 -15004 5000 -3888
30829 221303 251439 -15261 4862 -3672
30812 221239 251384 -15500 4719 -3351
30758 221251 251451 -15623 4583 -3077
30683 221234 251477 -15669 4529 -2959
30606 221137 251400 -15727 4542 -2922
30540 221017 251274 -15866 4524 -2860
30501 220996 251243 -16057 4471 -2766
30486 221095 251330 -16156 4434 -2637
30475 221160 251381 -16143 4421 -2517
30477 221151 251335 -16164 4427 -2465
30477 221115 251281 -16272 4405 -2415
30499 221229 251377 -16303 4337 -2317
30530 221329 251444 -16285 4275 -2251
30562 221421 251523 -16338 4224 -2208
30588 221552 251645 -16404 4114 -2087
30606 221698 251793 -16463 4059 -2048
30629 221869 251965 -16462 4003 -1961
30633 221959 252003 -16316 3926 -1788
30641 222006 252019 -16104 3859 -1542
30642 221991 251949 -15967 3818 -1289
30641 221911 251817 -15817 3778 -1040
30640 221827 251695 -15594 3747 -831
30644 221808 251640 -15334 3754 -684
30648 221764 251554 -15095 3793 -499
30652 221650 251394 -15143 3772 -411
30655 221501 251222 -15240 3724 -349
30663 221439 251134 -15332 3654 -318
30673 221377 251057 -15417 3594 -303
30680 221271 250923 -15573 3520 -262
30682 221063 250695 -15858 3431 -216
30682 220817 250411 -16188 3342 -175
30682 220630 250233 -16469 3248 -178
30679 220565 250188 -16687 3128 -352
30646 220455 250100 -16654 3153 -494
30571 220332 250045 -16608 3214 -735
30491 220302 250068 -16563 3295 -1021
30419 220328 250124 -16503 3419 -1317
30357 220321 250128 -16318 3571 -1593
30302 220277 250071 -15967 3711 -1840
30255 220217 250006 -15547 3827 -2075
30222 220222 250035 -15216 3941 -2343
30215 220453 250320 -14998 4081 -2619
30223 220711 250640 -14861 4281 -2873
30241 220978 250958 -14768 4509 -3066
30273 221216 251237 -14685 4736 -3172
30304 221501 251543 -14642 4995 -3256
30339 221838 251945 -14658 5288 -3321
30377 222268 252457 -14723 5607 -3340
30410 222681 252927 -14818 5904 -3341
30432 223009 253318 -14996 6139 -3416
30453 223357 253729 -15240 6346 -3563
30479 223676 254120 -15386 6519 -3702
30512 224002 254484 -15382 6659 -3790
30561 224399 254924 -15300 6774 -3875
30615 224852 255407 -15150 6842 -3995
30688 225406 255983 -14937 6870 -4099
30768 226016 256602 -14698 6892 -4184
30843 226557 257139 -14424 6910 -4256
30920 227056 257642 -14105 6906 -4312
30989 227439 258004 -13805 6892 -4373
31053 227712 258277 -13568 6865 -4447
31113 227935 258484 -13380 6845 -4534
30979 228201 258961 -13330 6989 -4704
31000 228306 259071 -13415 7098 -4688
31045 228487 259240 -13550 7165 -4640
31088 228605 259339 -13709 7154 -4595
31135 228709 259418 -13856 7089 -4550
31173 228802 259501 -14012 7023 -4503
31203 228894 259583 -14162 6924 -4437
31232 228991 259676 -14245 6815 -4332
31254 229068 259724 -14303 6745 -4203
31277 229138 259773 -14332 6685 -4088
31298 229222 259837 -14355 6672 -4021
31331 229344 259936 -14393 6699 -3990
31371 229501 260064 -14403 6741 -3966
31415 229652 260174 -14379 6806 -3922
31459 229794 260288 -14374 6894 -3861
31505 229940 260395 -14415 7000 -3812
31548 230087 260517 -14453 7088 -3742
31596 230196 260603 -14483 7181 -3637
31639 230283 260679 -14519 7248 -3555
31685 230397 260782 -14588 7251 -3496
31728 230476 260843 -14657 7230 -3419
31761 230526 260858 -14694 7209 -3333
31779 230542 260861 -14691 7196 -3223
31754 230489 260829 -14675 7192 -3084
31698 230425 260792 -14665 7192 -2981
31622 230343 260725 -14659 7206 -2929
31548 230299 260699 -14670 7232 -2884
31484 230300 260753 -14703 7268 -2886
31443 230375 260881 -14737 7333 -3000
31424 230498 261052 -14714 7407 -3124
31630 230444 260970 -14193 7255 -3739
31631 230235 260698 -14334 7284 -3874
31637 230118 260532 -14471 7271 -4014
31653 230024 260393 -14548 7256 -4157
31675 229942 260257 -14517 7244 -4258
31706 229914 260162 -14426 7205 -4280
31743 230020 260234 -14349 7150 -4272
31788 230278 260470 -14256 7093 -4260
31836 230560 260775 -14120 7041 -4270
31889 230760 260977 -13871 7068 -4344
31932 230865 261058 -13812 7086 -4362
31970 231001 261207 -13780 7105 -4372
31982 231128 261362 -13768 7135 -4384
31953 231150 261405 -13797 7165 -4390
31897 231148 261420 -13835 7187 -4366
31827 231173 261486 -13874 7217 -4328
31773 231252 261594 -13934 7277 -4325
31733 231311 261655 -13963 7300 -4318
31711 231425 261787 -13941 7298 -4298
31702 231565 261938 -13959 7331 -4314
31707 231670 262045 -14051 7381 -4337
31728 231812 262179 -14145 7406 -4312
31764 232011 262368 -14201 7394 -4267
31803 232197 262563 -14243 7386 -4266
31836 232322 262708 -14299 7379 -4271
31854 232363 262766 -14304 7359 -4265
31860 232343 262744 -14194 7349 -4281
31859 232295 262682 -14023 7349 -4309
31855 232264 262675 -13906 7344 -4322
31854 232262 262692 -13875 7305 -4302
31857 232241 262667 -13883 7262 -4259
31865 232244 262677 -13892 7269 -4231
31883 232252 262669 -13902 7330 -4256
31902 232274 262684 -13908 7412 -4298
31927 232316 262749 -13870 7465 -4296
31961 232394 262817 -13829 7470 -4245
31998 232497 262921 -13852 7472 -4214
32036 232590 263021 -13912 7518 -4238
32078 232714 263143 -13942 7564 -4259
32123 232843 263290 -13964 7557 -4228
32166 232980 263433 -14010 7552 -4211
32183 233080 263556 -14061 7552 -4202
32161 233124 263629 -14088 7581 -4198
32106 233132 263672 -14063 7626 -4189
32040 233118 263694 -14008 7659 -4192
31980 233116 263708 -13927 7692 -4220
31934 233125 263721 -13794 7715 -4250
31904 233160 263761 -13656 7746 -4275
31893 233216 263833 -13535 7781 -4315
31890 233287 263907 -13421 7823 -4362
32055 234435 265107 -13757 8078 -4092
32070 234499 265171 -13626 8122 -4098
32086 234601 265274 -13488 8170 -4079
32109 234704 265387 -13367 8241 -4066
32138 234830 265524 -13280 8328 -4062
32170 234951 265654 -13231 8451 -4052
32213 235137 265825 -13270 8631 -4069
32266 235351 266009 -13369 8818 -4122
32302 235424 266083 -13449 8968 -4177
32317 235374 266052 -13503 9075 -4216
32307 235324 265994 -13520 9119 -4273
32248 235159 265878 -13431 9098 -4351
32190 235212 265952 -13252 9043 -4447
32125 235180 265927 -13079 8935 -4575
32068 235163 265919 -12927 8788 -4686
32031 235141 265900 -12786 8656 -4780
32009 235085 265817 -12630 8568 -4893
31998 235017 265715 -12514 8532 -5073
31994 234951 265635 -12410 8525 -5448
31997 234886 265549 -12442 8507 -5564
32012 234840 265475 -12500 8433 -5618
32031 234796 265411 -12546 8367 -5640
32051 234731 265299 -12615 8321 -5659
32064 234618 265122 -12670 8268 -5622
32066 234469 264944 -12669 8204 -5548
32064 234334 264774 -12679 8124 -5502
32058 234203 264604 -12750 8038 -5475
32053 234041 264411 -12874 7954 -5485
32059 233924 264260 -13016 7833 -5570
32069 233791 264081 -13129 7678 -5661
32081 233638 263865 -13204 7479 -5652
32094 233533 263740 -13236 7234 -5529
32118 233474 263640 -13269 7034 -5406
32150 233471 263572 -13330 6909 -5321
32177 233416 263487 -13421 6828 -5250
32199 233314 263345 -13528 6771 -5162
32225 233179 263164 -13621 6749 -4988
32246 233095 263054 -13703 6760 -4751
32251 232957 262884 -13782 6829 -4553
32209 232693 262619 -13884 6978 -4410
32129 232405 262320 -13901 7178 -4227
32038 232165 262093 -13795 7414 -4016
31966 231977 261890 -13697 7666 -3861
31904 231779 261646 -13686 7886 -3773
31854 231581 261415 -13688 8055 -3693
31817 231432 261248 -13658 8203 -3573
31787 231318 261146 -13647 8337 -3428
31778 231311 261133 -13651 8426 -3283
31783 231298 261084 -13841 8523 -3267
31790 231208 260950 -13965 8475 -3271
31729 230776 260503 -13893 7769 -4200
31737 230778 260510 -13750 7691 -4250
31752 230760 260498 -13591 7630 -4284
31771 230705 260411 -13472 7611 -4308
31792 230645 260331 -13398 7617 -4298
31815 230610 260280 -13375 7619 -4236
31831 230594 260259 -13438 7641 -4209
31823 230534 260214 -13560 7685 -4266
31776 230406 260114 -13662 7760 -4328
31700 230272 260007 -13729 7822 -4322
