2025-08-20 01:05:14    绿光---红外光---红光---X轴---Y轴---Z轴
49675 177401 226279 401 17156 1528
45172 162710 205473 737 16904 1107
42582 152884 194334 334 16347 629
34800 121537 154618 -541 15592 62
19855 65033 81723 -663 15237 -284
10087 31730 39521 -677 15200 -407
6441 19958 24578 -655 15235 -514
4860 14907 18432 -734 15071 -565
4550 14006 17371 -617 14842 -747
4794 14602 18197 -72 14770 -1239
5309 15843 19962 481 15095 -1608
6656 19658 25235 868 15448 -1590
10558 31715 41794 1298 15952 -1157
18534 57557 76798 1702 16604 -536
27034 85923 114039 1894 16846 -181
36116 116985 155248 2008 16617 -26
43073 142380 187130 2232 16233 163
46644 159197 206539 2404 16275 781
47984 170018 218164 2394 16527 1606
48038 174868 223758 2288 16540 2232
47796 176738 226221 2060 16413 2773
47472 175492 224662 1710 16238 3205
46916 170766 219039 1372 16105 3470
46206 167131 214996 1119 15921 3727
45718 165966 213572 888 15958 3860
45170 163153 210329 767 15886 3896
44420 157803 204276 691 15816 3991
42978 148634 193650 578 15787 3968
40322 135856 177833 446 15763 3921
37194 123474 161245 366 15832 3906
34076 112518 145686 275 15886 3897
30814 101729 129862 189 15841 4112
27712 91831 115063 112 15743 4426
24845 82755 101302 0 15695 4659
22259 74399 88615 43 15874 4594
19779 66768 77229 21 15971 4596
17546 59715 67140 -117 15927 4605
15567 53471 58321 -367 15773 4628
14156 49081 52161 -604 15716 4612
13069 45750 47426 -736 15808 4524
11876 41990 42257 -811 15877 4364
10508 37625 36424 -977 15873 4204
9321 33866 31428 -1163 15798 4098
8501 31287 27962 -1258 15624 3973
7941 29523 25530 -1368 15515 3869
7404 27720 23464 -1499 15526 3796
6781 25576 20868 -1615 15551 3763
5969 22900 17543 -1697 15629 3744
5142 19967 14277 -1727 15660 3743
4379 17210 11359 -1713 15624 3773
3646 14488 8671 -1788 15580 3754
2955 11879 6279 -1975 15607 3697
2359 9601 4371 -2148 15732 3651
1921 7913 3083 -2420 15752 3519
1558 6476 2156 -2700 15694 3226
1266 5294 1540 -2904 15685 2791
1042 4382 1164 -3108 15727 2335
872 3664 946 -3291 15804 1951
733 3072 827 -3465 15878 1613
630 2621 784 -3603 15907 1236
567 2334 796 -3664 15865 836
524 2132 832 -3706 15780 497
497 1985 875 -3769 15706 166
475 1877 914 -3897 15778 -261
457 1786 933 -3872 15893 -364
441 1702 938 -3833 15925 -473
429 1642 936 -3787 15915 -563
420 1596 923 -3747 15899 -638
413 1566 904 -3760 15869 -680
406 1533 870 -3793 15898 -704
402 1511 836 -3802 15957 -740
401 1501 805 -3809 15962 -740
399 1493 770 -3756 15912 -790
393 1466 718 -3757 15962 -818
388 1460 653 -3803 15986 -858
394 1493 596 -3814 15891 -956
395 1501 569 -3827 15781 -1016
393 1500 556 -3898 15766 -1002
387 1486 550 -3946 15736 -1001
378 1450 546 -4007 15756 -991
368 1385 542 -4164 15863 -1004
355 1318 541 -4655 15699 -1067
315 1089 526 -4914 15883 -1169
282 912 515 -4594 15655 -1264
275 877 515 -4062 15390 -1377
270 837 511 -4000 15581 -1462
266 810 510 -4002 15653 -1456
264 786 509 -3996 15739 -1440
257 768 508 -4026 15666 -1348
258 756 507 -4082 15611 -1247
259 750 507 -4116 15688 -1244
257 746 509 -4121 15766 -1277
257 751 509 -4247 15828 -1253
259 760 511 -4432 15854 -1177
259 772 513 -4479 15861 -1132
263 790 517 -4433 15933 -1090
266 817 520 -4338 15996 -1056
271 841 525 -4157 15945 -1097
275 859 529 -3929 15846 -1153
280 881 532 -3795 15835 -1158
702 2346 2282 -10568 8938 -4005
725 2432 2444 -12181 8170 -2014
770 2592 2669 -12308 8312 -1039
820 2741 2915 -12121 8816 -19
912 2998 3226 -11562 9748 1120
1104 3488 3739 -10556 11214 2284
1460 4303 4641 -9003 12728 3078
2016 5493 6121 -7167 14084 3231
2561 6557 7594 -5280 15383 3147
3178 7787 9463 -3169 16281 3279
5374 12880 16620 -10568 8938 -4005
8161 19354 25825 -12181 8170 -2014
9269 21650 29217 -12308 8312 -1039
9519 22233 29965 -12121 8816 -19
9490 22209 29791 -11562 9748 1120
8836 20837 27483 -10556 11214 2284
7862 19161 24403 -9003 12728 3078
7090 18189 21955 -7167 14084 3231
5992 16310 18005 -5280 15383 3147
4743 13745 13668 -3169 16281 3279
3554 10891 9802 -847 18610 2080
2839 9117 7541 -571 18930 1248
2356 7854 6087 -539 18596 507
1969 6767 4983 -914 18102 198
1674 5931 4188 -1422 17604 79
1489 5414 3713 -1793 17161 12
1368 5069 3413 -2212 16748 -121
1268 4767 3173 -2674 16403 -286
1187 4503 2975 -3017 16203 -373
1123 4294 2825 -3447 15807 -327
1081 4159 2733 -3701 15631 -397
1054 4061 2669 -3927 15311 -565
1029 3975 2617 -4102 15137 -632
1000 3882 2557 -4300 15266 -483
981 3819 2516 -4486 15480 -309
966 3778 2489 -4586 15604 -269
951 3734 2458 -4584 15718 -399
936 3686 2435 -4477 15848 -633
928 3674 2447 -4386 15902 -855
929 3693 2506 -4287 15887 -1107
926 3705 2569 -4139 15803 -1404
914 3687 2617 -4055 15716 -1633
901 3664 2639 -4081 15719 -1752
896 3658 2666 -4169 15710 -1807
887 3647 2709 -4260 15664 -1838
884 3652 2772 -4301 15722 -1880
890 3675 2817 -4316 15835 -1923
883 3649 2808 -4392 15882 -1942
871 3587 2764 -4704 15800 -1868
853 3511 2681 -5150 15618 -1735
837 3434 2602 -5474 15459 -1685
828 3377 2529 -5690 15420 -1741
808 3278 2427 -5786 15335 -1893
788 3161 2311 -5839 15180 -2061
767 3056 2203 -5907 15045 -2216
747 2958 2094 -5945 14809 -2391
729 2871 1996 -5900 14563 -2611
715 2802 1910 -5821 14406 -2813
705 2743 1826 -5733 14486 -2979
694 2686 1745 -5672 14839 -2893
686 2642 1676 -5891 14973 -2577
682 2622 1641 -5683 15220 -2592
684 2629 1644 -5277 15339 -2762
694 2653 1771 -4946 15354 -2943
744 2682 2232 -4631 15250 -3195
869 2767 3141 -4421 15068 -3383
1088 3352 4668 -4337 15142 -3454
1357 4879 6469 -4241 15343 -3493
1535 6316 7655 -3480 15682 -3911
1651 7172 8476 -3375 15872 -3919
1757 7750 9229 -3449 15973 -3810
1645 7217 8433 -3446 15963 -3740
1466 6389 7305 -3509 15957 -3661
1462 6368 7359 -3617 15956 -3604
1492 6466 7553 -3673 15809 -3633
1437 6159 7151 -3668 15572 -3742
1408 5980 6929 -3655 15344 -3860
1424 6000 7044 -3889 14972 -3943
1600 6718 8423 -4024 15017 -3894
2589 10865 15923 -4080 15284 -3834
15080 56403 89030 -4006 15509 -3832
46528 241734 316211 -3841 15650 -3899
48010 273606 370531 -3678 15790 -3945
50990 281592 377041 -3570 15888 -3934
52897 284988 379977 -3548 15921 -3878
53571 283094 378903 -3617 15940 -3783
55350 274309 371723 -3736 15942 -3684
52183 174988 275753 -4617 15657 -2676
7886 24948 55054 -5177 15236 -1950
2509 8610 13753 -5024 15375 -2213
880 3490 3441 -6041 15169 -1884
888 3528 3484 -6113 15301 -1653
904 3609 3597 -6122 15429 -1548
915 3665 3687 -6116 15450 -1546
914 3661 3696 -6075 15372 -1615
911 3636 3690 -5908 15307 -1780
902 3570 3628 -5642 15297 -1990
887 3469 3525 -5294 15374 -2339
873 3385 3454 -5181 15368 -2429
862 3310 3393 -5018 15326 -2531
844 3229 3304 -4941 15301 -2552
834 3181 3244 -5027 15317 -2480
832 3163 3241 -5203 15319 -2353
839 3180 3295 -5359 15293 -2240
848 3203 3341 -5470 15313 -2159
847 3213 3357 -5531 15356 -2091
848 3217 3354 -5453 15371 -2127
844 3200 3315 -5351 15415 -2133
831 3162 3233 -5217 15494 -2172
818 3114 3134 -5097 15525 -2220
808 3074 3062 -5037 15517 -2259
802 3042 3015 -5008 15517 -2290
799 3026 2998 -5003 15495 -2303
803 3036 3017 -4973 15488 -2309
809 3069 3067 -4911 15515 -2347
822 3131 3155 -4958 15503 -2354
834 3200 3262 -4995 15487 -2317
851 3283 3392 -5007 15453 -2311
881 3433 3619 -4937 15489 -2349
926 3643 3947 -4864 15569 -2388
974 3862 4287 -4914 15594 -2371
1015 4060 4564 -5084 15528 -2296
1035 4158 4686 -5205 15390 -2262
1036 4179 4719 -5205 15246 -2308
1030 4152 4693 -5156 15244 -2383
1010 4070 4572 -4984 15385 -2480
985 3964 4406 -4790 15526 -2602
958 3850 4221 -4711 15569 -2674
934 3744 4043 -4763 15552 -2652
904 3615 3820 -4905 15503 -2557
876 3496 3630 -5025 15462 -2494
860 3434 3525 -5080 15429 -2509
848 3374 3427 -5182 15361 -2508
826 3269 3272 -5256 15272 -2522
803 3159 3112 -5281 15217 -2569
785 3082 3003 -5303 15215 -2598
774 3034 2937 -5344 15209 -2571
762 2982 2862 -5428 15206 -2508
747 2924 2782 -5408 15239 -2486
742 2900 2750 -5360 15272 -2504
748 2906 2768 -5329 15295 -2506
756 2945 2835 -5321 15344 -2474
770 3010 2942 -5314 15374 -2438
783 3067 3036 -5315 15373 -2429
789 3085 3078 -5316 15375 -2444
795 3096 3119 -5310 15366 -2467
795 3095 3145 -5338 15338 -2449
790 3068 3147 -5408 15323 -2379
789 3049 3155 -5526 15310 -2311
790 3064 3183 -5605 15273 -2248
787 3056 3169 -5593 15290 -2204
775 3024 3109 -5522 15401 -2173
760 2984 3030 -5434 15533 -2166
747 2938 2943 -5367 15594 -2194
737 2901 2868 -5399 15589 -2215
727 2870 2799 -5565 15379 -2390
719 2830 2722 -5620 15203 -2530
708 2788 2646 -5620 15000 -2683
700 2759 2597 -5604 14896 -2797
698 2754 2581 -5615 14910 -2818
703 2777 2615 -5683 14967 -2762
718 2843 2714 -5739 15017 -2692
739 2941 2853 -5743 15037 -2652
756 3015 2962 -5709 15055 -2606
767 3070 3051 -5609 15216 -2462
780 3129 3144 -5565 15330 -2423
792 3180 3228 -5580 15393 -2396
798 3209 3277 -5636 15371 -2347
799 3210 3282 -5718 15328 -2277
796 3193 3252 -5767 15361 -2230
795 3183 3226 -5694 15413 -2258
789 3165 3186 -5660 15329 -2289
785 3155 3164 -5745 15213 -2284
792 3201 3228 -5779 15193 -2300
840 3428 3566 -5828 15131 -2294
945 3935 4344 -5893 15116 -2296
1324 5695 7224 -5919 15143 -2327
5281 22123 36334 -5948 15086 -2353
38994 199380 237972 -5983 15075 -2371
44942 285358 377469 -6010 15115 -2368
47513 289519 379907 -6040 15037 -2323
49074 288287 377037 -5688 14286 627
58531 273049 369050 -6682 14553 -336
41598 140002 229376 -7371 15396 -3781
6851 26320 38447 -6317 15280 -3421
2106 9219 11573 -5551 15509 -3568
1322 5828 6831 -5174 15579 -3452
1063 4613 5138 -5457 15177 -3146
922 3948 4208 -5907 14810 -2922
854 3609 3741 -6101 14670 -2771
819 3437 3501 -6066 14707 -2739
807 3374 3430 -6052 14702 -2656
814 3412 3494 -6211 14714 -2434
816 3424 3510 -6396 14835 -2226
812 3398 3479 -6415 15015 -2174
804 3359 3423 -6278 15172 -2266
801 3344 3395 -6151 15161 -2386
806 3368 3420 -6085 15033 -2497
815 3409 3478 -6029 14969 -2588
822 3436 3515 -5977 15042 -2639
824 3460 3541 -5933 15142 -2641
830 3477 3557 -5971 15125 -2586
833 3494 3575 -6049 15068 -2519
835 3509 3594 -6063 15017 -2482
833 3505 3597 -6022 14995 -2482
830 3490 3584 -6029 15018 -2457
826 3479 3577 -6025 15071 -2432
824 3478 3576 -5981 15160 -2437
825 3492 3593 -5934 15208 -2477
824 3497 3594 -5875 15193 -2529
827 3509 3609 -5763 15183 -2579
841 3578 3706 -5663 15179 -2629
866 3714 3899 -5614 15130 -2647
911 3949 4228 -5628 15126 -2632
989 4361 4813 -5375 15411 -2697
1150 5178 5998 -5098 15501 -2777
1597 7387 9273 -4861 15366 -2821
3915 18389 26296 -4591 15307 -2904
33804 141612 173452 -4243 15407 -3050
44536 292208 371595 -4023 15478 -3123
47190 296640 385086 -4022 15312 -2992
48761 297894 385875 -4364 15575 -2788
49698 296286 385325 -4670 15977 -2481
66556 285544 393129 -3745 15728 -3242
35123 127164 229376 -3347 15658 -3456
6656 27535 39489 -3528 15558 -3357
2572 11483 14745 -4082 15367 -3223
1630 7315 8988 -4288 15281 -3082
1267 5620 6638 -4293 15453 -2999
1070 4679 5329 -4221 15579 -2924
956 4130 4564 -4279 15537 -2792
894 3829 4152 -4490 15540 -2613
863 3674 3949 -4580 15680 -2538
850 3604 3872 -4450 15734 -2652
851 3604 3894 -4275 15736 -2839
850 3619 3944 -4170 15628 -2998
855 3647 4008 -4157 15488 -3105
861 3672 4069 -4140 15396 -3205
863 3686 4111 -4254 15390 -3220
860 3669 4110 -4450 15440 -3138
850 3619 4060 -4557 15541 -3070
831 3535 3953 -4524 15586 -3066
810 3435 3825 -4382 15518 -3122
786 3328 3683 -4279 15476 -3201
761 3193 3488 -4507 15103 -3136
729 3028 3289 -4577 15082 -3188
700 2875 3117 -4201 15400 -3322
679 2764 3000 -4125 15432 -3286
666 2691 2929 -4294 15501 -3153
657 2642 2893 -4486 15634 -2918
668 2680 2976 -4518 15849 -2827
711 2896 3277 -4217 16013 -2895
797 3313 3858 -4304 15802 -2790
963 4132 5037 -4802 15461 -2550
1458 6586 8686 -4881 15444 -2441
4631 21204 31815 -4919 15385 -2391
37867 172050 205189 -5079 15340 -2459
51841 299617 390608 -4053 14268 -504
54923 303045 399258 -5836 14206 -1338
56559 302496 398637 -7532 15423 -4106
60242 285822 387124 -5952 15571 -4014
47872 165742 260577 -5340 15659 -3936
8528 33077 50352 -5545 14886 -3245
2722 11809 14021 -5841 14721 -3226
1773 7726 8393 -5883 14821 -3246
1408 6047 6105 -5820 14957 -3253
1194 5035 4763 -5866 14982 -3207
1070 4441 4008 -6021 14950 -3093
1001 4112 3598 -6128 14930 -2995
960 3925 3379 -6153 14914 -2979
933 3804 3243 -6130 14937 -3051
909 3681 3089 -6069 14947 -3111
885 3565 2938 -6014 14909 -3139
870 3501 2850 -5992 14890 -3198
862 3481 2812 -5984 14962 -3245
862 3499 2835 -5948 15033 -3252
874 3566 2940 -5943 15013 -3220
898 3679 3129 -6000 14995 -3154
939 3881 3449 -6025 15050 -3142
1016 4264 4038 -5996 15075 -3213
1214 5202 5542 -5979 14945 -3270
2137 9304 12507 -5988 14860 -3251
17397 65644 92237 -6081 15001 -3073
39742 255614 315654 -6391 14945 -2914
41424 269906 356320 -6143 14868 -3259
46780 261944 356024 -5561 15069 -3520
55927 204802 297323 -5619 14969 -3480
17004 62842 93606 -5931 14644 -3456
4835 20556 27777 -6094 14611 -3398
2555 11472 14365 -6056 14790 -3430
1783 8054 9431 -5991 14900 -3409
1415 6339 7014 -6129 14743 -3319
1233 5476 5813 -6212 14659 -3279
1142 5030 5196 -6175 14685 -3330
1101 4847 4946 -6106 14733 -3422
1112 4903 5040 -6065 14737 -3465
1128 4981 5153 -6050 14745 -3474
1135 5012 5213 -6029 14766 -3494
1145 5063 5300 -5965 14838 -3531
1153 5107 5374 -5867 14930 -3555
1165 5163 5459 -5782 14985 -3534
1174 5208 5531 -5765 14989 -3509
1193 5301 5674 -5816 14959 -3476
1236 5510 5988 -5897 14976 -3414
1317 5901 6567 -5956 14998 -3356
1483 6689 7757 -5980 15022 -3336
2028 9206 11719 -5975 15025 -3341
5256 22951 34727 -5683 15045 -2053
33554 156432 204788 -6053 15145 -2494
42088 279991 366590 -6253 15113 -4043
44826 281201 368675 -5653 15087 -3806
46549 278629 364640 -5634 14986 -3570
66838 267924 366124 -5862 14789 -3175
39936 135567 193941 -6033 15039 -2725
11010 43098 60249 -6144 15561 -2291
4353 18613 24665 -6333 15967 -1915
2390 10472 13173 -6444 16201 -1693
1519 6616 7723 -6689 16027 -1524
1089 4621 4912 -7184 15625 -1203
864 3523 3348 -7100 15643 -1237
739 2899 2406 -5653 15087 -3806
678 2566 1837 -5634 14986 -3570
677 2490 1506 -5862 14789 -3175
730 2629 1321 -6033 15039 -2725
772 2725 1196 -6144 15561 -2291
801 2799 1113 -6333 15967 -1915
814 2842 1056 -6444 16201 -1693
829 2903 1015 -6689 16027 -1524
829 2929 976 -7184 15625 -1203
831 2971 952 -7100 15643 -1237
831 2989 938 -4837 15664 -3007
820 2967 930 -3589 15432 -4080
806 2919 921 -2416 15259 -4909
794 2874 912 -1114 15285 -5911
787 2851 906 136 15173 -6912
762 2750 891 995 14814 -7626
731 2636 878 1266 14386 -7920
704 2537 867 846 14094 -7769
691 2483 861 272 14048 -7311
688 2464 861 -225 14374 -6704
685 2444 863 -548 14781 -6169
677 2410 859 -690 14889 -5906
659 2344 846 -732 14831 -5801
638 2261 833 -814 14774 -5884
619 2179 822 -1176 14784 -5863
607 2125 816 -1552 14937 -5506
595 2072 812 -1963 15016 -5330
580 2014 805 -2475 15113 -5207
573 1979 799 -2908 15300 -4867
562 1940 791 -3864 15428 -4171
707 2628 1173 -5409 15035 -4328
720 2690 1218 -5252 15028 -4307
730 2739 1260 -5538 14879 -4045
728 2742 1283 -5922 14757 -3646
721 2725 1296 -6143 14725 -3267
710 2689 1297 -6265 14636 -3022
696 2646 1295 -6342 14513 -2866
683 2593 1286 -6312 14490 -2714
669 2538 1274 -6228 14595 -2492
655 2485 1263 -6197 14837 -2253
639 2427 1247 -6175 15007 -2031
635 2405 1235 -6193 15031 -1828
626 2375 1225 -6208 15032 -1725
619 2346 1214 -6139 15087 -1747
612 2315 1203 -6003 15133 -1810
603 2287 1194 -5868 15195 -1834
596 2263 1184 -5768 15360 -1849
592 2238 1174 -5666 15504 -1867
587 2217 1169 -5535 15584 -1926
583 2204 1167 -5199 15568 -1963
581 2197 1172 -5085 15564 -1938
582 2198 1180 -5039 15583 -1947
584 2203 1186 -5092 15579 -1941
585 2206 1194 -5149 15512 -1934
589 2216 1202 -5086 15483 -1955
593 2226 1211 -4950 15536 -1994
594 2231 1216 -4796 15616 -2040
594 2237 1219 -4741 15695 -2048
595 2245 1219 -4978 15636 -1917
597 2244 1216 -4989 15591 -1909
594 2240 1214 -4955 15548 -1911
594 2237 1215 -4995 15475 -1901
590 2243 1221 -5099 15460 -1885
588 2245 1231 -5179 15487 -1864
589 2250 1243 -5178 15473 -1877
592 2261 1257 -5078 15433 -1909
592 2271 1273 -4881 15460 -1942
591 2273 1286 -4451 15748 -2017
588 2265 1295 -4355 15798 -2017
585 2258 1304 -4345 15768 -1976
585 2257 1318 -4393 15748 -1941
591 2276 1339 -4490 15694 -1901
593 2296 1368 -4637 15608 -1830
597 2322 1405 -4753 15615 -1728
604 2358 1453 -4777 15756 -1659
613 2405 1513 -4696 15874 -1676
623 2463 1581 -4580 15881 -1741
635 2523 1654 -4472 15847 -1786
641 2572 1728 -4419 15879 -1809
648 2613 1798 -4435 15952 -1822
647 2631 1854 -4481 15974 -1832
644 2622 1880 -4610 15945 -1868
637 2583 1870 -4751 15783 -1978
624 2516 1827 -4752 15529 -2239
608 2429 1764 -4643 15325 -2597
592 2335 1695 -4613 15110 -2891
579 2247 1630 -4730 14848 -3045
560 2171 1573 -4891 14670 -3098
549 2114 1532 -4918 14645 -3180
539 2070 1503 -4656 14757 -3347
529 2044 1487 -4222 14961 -3531
522 2029 1483 -3732 15221 -3711
522 2022 1485 -3105 15501 -3892
523 2020 1492 -2462 15732 -4102
523 2018 1500 -1962 15888 -4314
521 2015 1510 -1620 15931 -4490
522 2011 1516 -1445 15833 -4597
521 2005 1521 -1402 15713 -4462
518 1994 1518 -1452 15882 -4283
516 1985 1513 -1557 15984 -4108
514 1971 1503 -1689 16049 -3949
511 1956 1491 -1869 16074 -3837
509 1942 1483 -2147 16018 -3741
504 1926 1470 -2427 15956 -3682
500 1907 1458 -2546 15916 -3687
497 1888 1444 -2569 15879 -3708
492 1871 1432 -2445 15812 -3779
490 1857 1424 -2398 15792 -3832
488 1845 1412 -2453 15777 -3854
485 1835 1402 -2464 15762 -3883
482 1825 1391 -2442 15684 -3912
481 1817 1382 -2457 15667 -3905
479 1810 1374 -2454 15785 -3893
478 1806 1370 -2449 15809 -3896
476 1799 1363 -2509 15684 -3897
475 1795 1356 -2583 15578 -3901
474 1790 1351 -2520 15578 -3912
472 1783 1347 -2402 15632 -3924
471 1775 1341 -2343 15643 -3918
468 1766 1336 -2355 15655 -3894
467 1762 1335 -2334 15731 -3874
465 1761 1334 -2281 15800 -3859
467 1762 1336 -2225 15842 -3853
466 1764 1345 -2181 15889 -3866
466 1767 1355 -2186 15870 -3883
468 1772 1371 -2180 15775 -3895
469 1777 1385 -2169 15716 -3896
469 1782 1400 -2118 15739 -3886
469 1786 1412 -2048 15783 -3869
471 1788 1418 -2002 15836 -3819
472 1794 1426 -1988 15885 -3745
473 1799 1435 -2026 15862 -3643
474 1802 1436 -2078 15872 -3534
474 1806 1439 -2059 15942 -3446
474 1809 1442 -2040 15985 -3393
477 1816 1443 -2086 15970 -3362
477 1821 1447 -2197 15915 -3335
478 1826 1452 -2244 15878 -3371
477 1827 1456 -2210 15846 -3443
476 1826 1454 -2173 15795 -3498
475 1826 1454 -2150 15766 -3523
474 1824 1450 -2138 15770 -3501
475 1822 1447 -2067 15806 -3470
474 1822 1445 -1973 15874 -3438
474 1822 1442 -1883 15940 -3415
472 1820 1438 -1829 15959 -3413
475 1829 1441 -1806 15912 -3360
475 1835 1441 -1752 15918 -3297
475 1835 1442 -1618 15992 -3275
476 1836 1441 -1481 16015 -3291
473 1830 1438 -1416 15978 -3302
470 1821 1431 -1306 15984 -3292
465 1802 1418 -1166 16046 -3317
462 1782 1401 -1141 16023 -3326
454 1758 1380 -1217 15954 -3282
451 1738 1362 -1217 15961 -3191
448 1724 1348 -1279 16074 -2848
445 1715 1337 -1405 16110 -2737
445 1722 1332 -1365 16125 -2711
445 1729 1325 -1190 16113 -2753
449 1747 1325 -998 16105 -2811
455 1781 1343 -904 16091 -2837
461 1831 1374 -863 16068 -2842
468 1880 1418 -787 16088 -2839
475 1928 1470 -610 16182 -2850
477 1953 1512 -107 16307 -2899
479 1969 1551 335 16278 -2821
479 1977 1579 789 16434 -2644
479 1985 1588 1161 16470 -2474
482 1999 1598 1654 16277 -2527
483 2013 1610 2174 15949 -2735
482 2020 1615 2678 15532 -2910
484 2032 1622 3204 15257 -2929
488 2052 1630 3734 15139 -2860
488 2069 1632 4256 15096 -2811
491 2081 1626 4634 15102 -2730
491 2081 1596 4902 15141 -2645
489 2068 1548 5029 15157 -2565
487 2060 1506 5043 15164 -2498
487 2057 1475 4864 15254 -2435
486 2053 1452 4479 15368 -2377
480 2032 1428 4219 15369 -2369
474 2002 1405 3813 15421 -2338
471 1983 1390 3148 15682 -2227
475 1988 1394 2436 15950 -2083
482 2019 1405 1615 16071 -1910
492 2048 1409 882 16132 -1799
503 2067 1401 446 16144 -1760
507 2059 1372 11 16197 -1632
499 2017 1333 -776 16467 -1273
490 1976 1304 -1526 16806 -868
487 1963 1297 -1813 16764 -736
485 1961 1304 -1679 16315 -1042
478 1957 1311 -1148 15951 -1625
468 1932 1308 -626 15710 -2058
459 1894 1287 -644 15549 -2203
455 1847 1262 -902 15656 -2188
445 1792 1234 -1203 15793 -2066
442 1760 1223 -1728 15722 -1837
447 1786 1237 -2384 15682 -1585
457 1826 1252 -2942 15726 -1364
467 1870 1251 -3407 15755 -1220
471 1896 1255 -3724 15945 -1149
473 1900 1247 -4002 16035 -1132
468 1879 1226 -4312 15287 -1010
464 1854 1205 -5469 15950 -931
457 1820 1176 -5511 15805 -855
449 1783 1150 -5362 15721 -918
446 1777 1145 -5287 15698 -992
448 1800 1164 -5122 15708 -1064
455 1847 1198 -4770 15793 -1259
466 1906 1240 -4381 15886 -1547
480 1978 1295 -4114 15918 -1781
502 2090 1371 -4003 15848 -1917
535 2251 1480 -4058 15694 -1964
571 2409 1584 -4175 15588 -1915
612 2584 1697 -4408 15377 -1711
650 2727 1787 -4277 15412 -1597
672 2827 1855 -3941 15683 -1521
688 2930 1934 -3910 15794 -1282
707 3044 2022 -3746 15893 -1203
728 3171 2127 -3477 15961 -1247
746 3278 2230 -3252 16023 -1245
759 3377 2342 -3034 16058 -1266
769 3492 2476 -2553 16085 -1426
784 3657 2688 -2414 16110 -1493
823 3910 2986 -2451 16125 -1445
884 4269 3388 -2535 16101 -1404
958 4706 3893 -2455 16046 -1441
1047 5218 4470 -2338 16009 -1498
1142 5774 5113 -2251 15968 -1527
1245 6378 5830 -2265 15951 -1474
1352 7019 6579 -2352 15994 -1363
1462 7677 7353 -2416 16070 -1258
1571 8324 8120 -2451 16106 -1197
1674 8937 8842 -2425 16078 -1195
1753 9390 9388 -2345 16061 -1215
1784 9581 9622 -2326 16068 -1181
1750 9466 9507 -2397 16078 -1095
1652 8974 8949 -2466 16054 -1031
1532 8284 8139 -2569 16012 -1004
1424 7584 7273 -2725 15984 -973
1336 6992 6523 -2871 15972 -959
1259 6522 5944 -2934 15978 -985
1203 6177 5517 -2948 15968 -1038
1154 5892 5169 -2962 15924 -1119
1115 5637 4861 -2949 15876 -1219
1084 5446 4634 -2803 15895 -1302
1067 5338 4505 -2587 15957 -1358
1061 5294 4447 -2373 16001 -1438
1058 5277 4418 -2149 16038 -1545
1058 5267 4407 -1994 16057 -1649
1056 5266 4412 -1929 16049 -1708
1055 5267 4427 -1918 16025 -1687
1056 5266 4442 -1956 16009 -1592
1055 5263 4448 -1977 16023 -1467
1054 5262 4452 -1991 16074 -1341
1056 5284 4489 -2067 16113 -1246
1065 5337 4568 -2139 16100 -1237
1076 5399 4649 -2164 16048 -1314
1083 5446 4704 -2121 15999 -1447
1090 5472 4734 -2060 15982 -1556
1091 5476 4744 -2031 15982 -1579
1091 5470 4741 -2029 16006 -1542
1089 5451 4729 -2112 16066 -1372
1085 5415 4698 -2105 16044 -1353
1076 5370 4662 -2099 16047 -1346
1072 5347 4654 -2085 16043 -1347
1073 5353 4687 -2039 16035 -1369
1076 5374 4745 -1998 16059 -1400
1080 5403 4805 -1957 16090 -1426
1089 5444 4880 -1957 16081 -1446
1109 5542 5019 -2018 16052 -1466
1126 5683 5266 -2129 16488 -1439
1167 5952 5673 -1913 16535 -1645
1210 6228 6089 -1601 16343 -2060
1259 6518 6501 -1394 15996 -2515
1311 6829 6920 -1253 15694 -2885
1379 7216 7442 -1144 15584 -3103
1457 7648 8025 -1070 15653 -3185
1550 8131 8661 -1064 15803 -3142
1628 8519 9157 -1163 15921 -3036
1678 8771 9450 -1337 15946 -2859
1707 8940 9654 -1498 15892 -2663
1740 9112 9854 -1529 15905 -2589
1767 9261 10029 -1444 15960 -2585
1788 9377 10163 -1367 15991 -2560
1805 9469 10264 -1380 16010 -2503
1813 9516 10316 -1445 16036 -2456
1801 9467 10257 -1460 16058 -2442
1778 9368 10130 -1396 16062 -2477
1744 9212 9940 -1299 16063 -2523
1678 8853 9504 -1197 16075 -2553
1615 8468 9023 -1220 16072 -2523
1560 8155 8639 -1376 16063 -2438
1514 7888 8311 -1498 16064 -2357
1478 7673 8037 -1553 16063 -2300
1454 7522 7835 -1569 16058 -2283
1431 7384 7656 -1572 16043 -2303
1410 7265 7505 -1567 16033 -2317
1394 7166 7385 -1549 16035 -2302
1385 7096 7300 -1520 16045 -2283
1373 7028 7220 -1489 16058 -2282
1360 6945 7130 -1432 16011 -2238
1347 6869 7051 -1473 16024 -2169
1339 6806 6973 -1518 16042 -2123
1360 6909 7060 -1580 16033 -2095
1395 7051 7156 -1441 15984 -2224
1433 7179 7194 -1788 16148 -2193
1496 7441 7331 -1919 16144 -1973
1538 7620 7408 -1246 16067 -2218
1558 7668 7349 -1110 16109 -2367
1553 7604 7227 -1203 16052 -2184
1523 7456 7052 -1041 16099 -2176
1473 7218 6815 -870 16105 -2187
1396 6873 6475 -691 16080 -2179
1317 6479 6070 -635 16067 -2099
1228 6020 5587 -619 16118 -2005
1125 5468 5016 -495 16176 -1915
1026 4938 4467 -290 16213 -1883
938 4475 3969 -17 16240 -1993
868 4098 3564 349 16203 -2207
812 3798 3249 1498 15870 -2994
765 3548 2995 1751 15699 -3335
716 3293 2747 1802 15587 -3488
664 3021 2493 1720 15613 -3431
610 2752 2245 1475 15749 -3207
570 2525 2030 1144 15819 -2957
543 2371 1857 703 15847 -2691
528 2275 1722 430 15939 -2407
520 2205 1609 450 16032 -2181
511 2141 1506 413 16050 -1836
508 2080 1411 280 16099 -1692
507 2037 1333 135 16101 -1593
501 1991 1264 85 16102 -1498
495 1953 1206 90 16135 -1448
487 1909 1149 58 16135 -1471
476 1853 1093 41 16120 -1508
460 1782 1040 49 16137 -1489
437 1717 999 65 16159 -1446
425 1664 969 45 16214 -1389
420 1631 945 -29 16190 -1362
414 1608 931 -44 15936 -1417
415 1609 926 -303 15846 -1375
415 1606 915 -627 16049 -1113
411 1579 901 -704 16166 -853
405 1542 885 -832 16239 -652
399 1515 874 -1306 17959 -165
398 1512 871 -1527 17143 -233
417 1631 896 -492 14891 -498
401 1547 869 547 15540 -222
398 1521 857 772 15921 -104
398 1538 860 711 15980 -71
401 1546 864 557 16181 1
400 1542 874 534 16292 166
384 1475 873 840 16359 316
370 1403 874 962 16417 460
374 1397 908 649 16521 640
371 1354 929 411 16440 859
356 1271 921 170 16216 1066
344 1194 894 547 15540 -222
338 1134 857 772 15921 -104
331 1070 812 711 15980 -71
331 1013 772 557 16181 1
332 967 746 534 16292 166
321 922 720 840 16359 316
312 876 692 962 16417 460
303 834 664 649 16521 640
291 797 636 411 16440 859
278 770 615 170 16216 1066
262 752 599 -417 16289 1630
258 738 583 -623 16460 1728
259 729 573 -930 16556 1641
257 725 568 -1339 16422 1298
255 722 566 -1490 16193 766
260 726 568 -1424 16010 253
265 729 573 -1129 15942 -201
267 737 578 -606 16013 -669
267 741 587 -1 16124 -1199
268 746 588 594 16169 -1719
272 755 593 950 16120 -2130
270 762 596 1028 15978 -2352
274 770 599 1028 15881 -2425
275 780 601 1022 15897 -2435
277 789 603 1090 15940 -2420
279 795 609 1037 15957 -2298
279 803 613 822 16042 -2096
280 807 616 889 16166 -2003
279 805 611 1016 16246 -1941
278 798 606 931 16226 -1874
277 787 597 813 16115 -1922
272 772 586 629 15974 -1949
270 757 575 540 15946 -1977
268 741 564 503 15974 -1993
266 728 554 472 15969 -1964
263 716 546 419 15910 -1915
261 708 541 413 15972 -1882
261 700 533 392 16090 -1845
259 695 530 389 16133 -1803
259 693 529 625 16217 -1842
259 694 530 876 16225 -1915
259 695 531 1124 16227 -1954
260 698 531 1444 16283 -2000
261 704 534 1662 16293 -2082
263 710 538 1728 16214 -2170
263 716 541 1689 16138 -2199
263 719 544 1607 16202 -2166
263 719 544 1473 16318 -2118
263 719 542 1217 16288 -2086
263 716 542 909 16204 -2074
263 713 541 684 16212 -2089
262 709 537 487 16188 -2134
260 704 533 261 16078 -2193
260 694 527 -41 15955 -2240
257 684 518 -311 15927 -2318
255 674 513 -445 15922 -2450
254 666 510 -571 15827 -2582
253 656 504 -676 15770 -2718
251 647 501 -697 15785 -2858
248 641 497 -719 15725 -2915
247 634 493 -755 15657 -2935
247 630 492 -756 15671 -2942
247 629 493 -729 15748 -2881
246 629 493 -556 15869 -2836
247 628 492 -289 15952 -2820
248 626 490 -60 15991 -2796
245 625 490 163 16035 -2758
245 623 491 374 16059 -2714
245 619 490 508 16079 -2626
245 618 488 645 16223 -2451
245 611 484 501 16177 -2348
245 609 486 315 16128 -2262
243 604 483 126 16099 -2196
243 602 483 -48 16090 -2151
241 597 479 -103 16084 -2136
242 589 477 -89 16070 -2138
241 590 476 -71 16059 -2150
239 588 473 -46 16050 -2171
245 607 492 88 16057 -2212
254 619 517 217 16073 -2243
254 627 520 313 16070 -2256
255 628 521 360 16076 -2211
253 627 517 421 16125 -2150
252 623 510 435 16143 -2096
249 614 499 391 16115 -2056
240 599 478 354 16094 -2030
235 584 462 306 16083 -2003
236 581 463 130 16070 -1917
238 581 463 91 16085 -1895
238 582 463 114 16105 -1899
239 584 465 159 16108 -1924
237 587 467 198 16090 -1944
239 592 473 239 16071 -1967
242 596 479 299 16079 -1993
242 596 479 315 16087 -2010
240 592 477 286 16065 -2027
240 592 477 292 16034 -2048
240 590 477 342 16023 -2081
237 587 476 428 16053 -2112
233 583 476 509 16079 -2133
229 578 477 568 16068 -2145
228 575 477 649 16049 -2140
229 580 475 771 16060 -2117
230 582 476 877 16070 -2099
232 582 475 927 16062 -2104
234 583 474 933 16060 -2094
238 584 475 952 16078 -2055
238 584 475 1001 16127 -2017
239 585 476 1004 16154 -1982
241 584 474 921 16140 -1944
240 584 474 836 16125 -1900
238 582 475 755 16124 -1837
239 582 474 691 16125 -1769
239 583 474 635 16119 -1741
250 584 473 575 16115 -1734
251 582 474 526 16137 -1721
240 580 473 529 16158 -1734
236 579 473 627 16098 -1867
233 579 473 534 16037 -1898
230 582 472 481 16016 -1889
226 579 473 491 16045 -1846
237 577 472 474 16088 -1757
236 577 471 425 16110 -1668
235 574 472 342 16100 -1589
236 571 470 320 16111 -1539
238 573 471 358 16128 -1548
235 572 470 384 16132 -1574
236 572 470 358 16105 -1628
235 572 470 380 16090 -1687
233 572 470 427 16085 -1722
223 571 470 477 16080 -1756
216 570 470 488 16068 -1774
234 571 469 479 16070 -1761
235 569 468 469 16083 -1740
235 568 469 469 16087 -1710
234 569 469 496 16114 -1665
235 568 468 493 16149 -1588
247 568 469 474 16163 -1558
285 566 468 457 16151 -1575
301 567 469 436 16124 -1602
302 565 469 481 16108 -1665
299 566 468 541 16085 -1731
292 568 468 598 16062 -1762
274 568 468 680 16066 -1766
227 569 467 762 16081 -1757
202 568 465 785 16099 -1687
206 568 461 736 16130 -1589
219 566 468 628 16140 -1535
234 567 468 501 16117 -1526
233 567 468 427 16103 -1523
234 566 467 401 16110 -1506
236 567 468 408 16106 -1491
235 566 469 436 16098 -1504
235 566 469 473 16100 -1510
235 567 470 558 16104 -1530
237 567 467 661 16106 -1558
236 567 470 685 16101 -1539
237 569 468 665 16103 -1531
236 569 467 678 16101 -1547
237 571 459 700 16094 -1549
237 571 461 685 16100 -1495
237 570 462 673 16136 -1426
237 570 462 666 16169 -1374
236 571 462 606 16165 -1327
237 571 469 523 16149 -1288
237 571 470 477 16138 -1278
238 571 469 478 16153 -1278
236 571 469 498 16161 -1330
237 572 467 462 16131 -1414
238 571 469 395 16096 -1482
236 571 470 350 16073 -1551
237 572 469 323 16056 -1585
236 570 468 325 16048 -1587
237 569 467 333 16062 -1539
237 570 467 325 16098 -1439
238 570 466 342 16150 -1351
238 570 466 487 16197 -1284
237 572 462 503 16161 -1331
237 567 453 478 16130 -1381
236 564 443 432 16116 -1411
236 565 447 413 16117 -1434
237 568 455 379 16108 -1422
237 571 467 340 16106 -1414
238 574 474 309 16105 -1413
238 573 479 253 16097 -1376
236 572 484 171 16136 -1266
237 575 492 200 16146 -1272
237 573 492 218 16125 -1331
237 570 488 218 16100 -1391
237 573 488 211 16076 -1451
237 571 486 206 16063 -1485
237 570 483 196 16061 -1478
236 572 479 199 16075 -1434
237 571 474 211 16097 -1376
237 572 468 243 16122 -1319
237 571 467 285 16156 -1278
237 573 468 303 16166 -1279
237 575 471 316 16152 -1296
237 575 469 303 16130 -1304
238 574 465 254 16112 -1302
236 570 464 218 16111 -1321
239 573 464 206 16107 -1349
238 574 466 224 16100 -1392
236 575 469 257 16088 -1422
237 576 469 287 16088 -1411
237 576 470 273 16088 -1357
236 575 468 253 16082 -1340
237 573 468 218 16083 -1326
237 574 469 166 16092 -1297
237 574 468 120 16093 -1270
234 572 468 105 16107 -1232
237 572 468 97 16119 -1193
237 573 469 108 16136 -1159
236 574 469 132 16138 -1163
236 573 467 125 16126 -1172
236 575 469 145 16135 -1193
236 577 468 227 16130 -1253
237 577 470 314 16121 -1308
237 577 469 317 16115 -1297
237 579 470 263 16116 -1250
238 583 472 202 16113 -1202
238 593 474 169 16112 -1176
237 597 474 150 16103 -1156
235 597 473 135 16090 -1130
237 599 474 129 16093 -1111
237 600 476 140 16179 -1132
237 601 474 83 16130 -1149
239 598 473 48 16100 -1183
237 593 473 20 16075 -1191
237 586 469 -18 16060 -1165
237 579 468 -28 16064 -1146
237 576 468 -10 16077 -1142
237 578 468 20 16088 -1113
239 581 471 46 16099 -1057
240 584 471 98 16138 -990
240 586 470 123 16152 -980
238 587 470 153 16162 -976
237 586 470 165 16156 -996
238 587 470 128 16135 -1016
237 586 471 57 16107 -1013
238 587 469 -1 16090 -1023
237 587 471 -8 16079 -1068
236 587 469 -8 16073 -1096
236 586 470 -82 16084 -1057
237 588 470 -50 16088 -1048
238 587 471 12 16089 -1037
237 588 470 33 16085 -1006
236 589 471 30 16090 -970
235 588 471 14 16101 -954
234 586 472 -5 16101 -944
233 586 472 15 16105 -955
233 586 472 56 16102 -1000
233 586 472 46 16077 -1045
237 587 470 39 16079 -1070
236 587 471 90 16100 -1064
237 589 471 164 16110 -1046
239 591 471 207 16112 -1011
245 594 472 205 16123 -949
252 596 472 174 16130 -888
254 597 472 128 16118 -851
254 595 472 115 16117 -828
254 597 473 134 16130 -822
252 597 472 172 16145 -857
250 595 471 178 16141 -933
245 594 472 140 16107 -1010
236 591 471 123 16073 -1068
234 592 471 156 16068 -1093
237 595 472 185 16067 -1076
236 595 471 178 16072 -1017
236 595 472 150 16078 -947
237 596 473 124 16083 -898
238 594 471 135 16091 -857
239 596 474 176 16115 -827
239 596 472 221 16175 -796
239 598 473 237 16192 -766
239 599 473 227 16155 -752
239 600 473 212 16131 -755
239 600 473 217 16130 -763
239 603 473 225 16135 -767
240 603 474 217 16123 -765
239 605 474 182 16106 -767
238 606 474 126 16088 -767
237 605 474 89 16108 -769
238 606 474 64 16154 -782
237 606 473 59 16145 -773
238 605 473 41 16108 -732
240 605 474 11 16100 -674
240 605 474 19 16111 -630
244 605 474 46 16131 -595
247 604 473 82 16145 -590
245 605 474 102 16136 -598
246 605 473 105 16138 -578
246 606 474 121 16167 -564
243 608 473 156 16220 -559
242 612 474 178 16244 -525
240 615 475 157 16202 -482
240 619 475 106 16169 -481
240 621 478 62 16160 -494
242 623 477 -6 16132 -489
243 626 477 -77 16095 -491
244 630 477 -164 16021 -497
242 630 479 -260 16060 -457
244 635 479 -383 16132 -387
244 638 481 -471 16107 -343
247 640 480 -457 16079 -303
246 643 484 -421 16056 -243
246 646 485 -394 16060 -205
249 650 484 -411 16063 -175
247 653 485 -466 16087 -122
248 655 486 -527 16108 -78
250 660 485 -591 16104 -52
250 661 487 -646 16101 -31
250 664 486 -656 16107 -13
251 667 492 -704 16177 28
251 671 492 -735 16258 76
252 674 493 -790 16271 119
253 679 494 -879 16274 178
253 684 496 -960 16269 244
256 690 501 -915 16213 211
257 696 504 -805 16200 133
259 706 508 -701 16158 43
263 719 514 -585 16152 -21
266 731 520 -289 16157 -73
270 749 527 -90 16174 -77
274 762 532 10 16155 -66
277 773 531 -22 16084 -11
279 779 530 5 16054 10
281 784 532 91 16097 26
283 793 541 133 16188 89
285 808 559 204 16492 183
289 825 581 287 16723 329
294 843 601 126 16257 -6
295 852 616 54 16149 -158
295 853 636 -15 16115 -284
294 853 655 -216 16045 -244
295 854 661 -447 16026 -175
296 854 666 -634 16060 -182
294 854 672 -750 16138 -267
295 854 676 -869 16153 -375
295 854 675 -1126 16097 -420
295 851 673 -1363 16033 -433
294 849 671 -1476 15997 -451
295 850 676 -1594 16002 -391
296 858 686 -1714 15875 -454
297 865 694 -1776 15878 -390
300 869 697 -1832 16036 -158
299 869 698 -1924 16101 -41
299 864 697 -2092 16186 124
296 857 692 -2170 16185 179
295 849 685 -2053 16090 39
292 843 677 -1920 15978 -167
292 839 676 -1757 15909 -453
292 837 676 -1640 15913 -724
293 837 677 -1633 15940 -848
292 838 676 -1650 15952 -900
291 839 675 -1643 15984 -979
292 838 672 -1613 16007 -1043
291 837 671 -1597 16017 -1043
291 838 671 -1581 16032 -973
291 840 672 -1577 16039 -837
288 829 656 -1596 16054 -669
287 825 657 -1579 16148 -394
288 825 655 -1559 16165 -341
288 826 657 -1515 16146 -375
289 826 658 -1459 16118 -435
292 827 659 -1366 16095 -518
289 823 651 -1259 16085 -606
288 820 648 -1161 16093 -643
286 815 647 -1055 16099 -653
286 816 649 -1001 16099 -633
287 818 652 -993 16193 -516
287 818 649 -982 16198 -452
285 816 649 -974 16167 -407
285 815 649 -1017 16146 -377
286 814 648 -1042 16136 -366
286 812 647 -1045 16118 -379
284 808 644 -1057 16103 -375
283 807 643 -1052 16112 -365
280 804 640 -1042 16135 -363
278 800 638 -1036 16152 -384
277 798 637 -1043 16135 -433
279 802 635 -1095 16097 -471
278 803 637 -1144 16078 -490
281 807 637 -1181 16067 -511
284 811 638 -1217 16061 -518
289 815 638 -1204 16072 -501
294 819 638 -1124 16083 -497
295 818 636 -1028 16091 -501
294 816 636 -929 16101 -498
292 813 632 -847 16119 -480
291 810 630 -794 16149 -459
288 804 629 -792 16156 -424
286 801 629 -860 16153 -356
279 797 631 -962 16149 -296
276 794 632 -1041 16137 -274
270 772 612 -1053 16127 -271
271 771 609 -1054 16122 -269
276 782 624 -1034 16128 -273
274 784 628 -975 16122 -316
273 786 633 -913 16117 -394
275 785 634 -885 16141 -434
278 782 637 -905 16189 -422
276 780 640 -939 16208 -407
275 766 630 -906 16129 -457
271 742 607 -909 15959 301
265 712 579 -676 15956 -875
259 672 547 -573 16155 -2223
252 636 521 -808 16433 -1028
247 609 504 -680 16739 -1175
245 595 496 -666 17013 -1228
242 588 494 -845 18851 -499
242 585 493 -826 19310 -160
244 586 494 -1010 18648 -51
245 594 499 -1148 18177 -191
249 606 509 -1163 17713 -667
252 622 515 -938 16402 -2062
256 642 520 -520 14692 -4038
261 661 518 -70 13243 -5915
263 681 513 86 11927 -7627
267 708 511 -308 8862 -10234
271 740 504 -535 7872 -10982
275 758 497 -393 7595 -11176
269 751 491 74 7007 -11001
262 735 489 607 7284 -10255
254 735 491 1115 9032 -8648
244 748 492 1567 11118 -6485
249 767 496 1659 13359 -3985
251 783 498 1447 14624 -1622
250 785 500 1277 14844 404
251 780 500 1349 14832 2267
246 766 495 1693 15210 4154
249 742 492 2081 16375 6096
251 723 490 2309 17837 7878
255 736 489 2269 18788 9484
263 766 499 1844 18999 10846
268 780 517 1145 18709 11828
269 766 529 480 18478 12538
267 738 536 -20 18881 13240
266 714 536 -644 20634 14432
262 690 530 -768 20203 14428
260 668 521 -538 18854 13336
259 654 519 -154 17011 10976
257 649 519 -17 14786 8017
256 652 525 -248 13050 5042
258 659 533 -665 12128 2565
262 675 539 -976 11598 403
266 692 542 -981 11373 -1711
269 708 545 -508 11103 -3816
272 723 547 246 10456 -5975
275 741 547 918 9793 -7843
281 766 546 1228 9651 -9013
284 789 547 1188 10221 -9214
293 816 547 881 11172 -8552
300 836 549 362 12401 -7284
303 843 547 -107 13833 -5748
302 838 543 -393 14873 -4170
297 820 537 -534 15408 -2711
290 800 531 -623 16009 -1320
287 787 527 -670 16662 -39
286 783 530 -696 16846 1106
285 783 534 -700 16764 2288
287 784 540 -646 16941 3467
288 781 543 -606 17274 4539
289 781 549 -603 17540 5357
290 781 554 -596 17475 5794
292 778 552 -455 17015 5736
292 771 550 -266 16533 5270
291 764 547 -212 16226 4725
289 758 540 -143 15974 4015
289 751 533 0 16115 3693
284 747 539 139 16235 3254
287 746 543 204 16120 2861
284 740 550 219 15858 2687
282 738 558 420 15811 2615
287 747 569 930 15985 2489
288 750 577 1471 16134 2271
287 744 578 1932 16238 2035
286 742 578 2253 16058 1778
286 738 575 2322 15501 1581
283 729 569 2398 14663 1607
282 721 563 2145 13851 1681
280 712 553 1441 13533 1662
276 698 542 799 13465 1638
274 691 534 404 13353 1514
276 688 530 496 13453 1078
276 686 530 1038 13866 497
277 683 532 1560 14420 72
273 669 523 2050 15351 -296
269 655 516 2336 15624 -531
265 641 511 2678 15889 -973
261 628 506 3009 16054 -1566
261 620 504 3134 16022 -2368
259 611 501 2900 15738 -3120
257 602 495 2491 15376 -3716
255 595 492 2161 15246 -4199
253 584 487 1900 15142 -4675
252 576 486 1794 14541 -5352
253 575 487 2081 13648 -6236
254 574 488 2835 13274 -7060
251 573 486 3756 13756 -7605
253 574 484 4378 14704 -7830
253 576 483 4543 15579 -7784
254 580 483 4488 16063 -7553
257 586 485 4400 16175 -7296
259 592 487 4321 16279 -7040
262 598 487 4287 16563 -6801
264 604 486 4342 16819 -6738
268 615 489 4488 16819 -6872
276 637 492 4563 16565 -7060
287 670 500 4457 16199 -7177
297 698 506 4288 15798 -7277
313 733 515 4133 15551 -7377
323 764 524 3995 15563 -7384
334 794 532 3867 15665 -7326
344 829 539 3727 15634 -7365
352 855 541 3726 15275 -7609
371 912 556 3862 14912 -7950
409 1025 587 3853 14753 -8260
448 1140 618 3611 14643 -8361
466 1195 624 3314 14557 -8227
480 1241 629 3239 14568 -8085
496 1294 629 3364 14471 -8171
498 1302 617 3518 14112 -8582
478 1247 598 3592 13837 -8820
470 1225 586 3647 13760 -8597
464 1209 577 3818 13689 -8338
463 1203 573 4089 13708 -8231
457 1191 567 4456 13648 -8105
438 1142 552 4709 13568 -7706
409 1072 531 4949 13172 -7779
388 1014 516 5166 12798 -8219
367 955 500 5646 12747 -8279
350 907 490 5972 12556 -8391
340 878 485 6146 12424 -8490
329 841 480 6269 12367 -8538
315 790 476 6407 12594 -8396
301 748 470 6256 12779 -7992
291 709 467 6259 12463 -8169
279 672 464 6605 12184 -8615
271 645 463 6983 11874 -9162
264 616 459 7123 11732 -9433
253 580 458 6947 11960 -9243
245 551 458 6659 12168 -9010
239 528 457 6530 12262 -8980
232 509 456 6651 12351 -9114
229 492 456 6817 12447 -9476
224 480 454 6685 12108 -9866
221 473 454 6494 12021 -10143
222 471 456 6173 11975 -10245
223 471 455 5755 11700 -10500
224 471 456 5399 11244 -10841
226 472 456 5179 10578 -11327
228 475 456 5028 9814 -11907
229 472 455 4859 9375 -12338
228 473 455 4652 9302 -12549
228 476 457 4397 9263 -12696
229 479 457 4216 9298 -12792
229 479 456 4170 9282 -12876
229 479 456 4164 9091 -13050
227 477 455 4184 9128 -13160
224 480 456 4131 9392 -13106
226 479 456 3985 9531 -13021
229 479 456 3835 9670 -12960
227 481 456 3651 9983 -12829
228 482 457 3478 10139 -12728
228 484 454 3315 10139 -12734
228 484 457 3067 10537 -12588
229 487 457 2701 11183 -12213
231 487 458 2355 11517 -11976
230 489 458 2151 11626 -11919
231 490 459 1873 11821 -11797
231 494 458 1555 11994 -11655
233 498 456 1405 11942 -11665
235 503 457 1358 11742 -11823
237 505 460 1396 11381 -12069
238 509 460 1264 10270 -12700
239 510 460 1053 9808 -12829
240 512 460 839 9611 -12900
240 513 460 673 9620 -12977
239 513 464 584 9478 -13134
242 516 463 517 9559 -13136
244 520 463 388 10056 -12905
245 525 463 232 10513 -12789
246 531 463 191 10633 -12918
249 539 464 112 11013 -12912
252 547 466 7 11066 -12764
253 551 467 -29 10922 -12722
255 553 467 -55 10602 -12764
258 559 467 -75 10217 -12890
258 563 469 -35 9580 -13262
263 571 468 56 8796 -13754
263 574 471 11 8006 -14124
262 574 470 -122 7143 -14384
260 568 470 -10 6682 -14430
258 561 468 -34 6809 -14224
255 556 467 -140 6773 -14149
254 553 467 -91 6897 -14256
254 551 468 61 7422 -14230
255 550 468 199 8356 -13827
254 549 469 134 9212 -13253
253 551 474 -66 9662 -12853
255 549 473 -109 10162 -12581
256 555 472 -5 10862 -12299
258 565 473 103 11371 -12057
262 574 475 252 11614 -11955
264 582 476 575 11861 -11899
266 589 475 872 12090 -11741
266 592 475 948 12245 -11463
272 604 475 944 12426 -11093
278 625 481 957 12680 -10718
285 649 486 1059 12926 -10438
291 661 489 1319 13168 -10238
297 671 494 1718 13693 -9987
310 702 506 1986 14351 -9637
324 743 524 1790 14771 -9169
348 804 552 1211 14775 -8902
379 872 589 888 14737 -8544
411 941 632 857 14818 -8278
443 1006 682 685 14752 -8231
468 1057 725 461 14843 -7745
486 1095 767 228 15061 -7103
513 1138 821 -27 15046 -6603
543 1178 880 -228 14831 -6323
555 1185 911 -110 15396 -5635
563 1183 935 -74 15716 -5030
599 1245 1005 -234 15782 -4567
662 1354 1133 -324 15700 -4450
748 1494 1324 -362 15708 -4380
852 1665 1561 -538 15636 -4185
963 1850 1831 -610 15501 -4240
983 1843 1929 -496 15508 -4335
998 1851 2020 -321 15616 -4001
1008 1875 2110 -155 15682 -3964
962 1825 2073 -91 15631 -4185
867 1714 1921 -66 15714 -4207
799 1686 1839 -66 15818 -4313
766 1709 1811 12 15830 -4305
763 1773 1820 -259 15733 -4573
770 1846 1835 -820 15590 -4963
779 1911 1838 -1084 15522 -5062
804 2028 1869 -1344 15444 -5207
878 2259 2056 -1541 15261 -5414
884 2317 2014 -1833 15105 -5559
873 2338 1930 -1847 15475 -5147
848 2300 1811 -1705 15696 -4658
661 1840 1299 -1891 15662 -4353
506 1445 943 -2108 15758 -4715
650 1889 1497 -1992 15893 -5640
2239 5941 7116 -1889 15954 -5943
4967 15515 20750 -1953 15942 -5681
6511 23382 30678 -2032 15811 -5436
6709 27140 34847 -2289 15524 -5067
5485 24357 30103 -2681 14939 -5247
3487 15897 18967 -2651 14561 -5915
2365 10578 12371 -2306 14822 -6063
2020 8915 10403 -2023 15243 -5918
2673 11878 14387 -1788 15668 -5836
7028 30427 38796 -1551 16159 -6113
32621 125903 164792 -1541 15632 -6229
51837 278525 377952 -1625 14807 -5338
55738 304620 411784 -1676 14588 -2729
58798 312092 416078 -2048 14655 -1780
60854 313182 416570 -2096 15107 -4068
69610 299080 405680 -1497 15725 -6614
39631 138854 229376 -1178 16329 -8792
7192 28238 37840 -1703 16249 -9185
2738 11475 13923 -2607 15034 -8296
1700 7145 8504 -2811 14089 -7667
1202 4960 5727 -2218 14417 -7248
925 3735 4194 -1726 14913 -7102
753 2953 3217 -1568 15168 -7015
663 2552 2727 -1602 15047 -6840
668 2591 2794 -1595 14889 -6693
760 3014 3334 -1345 15009 -7001
992 4104 4740 -1309 14912 -7391
2286 10073 12802 -1487 14652 -7449
18288 71866 93232 -1498 14747 -7536
54861 263196 328902 -1605 14359 -6931
55000 303050 409127 -1799 13443 -5404
57556 309243 412390 -1725 13505 -4307
62123 304421 412421 -1373 14357 -6262
57799 222298 325343 -1125 15091 -10248
7500 32771 78772 -1829 13553 -9891
1858 7697 9159 -2274 13569 -8206
1137 4712 5537 -2040 13656 -8793
1144 4784 5695 -1592 14224 -9912
1338 5693 6916 -1646 14233 -9538
1995 8716 10961 -1813 13977 -8655
4535 20062 26543 -1646 13873 -8019
23434 92792 130449 -1519 13732 -7437
59027 251043 351039 -1397 13454 -6772
46600 266379 387346 -905 14267 -8741
47591 262917 384527 -1037 14213 -10956
56760 207363 305493 -1490 13489 -10024
14954 59571 81253 -1726 13339 -8515
3418 14522 17727 -1701 13739 -8827
1615 7036 8655 -1338 14351 -10727
1674 7406 9306 -1324 14136 -10991
2073 9297 11907 -1736 13730 -9704
4300 19551 25929 -1808 13701 -9241
14487 61687 85275 -2124 12677 -6856
49672 192065 279818 -2162 12703 -5598
45347 269346 388808 -1919 13111 -6211
47627 286385 400896 -1505 13747 -8682
49732 292455 404732 -1437 13987 -10475
50684 291108 403694 -1765 13819 -10936
50657 285263 399858 -2117 13584 -10703
50416 278423 396841 -2458 13627 -10275
55257 269534 392556 -2980 13725 -9602
67560 250940 362230 -3415 13593 -9135
45486 167132 236732 -3809 13371 -8957
20989 84616 120160 -3916 13116 -9007
9541 41083 57298 -3260 13065 -9696
5486 23479 32340 -2098 13038 -10146
3003 10848 14846 -1010 12226 -9425
860 2306 3065 -92 12563 -8729
272 623 647 383 13849 -8241
227 502 490 796 14048 -8079
223 491 478 1338 14039 -8907
222 489 473 1353 14140 -9760
222 488 471 1031 14198 -10425
222 487 471 694 14190 -11095
223 487 472 596 14293 -11654
223 488 472 807 14372 -11663
222 489 471 -2341 13316 -13857
223 512 476 -1593 12732 -14176
225 549 480 3136 14218 -10113
227 573 484 1895 15187 -7089
228 599 490 -59 15216 -4069
235 641 504 -71 15100 856
234 647 504 1031 14198 -10425
229 614 490 694 14190 -11095
228 595 484 596 14293 -11654
230 602 485 807 14372 -11663
231 627 489 -2341 13316 -13857
234 649 494 -1593 12732 -14176
232 638 490 3136 14218 -10113
230 616 485 1895 15187 -7089
231 637 486 -59 15216 -4069
246 764 493 -71 15100 856
349 1276 509 -1143 15318 3433
706 2760 685 -1399 15954 -471
1562 6002 2164 -1064 16242 -2998
3363 12186 7430 -1238 16107 -1911
5617 19320 15185 -2054 15660 1334
8192 27466 25266 -2478 15533 3458
9478 31771 31394 -2319 15714 3106
12207 40199 42915 -1531 15711 2418
14034 45534 50379 -1203 15285 3739
14393 46518 52053 -1567 14852 5798
14510 47051 53512 -1594 14799 5434
14065 45995 52890 -1303 14935 3023
15933 51612 61370 -769 15146 2057
21549 67961 84654 -950 14590 3631
31281 96454 126334 -722 13776 5507
41860 127838 173961 -671 13987 4675
48055 148722 206701 -1487 14295 2612
50358 161432 226658 -941 14319 1892
50474 168250 236035 -560 14724 1577
51316 173457 242833 -899 16052 1072
51894 175191 244726 -288 16325 170
51806 175136 244302 -391 16530 -439
51358 173868 242630 -83 16851 341
51327 173679 242702 714 17098 1233
51532 174228 244008 1164 16979 980
51968 175361 246245 1237 16904 424
52503 176648 248840 1466 17523 457
52565 176748 250030 1734 18113 854
49440 168638 241593 1840 17889 256
46472 160968 231813 1419 17218 -814
45742 158082 226430 811 16948 -1123
46111 157856 223261 484 17150 -1428
46803 158167 220359 265 16944 -1877
51292 174262 242403 104 16549 -2143
56610 194574 259514 77 16470 -2489
59014 199911 258473 -13 16447 -2568
58870 181179 238254 -215 16113 -2554
43979 123235 157988 -724 16423 -2015
7636 32634 34078 -1375 17083 -894
3605 15866 13023 -1405 17156 -737
2656 10657 7717 -1607 17031 -1335
2039 7678 4982 -1807 17209 -1274
1052 3656 1889 -2966 16860 -1330
231 539 506 -4779 15450 -2645
1437 4664 7546 -5836 14226 -3844
3669 11921 16315 -6854 13524 -3773
2309 6666 9357 -7373 13013 -4039
2413 6951 9806 -7375 12074 -5117
2572 7373 10435 -7224 11283 -5710
2697 7628 10938 -7049 11259 -5629
2856 7979 11469 -6907 11882 -5026
2981 8233 11730 -10411 9576 -2567
2982 8312 11559 -12161 5576 453
2733 7740 10469 -3237 9621 7468
2431 6772 8992 4774 14532 11056
2252 5863 7740 4005 13961 6473
2050 4822 5992 2260 13793 4017
1946 4641 4567 2281 14000 3572
2315 5598 5210 2791 14038 3993
3685 8992 9048 4264 14065 5686
5064 12263 13235 4790 14021 5305
8826 20938 25365 5560 14259 4908
13653 32004 41302 6336 14537 4950
16215 38557 49648 6570 14502 5054
17965 44208 57283 6789 14504 4464
20456 50707 66554 7283 14773 3821
21528 53182 70082 7455 14444 3848
21049 51737 67818 7544 14390 3469
18168 44646 56552 7781 14468 2479
9908 23357 26462 7967 14213 1970
3353 7814 7504 7952 14269 1870
1352 2900 2746 7596 14709 1232
601 1197 1184 7483 15003 438
339 712 643 7610 14895 162
295 639 579 7596 15289 -132
258 603 570 7250 15553 -418
234 589 572 6527 15641 -180
214 579 574 5926 16324 -92
217 588 585 9082 17170 -980
225 617 610 8697 16984 -2970
236 660 653 6012 15955 -3725
245 682 674 4397 15808 -3932
256 696 684 3341 15947 -5690
271 714 698 3772 15720 -6632
286 722 703 5013 15884 -6089
293 722 705 4795 15904 -5690
303 744 731 4705 15590 -5147
320 778 772 4310 15146 -3857
312 760 751 3094 14748 -2970
304 736 728 2331 14623 -3728
297 723 714 1961 14664 -4763
288 700 690 1684 14781 -4694
285 691 682 1770 14953 -4394
284 691 682 1609 14922 -4272
281 679 670 1779 15011 -2938
278 670 662 2669 15406 -858
277 669 661 3546 15746 -805
276 666 655 3709 15835 -2090
278 667 661 3455 15826 -3046
281 674 670 2922 15649 -4569
283 678 676 2385 15618 -6010
284 675 673 2264 15866 -5974
283 668 668 2302 16080 -5386
281 655 671 2043 16003 -5029
283 645 755 1133 15609 -4633
280 653 744 425 15386 -4542
321 831 823 259 15366 -4431
502 1002 2291 162 15395 -3846
1855 6416 9622 372 15544 -3294
1008 3880 5787 377 15393 -3437
1079 4599 6249 324 15143 -4219
1185 5014 6517 201 14983 -5359
1199 5046 5336 904 14924 -8620
1079 4384 4056 3987 15351 -5990
1110 4174 4272 3854 13704 7654
1314 4783 5117 8309 12266 5585
1583 5821 5908 10915 13664 -5961
1842 6993 6399 -332 15285 -1686
2304 9369 7268 -2441 14980 -1102
3969 16944 13092 -3829 14535 -1807
7288 30751 28251 -4734 14517 -2876
11779 48866 51695 -5592 14744 -2880
16979 70193 81299 -6268 14970 -2441
20564 84642 101465 -6479 15116 -2312
22108 91180 111757 -6504 15042 -2752
31516 135108 177194 -6699 14734 -3151
46901 226862 297827 -7416 14455 -1652
53587 274861 358693 -7662 14708 386
55467 290579 380692 -7472 15299 1367
57265 301223 396230 -7929 16616 1972
62173 311947 409164 -8173 17369 1328
66297 318306 414754 -7574 17157 -82
68456 321317 417097 -8124 16898 -203
69669 323009 417961 -9519 15946 165
70122 323806 418245 -9708 15105 401
69736 324325 418330 -9075 14780 760
68490 323854 417588 -8981 14879 996
67200 322584 416470 -9062 15344 1042
66289 321531 415563 -8259 15671 680
66061 321039 414917 -7056 15828 501
66504 321082 414244 -5949 15996 380
67146 321505 413899 -4835 15990 310
67953 322221 413787 -4133 16157 627
68900 322878 413905 -3878 16308 1579
70030 323513 414214 -3383 16113 2515
71322 323909 414558 -2504 15876 2954
72577 323483 414633 -1509 15637 3229
73069 322143 413993 -730 15589 3267
72744 320083 412848 -46 15358 3390
71925 316236 410148 504 14894 3733
70592 310281 405461 705 14553 4212
68953 301329 397109 922 14141 4858
68577 291220 385186 1294 13890 5186
68043 280130 369262 1449 13965 5002
68952 269436 354729 1331 14121 4908
66916 254233 329945 1445 14181 5269
62227 235614 304532 1431 14109 5792
58951 227483 295275 750 14097 6287
57120 226795 296092 -632 14452 6428
56600 232381 304888 -1646 14750 6079
56468 237266 312660 -2012 14653 5956
56679 243259 322069 -2628 14444 6042
57043 250001 332666 -2936 14244 6250
58569 256952 345114 -2908 14222 6388
60717 262054 353071 -3156 14303 6432
62841 264941 357138 -3374 13999 7093
64446 266571 359979 -3204 13240 8468
65066 265891 360310 -2847 12529 9878
65089 264802 359543 -2548 12138 10792
64508 263164 357870 -1789 11753 11553
63989 262139 356565 -786 11134 12308
64109 262504 356168 -251 10681 12840
64924 263852 356822 126 10432 13190
66253 265760 358456 206 10276 13266
68044 268085 360554 -412 10309 12801
69655 269133 361129 -1162 10392 12229
70442 267942 359246 -1561 10369 12000
70767 266414 357181 -2087 10337 11520
71265 266299 356818 -3684 10681 10661
71649 266448 356822 -6043 11382 9436
71746 266183 356442 -8033 12179 8154
71442 265261 355426 -9227 12927 6809
70858 264813 355289 -9593 13461 5718
70484 266715 358176 -9233 13566 5103
70516 269406 361770 -9056 13390 4706
70981 272141 365129 -9493 13250 4349
71694 274646 367979 -9834 12951 3707
72187 276213 369613 -9645 12685 3643
72419 277047 370505 -9508 12317 3870
73198 279959 373547 -9572 12028 4133
74304 285058 378405 -9263 11665 4523
75242 286014 376641 -8676 11029 5175
74814 273692 360452 -8320 10506 5627
72817 256715 336413 -8055 10100 6053
72861 251056 330202 -7885 9583 6761
72053 245045 324570 -8056 9166 7267
72942 243333 322629 -8531 9184 7707
74167 231738 309470 -8119 9050 8491
72927 234307 312775 -7257 8751 8908
73162 232938 311198 -7042 8554 8883
73344 233883 312377 -7386 8388 9136
73672 234605 313332 -7711 8678 9387
70425 208404 283769 -7449 12130 14002
64825 162994 234274 -7600 13976 12869
51150 113304 171235 -8524 11979 8162
35866 76159 113758 -9112 10852 8653
25095 54927 80785 -9776 10381 7935
19498 43816 61351 -11311 11043 8025
14300 33668 44456 -12425 11509 8318
13399 32340 42156 -12246 11262 7912
12206 30042 38103 -11434 11469 7085
11469 28580 35457 -10515 12053 6027
9785 24886 28557 -10019 12893 4894
7740 19606 21051 -9896 13850 4389
5834 14973 15142 -8747 14202 4665
5268 13767 13863 -7196 14149 5121
5320 13897 14200 -4886 14243 5294
5410 14094 14623 -3873 13944 6017
5493 14273 14971 -3472 13737 6346
5655 14647 15602 -3745 14093 5293
5932 15300 16617 -3719 14290 4788
6137 15764 17337 -3758 14245 5224
6243 15949 17664 -3851 14078 5637
6392 16250 18260 -3912 14016 5645
6675 16892 19349 -4177 14065 5377
7099 17918 21028 -4961 14395 4600
7800 19712 23786 -5423 14415 4471
8548 21675 26675 -5861 14522 4198
9062 23044 28638 -5947 14423 4269
9462 24099 30169 -6060 14508 4186
9832 25065 31574 -6150 14707 3846
10190 25948 32796 -6081 14810 3670
10436 26544 33580 -6045 14730 3795
10630 27049 34213 -6019 14225 4412
10831 27598 34928 -6289 14190 4552
10918 27961 35344 -6573 14579 4228
10859 28045 35365 -6344 14419 4450
10816 28182 35508 -6053 13957 4848
10748 28167 35422 -6024 13598 5093
10655 28028 35108 -6146 13469 5188
10426 27451 34143 -6390 13278 5365
10208 26849 33191 -6636 12904 5678
10103 26529 32749 -6975 12617 5877
10062 26386 32591 -7389 12496 5929
9901 26000 32010 -7642 12423 5833
9691 25436 31203 -7967 12435 5595
9469 24807 30245 -8436 12456 5417
9168 24057 29045 -8936 12529 5110
8966 23608 28253 -9501 12509 4779
8648 22904 26934 -10022 12274 4545
8202 22097 25148 -10594 12146 4197
7711 21218 23412 -10804 12051 3908
7179 20178 21706 -10760 11705 3707
6696 19147 20205 -11268 11441 3629
6281 18132 18816 -11795 11253 3752
5890 17067 17449 -12300 9943 3501
5573 16111 16237 -12836 9380 3397
5470 15715 15884 -13095 8740 3365
5869 16539 17293 -13386 8279 3325
6482 17763 19480 -13779 8006 3266
7046 18699 21358 -14143 7818 3238
7497 19430 22712 -14369 7585 3259
8005 20304 24139 -14339 7379 3439
8651 21602 26101 -14293 7400 3875
9348 23099 28366 -13884 7823 5128
9994 24519 30492 -13513 7973 5682
10439 25487 31916 -13051 8038 6328
10842 26354 33252 -12690 8151 7009
11462 27731 35412 -12516 8303 7578
12419 29903 38659 -12353 8447 7853
13322 32013 41539 -12126 8620 7753
13928 33604 43597 -11958 8980 7134
14402 34960 45464 -11964 9610 6193
14988 36660 47704 -11720 10687 5309
15188 37358 48394 -11162 10790 5399
15426 38149 49281 -10569 10827 5550
15736 38952 50354 -10296 11248 5419
15893 39210 50799 -10085 11648 5275
15620 38321 49663 -9752 11683 5379
15274 37252 48324 -9599 11704 5533
14974 36360 47184 -9609 11737 5592
14844 35994 46710 -9452 11676 5565
14816 35909 46577 -9269 11486 5602
14767 35782 46391 -9310 11309 5634
14739 35737 46322 -9617 11359 5512
14688 35626 46200 -10039 11458 5362
14604 35429 45981 -10481 11583 5192
14486 35160 45666 -10654 11646 5062
14360 34837 45288 -10494 11609 5107
14251 34546 44939 -10276 11562 5201
14101 34148 44401 -10132 11612 5151
13952 33769 43884 -10015 11694 5076
13763 33324 43249 -9863 11651 5072
13637 33047 42861 -9776 11614 5062
13608 32977 42766 -9769 11653 4983
13507 32710 42368 -9729 11670 4899
13402 32416 41954 -9697 11657 4883
13321 32184 41633 -9833 11737 4835
13205 31875 41175 -9979 11807 4806
13133 31692 40901 -10027 11779 4862
13049 31482 40558 -10028 11712 4932
12917 31224 40077 -9975 11565 5036
12699 30768 39300 -9923 11462 5110
12471 30337 38557 -9953 11426 5109
12381 30273 38320 -10103 11418 5139
12303 30222 38023 -10132 11356 5164
12139 30031 37358 -9999 11211 5125
11623 29134 35078 -10011 11259 5009
9269 22417 25178 -10020 11337 4995
5507 13547 13743 -9956 11328 5115
4031 10358 9630 -9952 10556 6467
2944 7963 6814 -10491 10395 6362
1668 4864 3598 -10782 11400 3601
1123 3473 2303 -10477 11971 469
1231 3909 2711 -9088 12581 -1294
1452 4644 3469 -7757 13354 -4385
1464 4678 3511 -7836 13445 -6098
1321 4224 3027 -7058 13563 -5868
1239 3982 2794 -5398 14203 -5502
1316 4236 3059 -5030 14456 -5782
1363 4372 3192 -5133 14371 -6567
1276 4087 2908 -5000 14330 -6818
1205 3859 2702 -4891 14458 -6179
1208 3867 2728 -4883 14424 -6647
1238 3958 2827 -4838 14408 -7040
1227 3923 2796 -4850 14375 -6921
1191 3803 2687 -4914 14347 -6610
1206 3858 2747 -5007 14335 -6581
1242 3971 2856 -5092 14303 -6657
1225 3915 2798 -5120 14290 -6384
1008 3206 2140 -5052 14046 -7477
1015 3242 2178 -5474 14067 -7971
1039 3311 2245 -5818 14000 -8353
1024 3262 2200 -5862 13907 -8327
989 3147 2105 -5595 13880 -8088
992 3170 2134 -5387 13886 -8033
1023 3269 2230 -5238 13927 -8235
1006 3200 2169 -4959 13934 -8290
968 3081 2063 -4726 13946 -8076
993 3173 2153 -4709 13989 -8033
1030 3290 2258 -4811 13966 -8161
1022 3261 2224 -4929 13925 -7935
1018 3252 2211 -5093 13884 -7452
1044 3345 2297 -5331 13830 -7263
1058 3387 2333 -5561 13795 -7251
1098 3525 2437 -5466 13841 -7132
1177 3788 2655 -5145 13938 -7133
1319 4261 3054 -4897 13940 -7158
1436 4627 3322 -4744 13955 -7086
1418 4551 3205 -4840 14140 -6951
1380 4425 3063 -4937 14153 -6700
1318 4211 2868 -4696 13971 -6654
1240 3941 2656 -4131 13961 -7115
1113 3485 2359 -4098 13888 -7334
937 2834 2088 -4292 13786 -7443
790 2248 2062 -4104 13535 -7595
729 1922 2269 -3453 12989 -7793
683 1671 2422 -3369 11332 -7662
780 2136 2730 -3791 8870 -8729
1161 3399 4718 453 9783 -9335
2165 4567 10465 4618 12457 -6358
3166 5521 15362 7159 10503 -2560
4725 8333 22687 6562 12404 -3271
5931 11207 27175 8039 14025 -2609
4822 11143 21599 10001 12405 -2860
4954 13160 22540 8984 9521 -5219
8958 24165 41108 7775 9218 -4782
20755 59018 92146 7540 9824 -1265
37389 107484 156665 7034 10620 1755
53096 149650 217849 5243 9777 4247
97408 277727 379357 3826 6362 11601
102228 353295 422655 2497 5261 15592
97672 347718 406645 1658 4628 16492
105511 343040 409009 1472 4184 15986
101820 338922 398126 -510 3662 16230
102747 331955 387984 -2175 3370 14825
105165 325491 386799 -3001 3685 14059
108786 340818 409108 -4192 3912 13568
106552 336343 397669 -5664 3499 12425
99772 324499 389376 -6677 5372 13380
95535 325699 397428 -2561 8471 17347
99252 329407 420893 5191 8577 23430
99596 325451 415285 5887 4433 26591
93846 287179 358140 252 915 22440
72067 223391 281025 -2617 -730 16786
88638 263312 350220 -936 -1991 16897
88378 261059 337401 2707 -3364 18724
29814 89264 116602 5453 -5979 15752
2472 9465 2703 7010 -7508 9788
347 1987 702 9316 -9452 5885
288 1186 639 11545 -12430 4632
289 1071 651 13237 -14243 4763
294 993 704 16615 -17158 5558
319 931 803 18796 -18126 7712
359 1027 939 18403 -16944 10200
377 1075 983 16978 -16702 10857
349 1025 893 12698 -19320 10687
385 1220 994 5470 -22225 8318
666 2219 1560 5402 -18431 5012
1010 3530 2373 9528 -14163 2856
1318 4717 3304 9675 -13269 922
1355 4875 3327 10646 -12175 452
1343 4788 3352 11989 -11026 698
1349 4799 3516 12698 -10222 611
1292 4546 3343 12773 -9680 613
1221 4261 3061 12582 -9695 906
1166 4068 2812 12852 -10249 1833
1049 3690 2397 12657 -10645 2286
866 3081 1908 11358 -11325 2529
635 2267 1434 9135 -12713 2717
447 1823 1150 9675 -13269 922
400 1638 1061 10646 -12175 452
431 1426 1045 11989 -11026 698
419 1344 978 12698 -10222 611
485 1579 1109 12773 -9680 613
457 1502 993 12582 -9695 906
485 1623 996 12852 -10249 1833
524 1729 1051 12657 -10645 2286
455 1472 931 11358 -11325 2529
432 1358 905 9135 -12713 2717
401 1224 866 9609 -17032 3065
396 1200 854 10086 -15689 5468
396 1197 852 10395 -14477 6349
404 1232 861 9214 -16220 6671
416 1284 861 7154 -18544 6670
427 1333 866 5728 -19490 5581
434 1374 889 3614 -18992 5760
443 1411 920 2895 -18955 5765
479 1546 1023 3962 -18073 5340
533 1735 1137 5493 -16786 5488
545 1771 1173 7120 -15729 5822
550 1778 1205 8177 -14365 6344
518 1660 1118 8442 -13966 6722
504 1610 1086 7820 -14196 6838
483 1541 1029 6624 -14395 6663
484 1540 1022 5409 -14600 6364
483 1580 1028 4620 -14521 6165
498 1620 1039 4471 -14838 6149
447 1435 897 4484 -15043 6794
349 1085 733 5534 -14842 8381
344 1083 780 6063 -14325 8782
406 1322 1070 6365 -13342 8674
688 2465 2082 6241 -12251 8398
1171 4369 3430 5982 -11800 7914
1509 5641 4294 5453 -11369 7527
1281 4703 3661 4803 -10731 7331
762 2691 2134 3753 -8882 6917
474 1576 1290 3018 -7182 5285
364 1139 929 2502 -7672 2375
387 1327 1039 2163 -8689 155
721 2674 2116 3709 -10560 61
1332 5026 3666 5793 -13043 2516
1663 6212 4192 6669 -14538 6316
1508 5555 4013 6420 -15760 9089
1029 3710 2705 6352 -17046 8829
796 2874 2126 7092 -17131 5327
862 3169 2401 7940 -16501 715
962 3546 2507 8468 -15503 -2815
930 3427 2351 8279 -15141 -3622
789 2854 1993 7024 -17555 -393
652 2324 1604 5953 -20985 4828
681 2440 1687 5872 -22085 9046
819 2984 1902 6461 -21580 11146
972 3571 2119 8076 -20709 10075
988 3618 2220 9331 -18454 7738
777 2729 1714 9000 -16995 6500
566 1898 1229 7634 -16072 6284
421 1347 857 5990 -14782 6285
578 1966 1251 5036 -14182 5572
815 2814 1659 6255 -13873 3450
732 2593 1609 5846 -14595 4500
913 3205 1917 4567 -14992 6408
674 2313 1316 3613 -15124 7959
661 2235 1353 4270 -15442 7898
495 1601 984 6688 -15649 6203
437 1392 904 10206 -15446 3210
467 1460 1066 11179 -12111 3090
564 1460 1588 8278 -7892 7176
675 1531 2032 7458 -17733 7998
1322 3141 4615 7547 -15994 8474
2090 5172 7199 8239 -14686 7884
2950 8351 11269 7882 -13118 7082
4621 13622 18388 8708 -13600 4734
5611 17524 23782 8940 -13197 3903
7231 24115 33496 8703 -11285 4320
14597 48486 66339 8097 -10159 4068
28767 87714 119572 8117 -10733 3329
18309 54829 71987 8416 -10930 4221
15425 49028 67081 8005 -12916 5105
60089 174686 237373 7107 -14927 5352
66472 204560 274941 5691 -15326 5974
23501 76249 122380 5286 -16480 5301
16490 47125 88080 5794 -16702 4085
17558 50027 93926 6392 -15161 5162
24134 76712 130486 4953 -16193 9578
32818 119622 186825 3206 -20724 9841
39221 158011 238893 4186 -20323 6637
45093 189306 284480 6172 -15117 7123
51165 227537 338713 5329 -13084 5426
54488 259244 375787 2684 -12887 6148
55521 276138 389871 2310 -12182 9730
55827 284031 394556 2511 -11362 10591
55752 286791 395339 1888 -10358 11534
55333 286286 394456 1239 -9871 11772
55033 282846 392201 512 -9679 12047
54702 282549 392524 -548 -9328 12446
54578 282459 392356 -1666 -8742 12666
54978 283131 392089 -2602 -8275 12703
55032 282469 391030 -2947 -8230 12702
54917 282321 389995 -3434 -8524 12822
54034 279297 385785 -4546 -8907 12846
52010 271089 376096 -5250 -9384 12867
50369 262939 366881 -5538 -10057 12788
49296 257568 360909 -5272 -10697 12116
48404 254562 357356 -4379 -10893 11040
47727 254083 356755 -3900 -10911 10458
47211 256101 359177 -3779 -10934 10526
47145 262345 366494 -3814 -10971 10535
47937 270866 375877 -4855 -11097 10214
49371 279847 385017 -6362 -11365 9442
51713 288087 393651 -7308 -11670 8649
53345 291222 397145 -7633 -11842 8227
54038 291470 398169 -7554 -11910 8035
54559 288953 397327 -7550 -11969 7776
55663 281931 393865 -7972 -12128 7568
59288 267584 384164 -8770 -12295 7435
64622 257230 374478 -9535 -12384 7370
63901 245425 361006 -9713 -12387 7450
62087 241681 356419 -10328 -12067 7584
61288 242760 357391 -11074 -11779 7696
61420 250831 366591 -11295 -11481 8017
61027 273463 386341 -10713 -11119 8601
58788 295406 396351 -10302 -11147 9422
58196 296778 397141 -9677 -11756 10524
56633 293052 395972 -8262 -11948 11541
54843 286062 391862 -6754 -11263 12024
54056 280664 387853 -6204 -10498 12208
54400 279332 385921 -8524 -9537 12230
54621 275448 382461 -8752 -8186 10949
54537 272425 380227 -8743 -6383 8269
54771 269692 378580 -9849 -5288 6141
56154 262636 373781 -11375 -5107 5473
59752 239782 349576 -12553 -4836 4919
61205 206968 298417 -13359 -4439 4732
51009 164319 241721 -13931 -4047 4537
42799 137141 207250 -14716 -3817 4194
41262 131017 197612 -14663 -3072 4661
44774 139242 204567 -14322 -2067 4696
51953 159581 224561 -14491 -1524 5083
58438 181520 246370 -14365 -722 5238
68678 222956 291012 -9398 -2260 13102
68352 221327 288077 -9050 -2301 13496
68130 220024 285734 -8587 -2239 13859
67985 219218 284259 -8057 -2099 14075
67911 218751 283278 -7903 -2086 14212
67743 217752 281376 -8187 -2266 14138
67601 217003 279944 -8383 -2297 13947
67464 216136 278406 -8202 -2040 13837
67418 215576 277507 -8037 -1897 13719
67409 215380 277138 -7975 -1877 13674
67393 215301 277018 -8072 -1931 13854
67434 215704 277634 -8422 -2036 14054
67284 215182 276706 -8762 -1942 14085
66645 212545 272562 -8897 -1688 13847
65883 209771 268669 -8882 -1544 13503
65346 208078 266373 -8796 -1551 13319
65101 207500 265596 -8734 -1652 13349
65003 207279 265246 -8746 -1622 13629
64979 207487 265461 -8825 -1422 13951
65002 208015 266040 -8831 -1377 13776
64969 207989 265875 -8604 -1386 13330
64811 207254 264787 -8348 -1443 13112
64715 206749 264065 -8187 -1502 13208
64735 206874 264149 -8133 -1457 13432
64853 207448 264839 -8341 -1510 13431
65076 208514 266215 -8635 -1477 13369
65267 209475 267391 -8860 -1263 13238
65447 210362 268486 -8859 -1226 12929
65612 211134 269444 -8907 -1322 12866
65767 211700 270150 -9028 -1475 12971
65902 212105 270698 -9229 -1540 13075
66049 212702 271585 -9485 -1646 13121
66114 213147 272377 -9627 -1779 13145
66115 213503 273083 -9602 -1841 13182
66142 214119 274141 -9431 -1876 13284
66228 214985 275529 -9372 -1990 13283
66370 215942 276969 -9517 -2045 13288
66561 217009 278525 -9470 -2074 13288
66789 218142 280159 -9226 -2080 13236
67002 219152 281587 -8987 -2089 13213
67221 220062 282857 -8876 -2109 13241
67417 220718 283742 -8914 -2129 13295
67565 221023 284050 -8987 -2105 13323
67661 221126 284076 -9002 -2076 13285
67760 221301 284298 -8931 -2025 13212
67856 221604 284762 -8845 -1978 13170
67929 221881 285203 -8913 -2005 13221
67975 222095 285585 -9070 -2054 13247
68023 222407 286139 -9114 -2074 13240
68069 222731 286697 -9045 -2079 13240
68880 225758 291112 -8756 -2169 13391
68928 225788 291118 -8813 -2191 13435
68951 225645 290811 -8888 -2192 13419
68970 225416 290405 -8949 -2193 13425
68981 225186 290050 -8975 -2249 13500
68987 224968 289700 -8872 -2326 13625
68946 224555 289079 -8827 -2283 13580
68828 224044 288443 -8792 -2243 13541
68632 223540 287936 -8742 -2198 13550
68400 223048 287452 -8698 -2147 13560
68622 224796 290046 -8303 -1842 13403
68692 225136 290586 -8313 -1902 13470
68739 225451 291152 -8306 -1947 13555
68772 225779 291789 -8324 -1993 13593
68795 226007 292278 -8359 -2080 13691
68805 226170 292608 -8298 -2101 13719
68851 226531 293265 -8269 -2117 13734
68941 227036 294134 -8285 -2144 13748
69030 227381 294718 -8358 -2175 13732
69108 227558 294994 -8432 -2191 13692
69190 227772 295336 -8457 -2211 13754
69289 228200 296026 -8448 -2231 13837
69405 228634 296718 -8427 -2256 13861
69509 228981 297246 -8411 -2297 13838
69600 229184 297531 -8346 -2295 13755
69674 229362 297768 -8269 -2253 13710
69727 229336 297645 -8235 -2218 13687
69753 229221 297343 -8226 -2191 13622
69768 229087 297019 -8235 -2165 13567
69782 228911 296638 -8257 -2142 13527
69773 228705 296192 -8256 -2133 13497
69746 228391 295571 -8280 -2140 13531
69647 227916 294820 -8362 -2154 13570
69460 227282 293990 -8432 -2193 13569
69198 226582 293133 -8467 -2267 13604
68914 225888 292240 -8454 -2301 13702
68689 225387 291584 -8393 -2307 13742
68550 225115 291159 -8324 -2321 13697
68469 224871 290664 -8265 -2300 13632
68424 224619 290091 -8213 -2251 13550
68406 224429 289580 -8194 -2221 13469
68410 224310 289233 -8289 -2247 13484
68431 224286 289031 -8378 -2262 13522
68458 224263 288829 -8408 -2259 13513
68468 224138 288476 -8508 -2300 13499
68457 223865 287923 -8640 -2321 13488
68404 223480 287210 -8702 -2304 13478
68320 223055 286524 -8720 -2295 13476
68225 222685 285980 -8767 -2298 13453
68129 222388 285526 -8834 -2309 13375
68023 222002 284918 -8860 -2318 13333
67935 221708 284446 -8838 -2330 13353
67872 221465 284049 -8808 -2342 13378
67817 221171 283532 -8773 -2347 13357
67768 220907 283066 -8649 -2380 13339
67737 220681 282648 -8617 -2339 13288
67721 220544 282376 -8628 -2326 13257
67721 220437 282142 -8644 -2327 13286
67705 220248 281797 -8628 -2317 13272
67668 219941 281260 -8627 -2294 13200
67632 219638 280757 -8708 -2281 13178
67584 219280 280151 -8785 -2276 13187
67522 218807 279383 -8813 -2277 13158
67431 218177 278430 -8837 -2316 13185
67343 217620 277556 -8892 -2346 13220
67219 216866 276422 -8979 -2340 13200
67077 216050 275246 -9009 -2330 13207
66891 215220 274151 -9025 -2314 13225
66591 214054 272684 -9078 -2305 13215
66249 212934 271351 -9094 -2316 13197
65933 212027 270289 -9026 -2304 13253
65678 211286 269388 -8905 -2267 13262
65483 210634 268514 -8785 -2235 13173
65346 210054 267711 -8846 -2212 13139
65256 209622 267086 -8926 -2161 13094
65179 209176 266425 -9037 -2135 13019
65137 208843 265922 -9150 -2130 13006
65102 208559 265492 -9219 -2128 13012
65103 208467 265304 -9275 -2137 13028
65093 208304 265024 -9350 -2141 13020
65042 207982 264589 -9386 -2146 13003
64963 207621 264113 -9415 -2153 13021
64885 207312 263734 -9423 -2163 13029
64807 207075 263454 -9360 -2170 13043
64744 206910 263250 -9274 -2166 13012
64692 206752 263053 -9215 -2166 12987
64681 206722 263009 -9188 -2172 13018
64666 206668 262911 -9166 -2167 13033
64677 206726 262942 -9157 -2169 13035
64722 206908 263132 -9143 -2186 13057
64780 207168 263421 -9116 -2190 13063
64838 207399 263671 -9088 -2172 13024
64887 207590 263846 -9087 -2170 12985
64930 207759 264016 -9177 -2201 13043
64956 207805 264023 -9326 -2220 13097
64980 207854 264048 -9387 -2206 13065
65024 207988 264182 -9337 -2179 13060
65063 208121 264318 -9292 -2163 13038
65105 208250 264454 -9243 -2145 12964
65143 208372 264579 -9196 -2122 12927
65174 208468 264685 -9193 -2107 12915
65179 208481 264722 -9214 -2100 12911
65099 208311 264586 -9257 -2100 12912
64945 208029 264398 -9174 -2123 13000
64769 207740 264192 -9057 -2117 12989
64620 207533 264054 -8991 -2112 12967
64544 207496 264041 -8979 -2118 12960
64553 207661 264261 -8990 -2122 12918
64594 207851 264462 -9065 -2150 12872
64649 208046 264663 -9243 -2199 12921
65201 210456 267609 -9102 -2477 13041
65226 210607 267804 -9105 -2437 12998
65251 210663 267863 -9075 -2416 12995
65282 210760 267968 -9045 -2387 12960
65325 210908 268119 -9035 -2381 12919
65366 211011 268217 -9049 -2386 12918
65410 211134 268345 -9082 -2385 12907
65438 211178 268367 -9150 -2392 12891
65462 211205 268369 -9230 -2414 12901
65481 211231 268372 -9269 -2474 12913
65502 211263 268376 -9261 -2554 12936
65509 211232 268304 -9250 -2628 12986
65484 210988 267939 -9224 -2683 13022
65398 210516 267294 -9198 -2699 12984
65353 210242 266919 -9198 -2691 12945
65317 210027 266621 -9268 -2694 12950
65316 209961 266542 -9344 -2718 12939
65288 209859 266447 -9318 -2754 12924
65171 209507 266080 -9210 -2756 12925
64954 208912 265474 -9092 -2735 12908
64712 208279 264846 -9020 -2738 12880
64531 207872 264458 -8978 -2743 12883
64445 207795 264421 -9006 -2772 12866
64434 207908 264569 -9136 -2823 12849
64453 207988 264633 -9296 -2887 12875
64468 208011 264598 -9404 -2949 12910
64483 207937 264434 -9433 -2973 12918
64498 207883 264314 -9421 -2954 12879
64527 207914 264298 -9425 -2947 12859
64545 207887 264209 -9453 -2957 12856
64554 207839 264112 -9465 -2963 12837
64549 207721 263936 -9420 -2958 12870
64501 207465 263612 -9364 -2998 12893
64422 207149 263250 -9288 -3056 12873
64360 206932 263003 -9193 -3058 12865
64285 206682 262706 -9147 -3068 12868
64245 206555 262584 -9132 -3057 12885
64240 206619 262661 -9154 -2993 12830
64222 206529 262508 -9262 -2917 12759
64201 206386 262319 -9405 -2839 12716
63959 204478 259635 -9510 -2802 12667
63917 204274 259371 -9475 -2853 12753
63910 204244 259332 -9405 -2934 12783
63925 204325 259417 -9305 -3015 12784
63902 204268 259320 -9200 -3081 12801
63816 204037 259106 -9168 -3168 12853
63732 204037 259235 -9226 -3209 12864
63674 204270 259662 -9271 -3182 12811
63630 204520 260086 -9230 -3108 12765
63639 204862 260555 -9167 -3059 12730
63713 205305 261112 -9342 -2962 12636
63866 205992 261924 -9582 -2983 12615
64051 206732 262792 -9782 -3077 12632
64216 207346 263481 -9916 -3181 12661
64349 207787 263985 -9966 -3241 12689
64484 208282 264556 -9968 -3255 12709
64612 208716 265046 -9962 -3289 12701
64708 208989 265341 -9924 -3358 12746
64760 209073 265415 -9759 -3378 12803
64798 209202 265586 -9477 -3352 12835
64813 209305 265727 -9540 -3371 12923
64816 209396 265887 -9574 -3380 12965
64830 209520 266074 -9433 -3269 12904
64838 209607 266220 -9251 -3068 12816
64862 209729 266376 -9242 -2917 12768
64900 209859 266533 -9345 -2779 12731
64959 210049 266756 -9394 -2635 12704
65038 210319 267077 -9333 -2515 12690
65107 210536 267338 -9227 -2408 12675
65174 210736 267551 -9113 -2342 12606
65225 210877 267706 -9021 -2292 12548
65283 211015 267858 -9009 -2270 12558
65321 211064 267879 -9071 -2345 12618
65359 211160 267973 -9122 -2439 12722
65417 211388 268262 -9130 -2522 12807
65505 211731 268709 -9130 -2598 12884
65585 212051 269108 -9145 -2643 12927
65655 212297 269402 -9171 -2608 12883
65746 212631 269833 -9151 -2493 12820
65815 212838 270091 -9119 -2458 12813
65843 212886 270145 -9066 -2445 12822
65821 212810 270094 -8958 -2366 12771
65748 212681 270053 -8890 -2307 12687
65590 212375 269817 -8940 -2321 12640
65434 212068 269553 -9125 -2400 12634
65299 211780 269234 -9374 -2504 12666
65205 211544 268919 -9594 -2665 12731
65169 211445 268738 -9675 -2882 12873
65207 211570 268801 -9542 -3060 13010
65252 211646 268839 -9133 -3098 13008
65363 212073 269359 -8982 -3185 12995
65478 212415 269749 -8815 -3265 13000
65590 212741 270117 -8579 -3304 12982
65669 212899 270287 -8349 -3320 12923
65708 212959 270336 -8292 -3344 12891
65746 213097 270526 -8447 -3388 12917
65769 213206 270703 -8735 -3478 12943
65769 213256 270788 -9061 -3608 12942
65743 213139 270659 -9493 -3467 12838
65705 212966 270440 -9697 -3492 12756
65694 212909 270382 -9793 -3476 12697
65694 212892 270334 -9806 -3439 12611
65713 212914 270351 -9781 -3422 12509
65724 212897 270305 -9767 -3406 12430
65752 212925 270301 -9797 -3457 12425
65762 212849 270160 -9812 -3644 12537
65779 212806 270060 -9732 -3868 12660
65782 212657 269819 -9474 -4093 12851
65778 212465 269520 -9501 -4126 12868
65777 212326 269315 -9643 -4123 12858
65783 212235 269164 -9773 -4120 12853
65771 212032 268853 -9839 -4125 12830
65758 211830 268576 -9838 -4121 12776
65755 211692 268382 -9724 -4094 12732
65767 211675 268330 -9494 -4058 12736
65770 211620 268263 -9252 -4002 12710
65781 211644 268276 -9049 -3919 12664
65819 211782 268454 -8871 -3873 12666
65849 211916 268659 -8657 -3889 12675
65785 211809 268596 -8430 -3915 12697
65648 211550 268433 -8287 -3938 12715
65471 211216 268150 -8259 -3946 12687
65335 211002 267993 -8346 -3929 12646
65272 210944 267959 -8464 -3915 12596
65276 211006 268049 -8608 -3914 12581
65304 211065 268098 -8835 -3946 12598
65352 211157 268179 -9095 -4001 12630
65425 211372 268439 -9335 -4067 12688
65512 211611 268698 -9535 -4124 12708
65584 211766 268869 -9631 -4152 12691
65630 211771 268801 -9640 -4188 12684
65678 211824 268824 -9669 -4232 12725
65730 211909 268921 -9694 -4248 12726
65728 211853 268837 -9653 -4265 12672
65716 211819 268828 -9578 -4336 12701
65685 211733 268733 -9439 -4381 12775
65665 211681 268705 -9296 -4379 12833
65665 211740 268794 -9217 -4408 12885
65677 211784 268842 -9163 -4397 12881
65676 211749 268787 -9108 -4341 12825
65711 211822 268860 -9067 -4295 12801
65757 211934 268970 -9098 -4271 12805
65810 212066 269093 -9117 -4231 12792
65848 212102 269103 -9071 -4180 12738
65882 212114 269083 -9033 -4150 12694
65914 212125 269061 -9031 -4140 12717
65934 212082 268978 -9019 -4125 12738
65963 212115 268988 -8980 -4075 12756
66002 212212 269093 -8969 -4063 12780
66036 212271 269143 -8918 -4032 12777
66070 212340 269210 -8877 -3999 12743
66104 212383 269254 -8844 -3969 12728
66120 212353 269177 -8798 -3933 12716
66137 212351 269160 -8817 -3896 12696
66173 212434 269240 -8883 -3874 12696
66176 212387 269185 -8930 -3880 12724
66132 212210 268993 -8925 -3843 12776
65988 211764 268542 -8952 -3851 12794
65757 211135 267865 -8981 -3843 12763
65563 210713 267474 -9028 -3856 12764
65787 211327 268023 -8904 -3769 12793
65808 211418 268159 -8874 -3726 12774
65797 211442 268226 -8869 -3679 12717
65770 211420 268239 -8893 -3647 12656
65747 211395 268237 -8936 -3662 12660
65722 211361 268203 -8945 -3708 12744
65705 211312 268132 -8939 -3765 12743
65694 211233 268028 -8975 -3868 12790
65705 211232 267991 -9025 -3950 12846
65690 211096 267794 -9079 -4008 12877
65594 210573 267060 -9131 -4048 12894
65550 210308 266711 -9146 -4069 12914
65533 210160 266498 -9106 -4079 12946
65539 210145 266473 -9053 -4069 12923
65589 210325 266677 -8954 -3956 12763
65635 210481 266846 -9019 -3924 12708
65666 210554 266918 -9069 -3882 12637
65695 210624 266985 -9143 -3877 12601
65728 210724 267097 -9242 -3911 12622
65767 210838 267229 -9343 -3964 12646
65790 210923 267324 -9405 -4008 12682
65836 211051 267487 -9370 -4034 12743
65875 211163 267603 -9291 -4054 12791
65897 211221 267672 -9266 -4052 12794
65856 211071 267528 -9271 -4036 12777
65726 210736 267221 -9241 -4025 12761
65570 210410 266968 -9159 -4021 12760
65439 210278 266924 -9062 -4009 12764
65383 210348 267100 -8972 -3994 12742
65392 210518 267329 -8889 -3987 12726
65361 210376 267067 -8870 -3978 12734
65121 209148 265397 -8907 -3949 12716
64953 208278 264247 -8997 -3934 12706
64939 208093 263992 -9141 -3936 12733
65011 208305 264218 -9252 -3933 12705
65105 208596 264527 -9295 -3894 12668
65204 208904 264883 -9323 -3852 12640
65303 209273 265314 -9363 -3865 12604
65377 209561 265696 -9340 -3876 12610
65436 209867 266087 -9239 -3860 12597
65467 210076 266410 -9127 -3846 12583
65505 210338 266770 -9054 -3872 12615
65544 210598 267130 -9048 -3916 12682
65616 210951 267576 -9073 -3947 12706
65679 211221 267905 -9095 -3961 12785
65735 211404 268110 -9110 -3995 12838
65800 211627 268361 -9162 -4005 12848
65856 211804 268553 -9198 -3993 12801
65933 212051 268838 -9181 -3977 12790
66029 212370 269228 -9145 -3942 12784
66125 212714 269638 -9099 -3898 12755
66217 213034 270025 -9070 -3874 12734
66310 213345 270407 -9078 -3878 12741
66393 213611 270737 -9150 -3911 12841
66470 213860 271018 -9229 -3950 12862
66529 214003 271188 -9250 -3945 12867
66577 214122 271311 -9248 -3947 12885
66625 214272 271506 -9262 -3970 12935
66699 214507 271790 -9150 -3920 12926
66752 214629 271924 -8978 -3819 12856
66769 214604 271878 -8901 -3779 12827
66772 214510 271741 -8852 -3757 12835
66777 214457 271658 -8806 -3690 12843
66738 214316 271511 -8739 -3628 12854
66629 214093 271364 -8635 -3619 12836
66491 213971 271405 -8511 -3597 12819
66348 213871 271446 -8372 -3564 12822
66306 214167 271997 -8369 -3639 12897
66380 214812 272956 -8409 -3673 12913
66526 215656 274127 -8522 -3660 12893
66681 216485 275247 -8749 -3730 12941
66809 217409 276481 -8900 -3787 12951
66821 217873 276962 -9044 -3865 12860
66740 217940 276969 -9035 -3836 12768
66485 217332 276115 -8923 -3746 12857
66110 216396 274963 -8920 -3823 13011
65786 215477 273859 -8856 -3804 13000
65479 214510 272714 -8777 -3414 12888
65115 213065 271074 -8812 -2906 12711
64512 210334 268023 -8859 -2685 12594
63514 205593 263186 -8819 -2705 12629
62299 200742 258457 -8817 -2855 12668
60474 194388 252348 -8824 -3029 12691
57588 185653 244369 -8739 -3113 12688
54390 175264 234411 -8775 -3330 12672
50071 160895 219486 -8902 -3597 12624
44866 143800 200255 -9155 -3832 12553
38724 122958 174343 -9521 -4093 12428
30635 95760 136823 -9887 -4280 12129
24189 74310 106352 -10450 -4485 11829
20752 61870 90217 -11147 -4860 11619
19652 56391 85519 -11706 -5125 10906
21086 58496 92285 -12279 -5156 9658
25342 69459 111303 -13024 -5292 8542
32291 90488 142566 -13791 -5627 7614
41010 119337 186610 -14531 -5836 6536
49454 151832 239142 -15089 -5688 5099
55838 184768 288086 -15458 -5690 3605
60652 219946 328937 -15634 -5757 2117
64341 251848 356467 -15716 -5543 442
66714 272676 371160 -15788 -5202 -1227
68050 284937 380178 -15561 -4713 -2704
69001 292610 386759 -15167 -4323 -3962
70286 297922 393182 -14526 -3520 -6721
71147 297420 394595 -14205 -2999 -8139
71449 296008 393428 -13612 -2600 -8983
72515 294610 395699 -13079 -2829 -9416
74006 289770 394248 -13276 -2717 -9498
75787 282670 389967 -13709 -2161 -9279
78516 268334 381586 -13713 -1805 -9202
77481 242633 359333 -13396 -1708 -8466
72202 220239 332302 -13532 -2022 -7412
66749 208903 317881 -14431 -2049 -6576
62715 204447 312038 -15176 -1598 -5773
58888 198590 303078 -15548 -1312 -5297
55450 190871 291865 -15587 -1169 -4865
52726 184104 280921 -15468 -908 -4386
50790 178882 272236 -15367 -564 -3981
49658 175225 266704 -15312 -32 -3843
48927 172454 262976 -15306 620 -4014
48011 167777 256634 -15473 1153 -4325
46855 160878 247373 -15678 1419 -4700
46213 156661 241565 -15818 1577 -4976
45609 152549 235485 -15866 1623 -4832
45005 148274 228955 -15857 1662 -4678
44225 143288 221438 -15842 1649 -4536
43495 139188 215434 -15800 1611 -4423
43076 136855 211970 -15737 1608 -4314
42880 135581 210039 -15726 1605 -4222
42649 134151 207824 -15747 1594 -4142
42410 132771 205790 -15754 1544 -4071
42298 131991 204643 -15800 1380 -3988
42050 130655 202701 -15806 1205 -3818
41606 128580 199792 -15749 1076 -3676
41327 127236 197942 -15751 918 -3608
41187 126499 196893 -15863 724 -3516
41078 125915 196064 -15983 531 -3432
41105 125915 196041 -16042 405 -3371
41165 125993 196110 -16070 361 -3331
41214 126020 196126 -16070 357 -3347
41162 125659 195640 -16048 368 -3384
41134 125416 195332 -16042 383 -3411
41111 125182 195047 -16045 396 -3388
41089 125015 194877 -16029 424 -3383
40937 124382 194122 -15999 427 -3389
40813 123927 193652 -15979 376 -3327
40742 123724 193502 -15977 312 -3231
40761 123828 193738 -15965 266 -3185
40757 123766 193674 -15937 284 -3242
40740 123622 193500 -15960 283 -3311
40682 123280 193050 -16040 188 -3324
40654 123077 192820 -16074 129 -3322
40736 123300 193141 -15977 168 -3276
40860 123681 193680 -16000 130 -3277
41056 124330 194571 -16013 100 -3281
41237 124934 195391 -16010 84 -3286
41391 125449 196083 -16011 74 -3308
41504 125819 196633 -16020 70 -3333
41661 126406 197472 -16033 59 -3347
41805 126910 198184 -16029 62 -3375
41863 127075 198439 -16027 68 -3420
41955 127411 198977 -16025 51 -3463
42172 128229 200116 -16015 39 -3470
42339 128825 200959 -16014 25 -3467
42495 129324 201630 -16024 -7 -3460
42568 129493 201863 -16025 -50 -3437
42716 130003 202589 -16016 -71 -3413
42837 130383 203090 -16008 -71 -3424
42929 130644 203466 -16020 -75 -3473
43038 130973 203945 -16020 -66 -3503
43175 131416 204558 -15999 -49 -3525
43352 132037 205420 -15996 -88 -3512
43461 132350 205850 -15977 -93 -3495
43550 132603 206198 -15945 -76 -3503
43603 132701 206323 -15952 -81 -3535
43640 132738 206371 -15990 -100 -3575
43710 132940 206669 -16012 -95 -3583
43884 133529 207440 -16010 -84 -3608
43938 133618 207532 -16023 -100 -3637
43956 133577 207511 -16046 -135 -3627
43936 133476 207448 -16031 -168 -3567
43908 133446 207510 -15993 -211 -3465
43889 133494 207707 -15977 -255 -3395
43899 133669 208076 -15972 -259 -3391
43969 134037 208668 -15972 -233 -3444
44076 134482 209309 -16005 -210 -3538
44192 134910 209924 -16037 -201 -3618
44318 135365 210565 -16033 -185 -3655
44438 135760 211097 -16018 -164 -3659
44598 136280 211808 -16020 -170 -3649
44740 136758 212473 -16026 -200 -3644
44947 137476 213455 -16004 -220 -3624
45116 138041 214205 -15972 -209 -3609
45246 138437 214735 -15968 -219 -3587
45338 138706 215127 -15951 -246 -3536
45373 138772 215243 -15896 -256 -3479
45459 139096 215723 -15889 -282 -3424
45498 139246 215937 -15940 -308 -3419
45498 139214 215884 -15987 -320 -3455
45513 139244 215949 -16016 -322 -3503
45556 139383 216154 -16022 -313 -3542
45584 139431 216195 -16002 -405 -3537
45590 139391 216133 -16041 -437 -3573
45644 139551 216341 -16053 -447 -3571
45712 139771 216604 -16080 -475 -3568
45762 139893 216738 -16116 -513 -3573
45855 140195 217148 -16100 -484 -3566
45888 140278 217245 -16038 -382 -3554
45933 140386 217358 -15981 -279 -3544
46003 140604 217626 -15928 -219 -3512
46080 140842 217918 -16022 -313 -3542
46127 140921 217997 -16002 -405 -3537
46129 140853 217861 -16041 -437 -3573
46133 140792 217770 -16053 -447 -3571
46115 140659 217568 -16080 -475 -3568
46145 140715 217618 -16116 -513 -3573
46179 140801 217707 -16100 -484 -3566
46236 140971 217921 -16038 -382 -3554
46224 140915 217895 -15981 -279 -3544
46146 140721 217716 -15928 -219 -3512
46042 140498 217516 -15844 -199 -3455
45923 140234 217261 -15856 -185 -3455
45847 140106 217158 -15841 -190 -3418
45784 139913 216927 -15821 -204 -3381
45804 140029 217089 -15857 -218 -3419
45887 140345 217495 -15925 -247 -3469
45925 140454 217595 -15978 -282 -3489
45944 140474 217571 -15992 -306 -3484
45906 140273 217273 -15981 -344 -3456
45872 140091 217005 -15979 -401 -3409
45870 140022 216900 -15969 -434 -3379
45925 140201 217124 -15943 -407 -3410
45928 140169 217028 -15944 -374 -3480
45842 139792 216483 -15979 -373 -3536
45711 139278 215791 -16008 -379 -3577
45607 138881 215271 -16026 -386 -3622
45552 138713 215061 -16047 -395 -3657
45560 138755 215096 -16052 -391 -3677
45576 138818 215158 -16024 -370 -3658
45563 138746 215038 -15962 -368 -3619
45597 138854 215187 -15905 -395 -3569
45598 138824 215105 -15909 -438 -3534
45579 138694 214882 -15954 -493 -3523
45631 138854 215082 -15999 -572 -3497
45747 139285 215664 -16018 -634 -3472
45895 139826 216356 -16009 -666 -3442
45996 140143 216727 -16013 -721 -3421
46022 140156 216688 -16043 -785 -3417
46091 140386 216986 -16066 -805 -3432
46127 140485 217091 -16031 -750 -3443
46179 140618 217200 -15976 -691 -3440
46203 140631 217183 -15978 -669 -3457
46239 140702 217278 -16001 -650 -3493
46224 140654 217254 -16011 -634 -3518
46189 140625 217270 -15997 -621 -3531
46138 140602 217329 -15980 -638 -3537
46070 140521 217310 -16004 -686 -3521
46049 140552 217415 -16025 -721 -3495
46028 140512 217366 -16007 -715 -3474
46052 140586 217474 -15985 -694 -3481
46127 140837 217802 -16000 -725 -3492
46203 141074 218089 -16034 -788 -3475
46280 141294 218356 -16044 -805 -3457
46344 141469 218581 -16025 -801 -3421
46449 141818 219016 -16014 -841 -3369
46504 141951 219145 -16015 -870 -3344
46541 142012 219204 -16003 -846 -3348
46566 142063 219255 -16003 -832 -3391
46626 142277 219548 -16027 -839 -3436
46689 142503 219834 -16041 -827 -3474
46692 142501 219824 -16003 -793 -3483
46692 142488 219806 -16014 -814 -3418
46706 142517 219844 -15987 -827 -3334
46708 142492 219811 -15948 -813 -3280
46719 142487 219799 -15934 -804 -3257
46762 142613 219957 -15949 -821 -3244
46835 142826 220237 -15978 -832 -3254
46855 142810 220172 -15996 -822 -3290
46853 142713 220016 -16010 -824 -3324
46866 142691 219959 -16031 -853 -3348
46767 142083 219220 -16076 -952 -3271
46716 142088 219319 -16073 -971 -3269
46680 142051 219312 -16066 -951 -3279
46619 141841 219044 -16084 -907 -3344
46621 141833 219026 -16101 -859 -3378
46680 142010 219245 -16066 -796 -3340
46736 142174 219443 -15988 -731 -3238
46770 142220 219494 -15889 -704 -3082
46767 142128 219336 -15796 -707 -2945
46751 141985 219125 -15759 -752 -2848
46776 142026 219177 -15802 -798 -2844
46864 142320 219555 -15889 -808 -2955
46908 142458 219718 -15967 -820 -3074
46940 142571 219880 -16026 -857 -3151
46943 142570 219889 -16062 -899 -3185
46920 142488 219765 -16066 -909 -3196
46887 142342 219586 -16056 -920 -3178
46820 142062 219221 -16035 -928 -3135
46776 141867 218979 -16001 -920 -3101
46746 141706 218750 -15987 -935 -3082
46712 141522 218478 -16009 -944 -3123
46699 141410 218296 -16028 -916 -3199
46676 141259 218071 -16019 -855 -3256
46587 140830 217456 -16016 -793 -3309
46487 140372 216808 -16031 -780 -3350
46390 139936 216202 -16048 -827 -3347
46341 139692 215854 -16051 -892 -3283
46269 139340 215331 -16026 -936 -3209
46188 138983 214836 -16007 -969 -3158
46172 138866 214679 -16003 -1016 -3100
46151 138730 214494 -15997 -1050 -3068
46164 138770 214567 -15996 -1044 -3088
46125 138696 214520 -15998 -1028 -3094
46077 138642 214542 -15995 -974 -3130
45981 138460 214376 -16005 -945 -3166
45926 138409 214394 -16026 -975 -3172
45926 138476 214513 -16051 -1039 -3196
45915 138447 214471 -16081 -1115 -3164
45853 138157 214051 -16088 -1142 -3099
45804 137927 213738 -16001 -1114 -3020
45847 138031 213879 -15994 -1103 -2983
45917 138263 214157 -15980 -1090 -2972
45966 138359 214241 -15963 -1083 -2979
45957 138267 214090 -15960 -1086 -3009
45948 138187 213967 -15980 -1089 -3073
45976 138240 214047 -16017 -1089 -3156
45975 138225 214014 -16051 -1091 -3208
45939 138089 213831 -16060 -1105 -3191
45924 138056 213804 -16015 -1147 -3085
45925 138076 213841 -16010 -1179 -3056
45962 138224 214069 -16001 -1201 -3016
45997 138330 214187 -15983 -1199 -2960
45979 138227 214031 -15989 -1212 -2938
45986 138205 213990 -16012 -1249 -2967
45987 138146 213900 -16040 -1260 -3029
46023 138241 214027 -16063 -1255 -3081
46059 138321 214096 -16073 -1284 -3096
46070 138305 214024 -16075 -1329 -3060
46059 138200 213857 -16050 -1331 -3025
46037 138063 213655 -16034 -1320 -3019
46006 137875 213387 -16035 -1288 -3019
45994 137774 213227 -16024 -1240 -3014
45994 137731 213151 -15997 -1196 -3006
46007 137736 213163 -15963 -1157 -3024
45988 137616 213035 -15972 -1170 -3059
45935 137481 212909 -16008 -1202 -3072
45863 137361 212835 -16011 -1195 -3090
45769 137181 212676 -15996 -1182 -3092
45673 136928 212391 -16003 -1219 -3064
45575 136615 212001 -16031 -1274 -3064
45523 136446 211768 -16050 -1297 -3055
45502 136313 211576 -16028 -1294 -3018
45472 136155 211342 -15982 -1269 -2976
45446 135996 211113 -15961 -1280 -2916
45439 135890 210938 -15967 -1344 -2864
45421 135758 210734 -15983 -1392 -2895
45435 135744 210710 -16002 -1366 -3001
45408 135601 210481 -16029 -1332 -3118
45356 135359 210139 -16078 -1340 -3190
45310 135173 209904 -16068 -1329 -3178
45269 135035 209735 -16051 -1342 -3142
45148 134568 209102 -16036 -1394 -3078
45023 134099 208496 -16012 -1413 -3005
44979 133944 208303 -15970 -1387 -2947
44970 133896 208233 -15955 -1398 -2933
44949 133800 208094 -15989 -1445 -2951
44951 133767 208013 -16011 -1454 -3002
44938 133654 207836 -16011 -1414 -3070
44903 133455 207553 -16032 -1400 -3137
44879 133328 207394 -16069 -1425 -3181
44871 133263 207329 -16069 -1422 -3162
44895 133325 207437 -16037 -1395 -3114
44994 133676 207923 -16009 -1402 -3076
45097 134040 208445 -16000 -1430 -3060
45204 134431 209057 -16015 -1449 -3064
45398 135165 210164 -16028 -1463 -3069
45842 136907 212879 -16027 -1459 -3066
46756 140661 218694 -15983 -1406 -3108
48249 147009 228559 -16005 -1414 -3133
49547 153218 238872 -16020 -1408 -3176
51630 164935 258732 -16011 -1383 -3174
56300 199580 307689 -16004 -1387 -3166
58684 241121 353811 -16028 -1430 -3194
57400 261921 368287 -16013 -1437 -3323
57045 271912 373847 -15955 -1392 -3479
57853 278072 377851 -15934 -1237 -3689
58997 283561 382725 -15854 -945 -4058
60148 290311 387806 -15742 -674 -4588
61367 299214 393543 -15059 -109 -5320
63478 313227 404128 -13862 837 -6090
66115 321177 412726 -13030 1896 -6959
67499 323901 416335 -12741 2809 -7974
68390 325043 418483 -13223 3123 -9144
69164 325712 420388 -14202 2932 -10539
69758 325911 421255 -15861 1958 -11592
69946 324864 420841 -17208 286 -12203
69961 323712 420386 -16948 -945 -12902
69945 323212 420007 -16357 -2439 -13812
69200 320191 415810 -14671 -3638 -14682
68814 305493 402341 -11167 -2300 -15298
73286 258943 372399 -7239 1342 -15409
66948 209634 315883 -3350 6052 -14706
59861 181738 277154 -212 9962 -13071
55166 170473 263927 2454 12565 -10996
59739 208480 318774 5837 15257 -9688
65343 270349 379980 8124 17346 -10174
66107 301931 395728 7828 16788 -11064
69438 306057 397059 1282 7951 -12008
72332 295689 392019 -4472 963 -10645
72804 278738 382530 -12279 -6593 -6052
71481 277882 382438 -19396 -11773 622
70018 290779 389151 -24675 -14340 5992
69912 295555 390463 -27658 -15535 8123
70486 288212 385001 -27995 -15934 8225
70346 277001 377311 -26318 -15927 8573
70023 277408 377534 -23262 -15249 8622
69763 278277 377309 -15606 -10834 4827
69203 275529 374714 -12616 -8450 2545
68809 274656 373854 -10422 -6143 -439
68723 271595 371406 -8999 -2982 -5492
67089 243715 344723 -7830 1646 -10820
56809 171990 251247 -5992 6605 -13804
33639 85794 139693 -3716 10178 -14315
24580 59687 107649 -2136 11145 -13765
25977 65326 115460 -1112 10883 -13847
27938 72495 124839 316 13427 -19918
26412 67664 118536 -1828 11377 -23850
23437 58698 107483 -5928 6511 -24493
27882 74944 130004 -8625 1973 -21025
42298 128990 202590 -9034 -1590 -15725
55142 180075 276698 -9527 -4365 -10637
56990 186983 286055 -12183 -7497 -5292
52770 165676 252493 -16881 -11003 1806
44455 133054 205286 -21687 -12962 9424
45228 138918 215476 -23793 -13137 13354
52559 170619 262641 -22369 -12299 12956
56325 190264 291354 -20870 -11536 13674
55576 186743 283827 -20574 -11533 17027
50260 160073 243246 -19670 -11737 18232
47439 146681 223501 -17544 -11391 15936
49271 154107 234909 -14407 -10574 12289
54269 177380 271208 -10793 -9477 8341
57455 193194 295477 -8162 -8182 3370
57506 187577 286151 -8518 -6032 -3832
52151 158356 241506 -10498 -2687 -12167
39761 110686 175859 -9470 1142 -18981
26066 64806 114926 -5241 3995 -22952
19774 46124 89639 -2290 4578 -24211
18635 43029 85249 -2198 3942 -24479
17945 41087 82229 -3199 3368 -25305
15763 34932 72767 -4525 2345 -26051
10957 22781 51687 -6329 474 -24697
8819 18477 43921 -8225 -1891 -20538
14079 32832 67670 -9546 -4380 -14950
18087 43944 84301 -10467 -6593 -9721
18010 43597 83404 -11442 -7659 -4966
18132 43893 83718 -13621 -11037 2057
16837 39766 77227 -16686 -12944 12548
15049 34474 69302 -18534 -10585 21151
14860 33812 68722 -18649 -9318 23552
15841 36471 73422 -17733 -8845 22881
17449 40971 80566 -16748 -8208 23052
17868 41832 81827 -15979 -7405 24380
16887 38712 77128 -15442 -7153 24892
15703 35100 71783 -14338 -8252 23004
14647 31952 67238 -7713 -10044 8588
14227 30663 65715 -6569 -8129 2511
14084 30163 65310 -8459 -5986 -1285
12851 26640 59739 -12100 -4325 -5660
9200 17185 43494 -14693 -2477 -11193
6640 11365 33797 -14189 -410 -16095
7233 13507 37920 -11916 1492 -18436
8833 18616 46799 -10421 2437 -17697
10522 24987 56867 -10596 1619 -15991
13890 37152 77177 -12514 717 -13974
16637 47695 93533 -13097 1551 -14387
17043 53675 98101 -14181 1371 -12953
19627 66260 112896 -15232 1283 -9877
30493 103692 169652 -15716 1150 -6896
53904 187869 302117 -16320 269 -5042
49515 248789 364593 -17103 -701 -3870
49119 271556 376748 -17542 -1197 -3362
52092 285286 386577 -17154 -804 -3201
55792 295130 395158 -16428 790 -1367
59135 302672 402523 -15904 264 -2453
62142 308976 408942 -15449 -82 -3554
65057 314490 414331 -15102 -183 -4749
67336 317249 416779 -14831 -98 -5949
68909 318005 417214 -14559 125 -7005
69964 317705 416925 -14160 388 -8048
70541 316610 416104 -13995 496 -8766
70615 314644 414700 -14132 456 -9053
70632 313663 414193 -14166 469 -8935
70527 312843 413727 -14212 570 -8782
70389 311835 412999 -14242 578 -8611
70500 311370 412762 -14212 547 -8262
70903 311407 412904 -14299 540 -7958
71079 310892 412737 -14572 490 -7718
71326 310794 412794 -14857 458 -7584
72162 311808 413453 -14937 400 -7484
73051 312668 413943 -14923 378 -7281
73726 313078 414149 -14885 398 -7032
73978 312684 413819 -14812 391 -6924
73149 310453 412163 -14865 378 -6931
71730 307046 409616 -14958 396 -6981
70111 303181 406741 -14926 478 -7071
68973 300703 405562 -14867 558 -7121
67995 298671 404635 -14919 633 -7012
67069 296981 403813 -15075 779 -6814
66615 296570 403464 -15026 902 -6655
66158 295842 402943 -15026 969 -6559
65685 294864 402184 -15177 1027 -6519
65052 293635 401359 -15217 1040 -6490
64574 292829 400843 -15070 1108 -6340
64265 292297 400517 -15005 1206 -6331
63986 291757 400142 -15024 1294 -6342
63853 291210 399655 -15079 1284 -6298
63692 290331 398881 -15126 1247 -6206
63401 289259 398039 -15144 1232 -6165
62961 287919 397104 -15124 1249 -6190
62526 286561 396113 -15125 1270 -6210
61960 284591 394725 -15197 1271 -6166
61334 282408 393121 -15353 1189 -5883
60715 280478 391663 -15409 1099 -5730
60198 279301 390653 -15486 1022 -5588
59808 278416 389840 -15559 1044 -5537
59489 277576 389124 -15551 1129 -5625
59225 276902 388505 -15522 1174 -5710
58955 276532 388164 -15569 1146 -5669
58592 276095 387780 -15568 1125 -5608
57954 275560 387324 -15500 1141 -5532
57164 274903 386846 -15465 1142 -5415
56402 274337 386455 -15368 1175 -5373
55810 274069 386292 -15299 1241 -5412
55553 274394 386613 -15309 1273 -5525
55670 275396 387379 -15346 1273 -5647
55976 276460 388215 -15384 1232 -5714
56408 277527 389054 -15383 1203 -5724
56955 278851 390064 -15412 1204 -5748
57500 279962 390862 -15449 1201 -5803
58028 280964 391586 -15436 1198 -5805
58508 281837 392230 -15423 1195 -5800
58905 282514 392700 -15393 1182 -5774
59157 282959 393000 -15353 1153 -5661
59261 283206 393170 -15321 1147 -5587
59281 283465 393328 -15320 1141 -5578
59201 283451 393328 -15334 1119 -5613
59077 283404 393300 -15332 1116 -5655
59049 283599 393411 -15382 1077 -5677
59089 283811 393580 -15458 984 -5681
59150 283894 393620 -15485 952 -5708
59268 284143 393790 -15493 987 -5754
59445 284427 393990 -15486 1002 -5713
59601 284592 394092 -15432 1007 -5707
59748 284692 394156 -15421 1002 -5750
59887 284788 394218 -15435 983 -5733
60025 284929 394298 -15431 975 -5662
60220 285258 394530 -15436 963 -5591
60486 285616 394760 -15422 943 -5581
60666 285714 394809 -15417 958 -5586
60793 285734 394805 -15440 962 -5586
60862 285566 394684 -15438 967 -5616
60858 285255 394481 -15418 1001 -5625
60823 284870 394222 -15439 1011 -5671
60699 284299 393806 -15460 1011 -5724
60403 283593 393286 -15473 992 -5662
59751 282463 392457 -15492 963 -5572
58795 281181 391526 -15456 993 -5521
57826 280172 390816 -15427 1008 -5426
57069 279613 390434 -15427 967 -5300
56607 279237 390162 -15429 950 -5280
56416 279124 390082 -15409 989 -5340
56395 278992 389990 -15391 1040 -5425
56495 279093 390038 -15407 1080 -5525
56694 279403 390244 -15441 1079 -5599
56987 279938 390612 -15487 1027 -5605
57258 280133 390707 -15531 969 -5541
57449 280144 390712 -15556 935 -5479
57620 280271 390764 -15560 922 -5383
57698 280177 390644 -15578 901 -5296
57673 280035 390532 -15566 901 -5273
57565 279858 390362 -15529 932 -5282
57428 279776 390292 -15435 979 -5328
57321 279819 390295 -15448 971 -5362
57199 279601 390117 -15458 992 -5448
57084 279393 389982 -15498 1007 -5497
57087 279519 390080 -15535 985 -5445
57191 279795 390257 -15539 955 -5367
57350 280042 390429 -15539 937 -5303
57511 280250 390567 -15554 925 -5254
57659 280337 390604 -15554 930 -5261
57755 280280 390547 -15513 942 -5285
57857 280337 390569 -15504 954 -5319
57928 280214 390493 -15513 974 -5383
57972 280050 390359 -15509 998 -5409
57978 279786 390163 -15507 1003 -5393
58024 279813 390167 -15506 992 -5353
58117 279861 390174 -15496 963 -5303
58149 279689 390031 -15466 959 -5294
58192 279678 390014 -15465 991 -5314
58270 279776 390063 -15487 987 -5294
58344 279841 390062 -15512 971 -5258
58256 279565 389833 -15535 968 -5235
57774 278808 389261 -15565 953 -5210
56974 277827 388566 -15570 942 -5170
56089 276906 387936 -15540 932 -5098
55388 276334 387562 -15531 914 -5047
54986 276030 387377 -15528 927 -5077
54822 275912 387319 -15518 969 -5165
54831 275932 387348 -15531 997 -5264
54947 275999 387404 -15557 978 -5319
55078 275996 387399 -15531 974 -5320
55240 276109 387471 -15505 979 -5305
55418 276285 387561 -15532 940 -5240
55610 276435 387668 -15587 894 -5150
55767 276570 387747 -15592 878 -5098
55874 276661 387791 -15567 877 -5067
55893 276644 387776 -15568 860 -5047
55841 276626 387745 -15569 860 -5073
55724 276571 387713 -15575 870 -5127
55601 276512 387668 -15601 862 -5163
55471 276373 387592 -15603 875 -5179
55406 276394 387618 -15551 936 -5201
55455 276684 387837 -15533 899 -5166
55577 276964 388023 -15522 884 -5127
55693 277050 388071 -15517 885 -5099
55858 277422 388308 -15511 864 -5079
56073 277800 388571 -15490 859 -5094
56258 278046 388735 -15460 890 -5138
56428 278234 388857 -15461 899 -5183
56621 278558 389048 -15485 892 -5215
56804 278729 389158 -15453 936 -5287
56883 278572 389057 -15503 887 -5249
56985 278720 389145 -15578 818 -5186
57104 278773 389151 -15595 789 -5143
57162 278671 389060 -15631 765 -5108
57238 278779 389130 -15666 730 -5077
57371 279036 389292 -15676 731 -5099
57498 279161 389352 -15665 757 -5189
57566 279148 389313 -15658 765 -5233
57588 279108 389240 -15582 834 -5226
57307 278510 388793 -15559 827 -5151
56630 277585 388138 -15520 797 -5075
55818 276789 387599 -15467 809 -5077
55121 276329 387265 -15456 831 -5138
54632 275864 386957 -15503 817 -5237
54403 275674 386838 -15570 788 -5350
54365 275577 386772 -15663 749 -5385
54426 275511 386711 -15717 715 -5345
54591 275713 386848 -15694 720 -5285
54855 276241 387205 -15623 752 -5211
55159 276702 387489 -15564 769 -5134
55470 277144 387777 -15542 772 -5082
55748 277503 388009 -15513 785 -5068
55948 277670 388091 -15530 786 -5096
56015 277607 388022 -15611 770 -5111
56004 277612 387994 -15662 768 -5137
55954 277734 388066 -15642 777 -5189
56027 278328 388507 -15619 792 -5137
56124 278534 388639 -15631 786 -5025
56192 278853 388871 -15601 799 -4961
56370 279364 389216 -15545 833 -4971
56560 279658 389393 -15523 845 -5027
56732 279852 389494 -15540 858 -5066
56937 280160 389698 -15563 861 -5082
57135 280406 389831 -15539 858 -5088
57336 280637 389973 -15512 854 -5085
57535 280871 390123 -15520 844 -5053
57734 281122 390261 -15539 835 -5021
57950 281441 390461 -15579 818 -5000
58190 281833 390693 -15632 796 -4990
58399 282076 390833 -15684 774 -5019
58585 282271 390919 -15735 741 -5036
58781 282597 391115 -15777 721 -5037
59015 283051 391394 -15767 751 -5051
59223 283354 391550 -15742 793 -5058
59397 283666 391738 -15676 823 -5021
59491 283778 391788 -15567 848 -4930
59213 283315 391433 -15471 865 -4832
58476 282279 390683 -15415 876 -4747
57549 281248 389982 -15407 895 -4726
56794 280716 389651 -15401 908 -4799
56351 280483 389493 -15415 913 -4956
56167 280330 389409 -15491 923 -5134
56185 280317 389392 -15578 908 -5242
56317 280394 389412 -15650 871 -5266
56528 280523 389491 -15711 819 -5208
56769 280741 389617 -15753 770 -5078
57060 281125 389852 -15761 733 -4944
57388 281560 390120 -15711 711 -4852
57671 281822 390271 -15407 895 -4726
57828 281829 390235 -15401 908 -4799
57863 281735 390136 -15415 913 -4956
57808 281659 390041 -15491 923 -5134
57696 281547 389926 -15578 908 -5242
57536 281359 389770 -15650 871 -5266
57398 281198 389629 -15711 819 -5208
57328 281174 389620 -15753 770 -5078
57288 281009 389490 -15761 733 -4944
57287 280906 389407 -15711 711 -4852
57333 280827 389331 -15652 764 -4842
57372 280597 389113 -15665 779 -4871
57369 280273 388855 -15668 784 -4894
57386 280016 388646 -15649 782 -4917
57383 279691 388329 -15652 790 -4951
57283 279077 387802 -15661 792 -4967
57096 278589 387482 -15603 805 -4940
57012 278307 387230 -15527 825 -4898
56964 278001 386972 -15487 839 -4871
56929 277788 386793 -15469 882 -4911
56903 277668 386690 -15508 866 -4943
56841 277431 386465 -15569 822 -4955
56523 276801 385964 -15628 798 -4976
55821 275798 385234 -15710 774 -4930
54943 274875 384645 -15785 709 -4830
54116 274070 384143 -15787 652 -4762
53514 273433 383731 -15750 626 -4748
53169 272955 383416 -15746 614 -4752
53045 272702 383230 -15750 636 -4779
53029 272562 383117 -15708 672 -4828
52998 272238 382914 -15665 690 -4848
53026 272091 382806 -15633 686 -4812
53152 272231 382859 -15593 670 -4766
53352 272494 382995 -15590 664 -4773
53506 272489 382940 -15578 673 -4820
53561 272398 382822 -15604 672 -4872
53499 272065 382538 -15674 656 -4894
53365 271775 382276 -15716 631 -4879
53187 271501 382070 -15745 602 -4857
53011 271331 381941 -15756 595 -4844
52842 271079 381738 -15767 588 -4783
52699 270827 381534 -15772 581 -4718
52610 270585 381350 -15735 590 -4689
52586 270494 381250 -15698 590 -4666
52615 270466 381177 -15694 586 -4654
52673 270543 381206 -15690 586 -4665
52770 270666 381263 -15684 596 -4688
52871 270776 381323 -15696 606 -4714
52965 270807 381311 -15716 604 -4738
53048 270846 381329 -15688 631 -4755
53122 270844 381287 -15689 615 -4705
53204 270913 381305 -15688 604 -4658
53320 271100 381402 -15695 597 -4616
53418 271153 381410 -15706 584 -4591
53467 271078 381289 -15729 556 -4558
53340 270677 380956 -15753 535 -4541
52876 269858 380315 -15758 540 -4566
52164 268824 379558 -15762 555 -4628
51453 267982 378951 -15672 601 -4753
50891 267281 378473 -15632 627 -4784
50477 266514 377917 -15633 651 -4773
50265 266251 377699 -15649 637 -4711
50279 266282 377681 -15662 620 -4625
50339 266125 377551 -15677 608 -4525
50453 266225 377587 -15704 570 -4439
50636 266569 377777 -15727 526 -4418
50846 266800 377873 -15742 513 -4452
51009 266904 377934 -15841 494 -4613
51103 266859 377848 -15821 526 -4688
51113 266703 377707 -15795 555 -4710
51039 266485 377498 -15780 552 -4648
50945 266444 377427 -15721 562 -4582
50847 266395 377354 -15652 578 -4525
50770 266370 377297 -15617 583 -4460
50714 266256 377208 -15612 578 -4421
50709 266249 377201 -15616 578 -4428
50712 266097 377081 -15650 571 -4475
50755 266170 377118 -15695 561 -4539
50872 266472 377314 -15727 562 -4607
51004 266642 377397 -15744 561 -4625
51108 266663 377405 -15777 547 -4589
51205 266756 377458 -15779 525 -4548
51322 266959 377579 -15755 506 -4493
51434 267080 377653 -15758 480 -4425
51549 267207 377733 -15760 460 -4386
51660 267333 377806 -15747 468 -4420
51752 267396 377820 -15745 482 -4462
51856 267528 377885 -15759 485 -4503
51979 267784 378036 -15771 478 -4543
52028 267683 377937 -15765 480 -4561
51789 267089 377470 -15741 496 -4584
51242 266264 376890 -15721 507 -4594
50604 265635 376452 -15706 514 -4614
50050 265068 376066 -15723 509 -4611
49688 264656 375819 -15758 499 -4579
49547 264524 375745 -15774 485 -4553
49582 264656 375840 -15781 461 -4504
49734 264921 376028 -15770 428 -4401
49920 265192 376215 -15765 413 -4356
50124 265432 376350 -15760 411 -4378
50322 265649 376501 -15797 415 -4463
50527 265842 376618 -15842 423 -4561
50685 265970 376679 -15863 432 -4622
50775 266026 376682 -15867 436 -4619
50761 265907 376547 -15839 445 -4567
50667 265764 376453 -15758 457 -4485
50538 265602 376319 -15601 527 -4401
50418 265509 376247 -15643 511 -4421
50370 265558 376282 -15702 515 -4452
50382 265656 376359 -15766 493 -4429
50430 265743 376433 -15817 455 -4389
50511 265884 376542 -15834 442 -4374
50631 266084 376701 -15842 433 -4342
50757 266213 376787 -15820 434 -4310
50872 266272 376834 -15768 441 -4288
50988 266390 376889 -15680 460 -4309
51107 266513 376968 -15686 476 -4336
51222 266642 377065 -15718 470 -4332
51353 266917 377250 -15767 443 -4334
51512 267298 377515 -15834 395 -4348
51688 267693 377745 -15896 352 -4353
51834 268015 377906 -15952 323 -4325
51929 268062 377907 -15971 299 -4269
51827 267815 377701 -15925 300 -4228
51444 267230 377265 -15855 330 -4234
50856 266478 376721 -15789 390 -4314
50257 265868 376300 -15748 444 -4387
49840 265658 376122 -15754 449 -4353
49705 265808 376201 -15755 418 -4258
49763 266059 376357 -15739 391 -4175
49936 266371 376531 -15747 380 -4116
50146 266613 376673 -15771 380 -4104
50364 266876 376833 -15766 394 -4151
50633 267381 377149 -15766 409 -4207
50957 268035 377593 -15785 412 -4251
51246 268473 377827 -15791 414 -4323
51462 268851 378048 -15830 402 -4324
51583 269127 378199 -15873 366 -4243
51599 269316 378298 -15850 342 -4189
51564 269457 378362 -15783 346 -4165
51511 269482 378374 -15764 352 -4152
51486 269527 378393 -15797 339 -4140
51528 269719 378516 -15811 332 -4142
51662 270111 378759 -15810 331 -4134
51845 270507 379029 -15820 314 -4125
52043 270791 379221 -15811 304 -4175
52201 270904 379259 -15827 286 -4203
52354 271079 379342 -15872 262 -4171
52513 271297 379441 -15882 262 -4148
52645 271457 379519 -15855 278 -4134
52754 271493 379495 -15848 286 -4134
52834 271459 379446 -15870 266 -4143
52923 271515 379462 -15880 239 -4147
53047 271695 379557 -15892 216 -4145
53180 271850 379626 -15894 202 -4149
53173 271596 379398 -15866 226 -4186
52894 271095 378976 -15878 217 -4137
52293 270378 378476 -15872 199 -4098
51558 269441 377798 -15857 185 -4087
50867 268544 377169 -15871 166 -4079
50468 268100 376856 -15902 148 -4046
50302 267789 376656 -15895 138 -4013
50295 267688 376579 -15884 128 -3976
50423 267894 376708 -15878 115 -3964
50605 268179 376875 -15880 136 -4086
50805 268414 377017 -15934 131 -4104
51016 268667 377167 -15969 117 -4098
51233 268898 377289 -15966 110 -4090
51427 269144 377428 -15951 107 -4052
51591 269489 377607 -15912 111 -4019
51686 269652 377670 -15870 125 -3999
51647 269487 377527 -15847 138 -3975
51521 269240 377325 -15826 148 -3972
51401 269131 377210 -15789 181 -4015
51338 269104 377185 -15830 168 -4034
51314 269033 377122 -15889 138 -4026
51363 269165 377201 -15922 118 -4028
51488 269462 377385 -15941 98 -4026
51642 269691 377515 -15974 73 -3992
51773 269804 377564 -15974 60 -3951
51395 269240 376332 -15933 54 -3931
51491 269242 376269 -15880 73 -3900
51489 269141 376153 -15843 82 -3868
51407 269053 376043 -15772 114 -3856
51275 268872 375878 -15800 104 -3886
51124 268650 375665 -15849 84 -3916
51016 268556 375550 -15899 63 -3941
51010 268642 375576 -15949 44 -3957
51052 268664 375558 -15977 26 -3957
51097 268590 375483 -15993 10 -3927
51180 268681 375502 -15980 -5 -3878
51302 268831 375579 -15974 -22 -3824
51437 268998 375644 -15901 -7 -3815
51557 269152 375729 -15879 25 -3874
51675 269358 375837 -15876 54 -3919
51821 269601 375960 -15886 55 -3940
51948 269709 376015 -15891 56 -3953
52044 269728 375993 -15902 62 -3973
52130 269751 375957 -15921 55 -3977
52237 269905 376028 -15940 32 -3944
52324 269952 376023 -15950 4 -3913
52298 269774 375862 -15952 -5 -3894
51977 269198 375407 -15935 -11 -3872
51336 268334 374806 -15931 -27 -3834
50604 267530 374265 -15937 -40 -3795
50004 266916 373883 -15930 -36 -3775
49660 266630 373698 -15936 -32 -3792
49530 266453 373563 -15944 -27 -3848
49546 266379 373504 -15948 -10 -3917
49661 266536 373579 -15966 9 -3961
49808 266688 373617 -15960 20 -3956
49956 266808 373602 -15911 30 -3934
50094 266888 373487 -15860 42 -3905
50181 266759 373178 -15867 34 -3862
50279 266627 372983 -15875 26 -3840
50318 266498 372826 -15867 26 -3841
50287 266405 372681 -15896 11 -3841
50186 266272 372505 -15935 -9 -3834
50043 266064 372325 -15955 -13 -3846
49912 265952 372196 -15961 -6 -3876
50500 266361 371853 -15958 -13 -3860
50595 266441 371854 -15986 -16 -3843
50678 266510 371888 -15964 -28 -3804
50720 266471 371805 -15970 -29 -3792
50736 266490 371697 -15956 -5 -3792
50766 266595 371637 -15919 16 -3791
50802 266585 371552 -15890 34 -3801
50830 266559 371484 -15897 53 -3822
50716 266348 371284 -15932 41 -3817
50294 265804 370870 -15949 13 -3779
49683 265171 370445 -15940 -1 -3722
49069 264444 369964 -15870 -34 -3655
48639 263936 369669 -15928 -41 -3711
48449 263756 369582 -16003 -51 -3796
48458 263779 369610 -16072 -77 -3848
48592 264056 369803 -16098 -100 -3826
48778 264295 369972 -16084 -105 -3736
49002 264780 370321 -16038 -94 -3633
49258 265208 370593 -15959 -62 -3580
49488 265485 370786 -15918 -20 -3594
49685 265744 370945 -15850 50 -3671
49832 265943 371080 -15831 53 -3714
49869 265856 370996 -15865 43 -3729
49806 265729 370898 -15923 38 -3730
49721 265701 370886 -15949 39 -3745
49638 265684 370884 -15951 32 -3746
49550 265562 370826 -15959 9 -3699
49518 265618 370886 -15943 -12 -3643
49568 265812 370984 -15928 -21 -3616
49654 265965 371086 -15940 -28 -3604
49764 266076 371140 -15940 -20 -3615
49863 266132 371139 -15965 -19 -3637
49957 266139 371134 -15999 -30 -3661
50075 266307 371269 -16002 -32 -3665
50203 266480 371358 -15996 -27 -3650
50337 266616 371409 -16002 -23 -3652
50445 266732 371491 -16005 -26 -3660
50572 266934 371615 -16002 -32 -3649
50690 267139 371747 -15983 -42 -3623
50817 267329 371840 -15957 -48 -3631
50945 267530 371927 -15950 -36 -3678
51067 267700 372057 -15954 -16 -3727
51135 267762 372087 -15963 -8 -3733
50982 267434 371828 -15951 -13 -3693
50504 266835 371408 -15928 -29 -3642
49852 266152 371000 -15911 -38 -3600
49250 265538 370643 -15925 -45 -3592
48840 265096 370380 -15976 -61 -3633
48699 265063 370429 -16034 -74 -3685
48786 265403 370683 -16059 -97 -3695
48998 265842 370973 -16017 -119 -3650
49208 266002 371062 -15985 -118 -3612
49380 266109 371112 -16010 -122 -3583
49600 266522 371397 -16017 -119 -3552
49861 266903 371636 -15995 -99 -3548
50081 267163 371801 -15973 -85 -3544
50239 267387 371910 -15946 -65 -3550
50342 267607 372058 -15923 -47 -3581
50342 267622 372029 -15924 -47 -3620
50242 267393 371872 -15952 -66 -3649
50114 267259 371774 -16017 -119 -3650
50062 267424 371907 -15985 -118 -3612
50129 267866 372191 -16010 -122 -3583
50323 268558 372621 -16017 -119 -3552
50625 269528 373226 -15995 -99 -3548
50974 270706 373965 -15973 -85 -3544
51334 271786 374590 -15946 -65 -3550
51706 272695 375140 -15923 -47 -3581
52129 273761 375877 -15924 -47 -3620
52609 275215 376965 -15952 -66 -3649
53187 277089 378336 -15958 -125 -3597
54039 280393 380791 -15984 -133 -3599
55363 285037 384225 -16004 -146 -3575
56638 288210 386455 -16004 -157 -3548
57567 290044 387665 -15975 -152 -3575
58102 291081 388385 -15942 -134 -3662
58234 291677 388909 -15938 -130 -3777
57593 291039 388491 -15954 -140 -3853
56197 289203 387226 -15974 -168 -3868
54691 287525 386126 -15975 -203 -3851
53599 286690 385551 -15972 -238 -3874
52986 286540 385568 -15937 -236 -3977
52077 283677 382743 -15793 -170 -4209
50247 276455 376177 -15762 -107 -4489
48135 265982 366371 -15847 -96 -4708
46211 255270 355597 -15856 -104 -4887
44407 244321 343590 -15826 -107 -4981
42749 234081 331777 -15761 -125 -5016
41277 223426 318950 -15699 -115 -5110
40199 207748 299457 -15609 -78 -5159
36723 183242 265924 -15483 13 -5212
32017 157016 229413 -15468 143 -5310
28267 137175 201987 -15583 220 -5391
26645 126366 186047 -15613 282 -5546
26186 118026 175705 -15447 404 -5781
30409 129037 192786 -15248 654 -6036
34480 132770 203172 -15170 895 -6239
34136 110701 175464 -15210 1065 -6343
29625 91375 151672 -15323 1407 -6339
25684 77522 132118 -15131 1610 -6441
22113 66029 114497 -14701 1508 -6580
19377 57532 100290 -13739 1875 -6413
17747 52549 91424 -13546 2500 -6155
17108 50517 87771 -14481 3540 -5174
17209 50933 88101 -14899 4688 -4079
17823 53062 91150 -14940 4988 -3574
19116 57534 97993 -15039 4529 -2598
20554 62733 105378 -15831 2529 -1215
21744 67437 111148 -16533 633 -581
20471 63808 103731 -16718 383 -728
19587 62610 101238 -16794 771 -831
28473 91263 148751 -16588 1060 -867
26763 85281 137231 -16334 1201 -898
28035 90274 145030 -16193 1443 -953
33024 107368 170131 -16142 1604 -1120
40406 131870 205353 -16130 1620 -1429
45632 148342 230142 -16163 1731 -1691
44242 142311 219768 -16175 1836 -2006
27693 88413 138707 -16101 2091 -2320
25283 81217 129511 -16131 2277 -2360
27472 88727 140605 -14911 2475 -4827
30071 97358 153305 -14578 2130 -4636
31296 101614 159421 -16264 -771 -1539
34688 113193 176787 -16783 -2851 -1116
40185 131245 203348 -16429 -2515 -1339
46650 152837 234692 -15742 -1796 -2331
55067 180858 275837 -15127 -1078 -3265
60706 204074 306840 -14598 -380 -2947
62798 221257 323973 -14860 -439 -3218
62654 231690 332160 -15561 -1003 -3798
61687 235242 334817 -15030 -559 -5147
61135 235544 334920 -14943 -496 -5878
61023 234829 334396 -15129 -690 -6418
61101 234078 334251 -15151 -711 -6732
61581 232696 333685 -15029 -631 -7268
62344 230023 331209 -14496 -477 -8278
62847 222287 322391 -13805 -176 -9098
61479 207743 304859 -13178 209 -10108
58101 191319 282584 -12550 561 -11222
48899 158407 235566 -11822 952 -12316
32174 103143 156571 -11683 1150 -12557
26026 83436 129877 -11613 1358 -12593
25404 81211 128013 -11582 1574 -12410
25489 80931 128474 -11588 1732 -12071
24772 77971 124203 -11403 2152 -11734
22760 70630 113432 -11698 1823 -11344
22022 68274 110138 -12624 1166 -10432
22251 68979 111155 -12855 1160 -9497
22164 68515 110550 -13162 1007 -8908
21587 66247 107548 -14315 462 -8094
20635 62662 102855 -15211 -167 -7128
20346 61404 101524 -15472 -210 -6176
20476 61469 101798 -15451 83 -5350
20168 60226 100271 -15313 174 -4725
20322 60638 101198 -15364 49 -4319
20269 60425 100918 -15540 -2 -4031
19363 57647 96724 -15548 -14 -3682
18068 54199 91296 -15467 -71 -3295
17224 52626 88453 -15391 -106 -2889
16591 50850 85218 -15426 -135 -2647
15549 47774 79803 -15514 -106 -2483
14398 44342 73724 -15597 -53 -2337
13119 40185 66512 -15736 -37 -2368
11762 35665 58698 -15862 -18 -2338
10541 31572 51664 -15884 -46 -2277
9606 28434 46111 -15919 -130 -2303
8993 26331 42422 -15997 -246 -2410
8875 26020 42055 -16070 -389 -2683
8885 26102 42357 -16110 -395 -2541
8910 26202 42719 -16114 -405 -1754
8898 26157 42829 -16126 -413 -1519
8987 26497 43601 -16124 -362 -1405
9394 28056 46373 -16188 -320 -1466
10113 30669 50827 -16378 -395 -1519
10865 33386 55507 -16674 -542 -1557
12119 37842 63179 -16801 -564 -1680
14421 45957 76666 -16730 -514 -1847
17770 57416 95185 -16666 -527 -1890
22559 73516 120415 -16455 -695 -1791
30480 100695 160628 -16361 -717 -1825
40348 136169 211675 -16278 -715 -1872
45913 158492 244406 -16219 -707 -1938
47409 167550 260123 -16257 -748 -2123
48328 176872 276956 -16293 -831 -2415
49019 185760 293245 -16228 -945 -2690
49716 195888 309033 -16191 -1168 -2814
50427 207125 322392 -16200 -1413 -2755
51088 219054 334895 -16172 -1669 -1948
51957 234816 349920 -16167 -1842 -2020
52969 251407 363978 -16240 -2130 -2478
54015 264270 373839 -16277 -2291 -2906
54998 271748 379041 -16265 -2375 -3310
55867 275273 381172 -16244 -2410 -3680
56523 278160 382960 -16218 -2440 -3968
57076 280961 384750 -16121 -2416 -4316
57548 283132 386037 -15931 -2325 -4699
57906 284352 386800 -15583 -2291 -4918
58112 284440 386654 -15077 -2166 -5032
58025 284167 386296 -14676 -2030 -5137
57885 284274 386322 -14487 -2020 -5300
57643 284310 386317 -14336 -1947 -5481
57311 285299 386932 -14127 -1845 -5476
57227 286705 387833 -14022 -1826 -5351
57602 288483 389059 -14053 -1827 -5340
58644 291306 391024 -14012 -1839 -5318
59794 292974 391947 -13791 -1930 -5112
60343 292497 391174 -13468 -2024 -4961
60213 291989 390642 -13275 -2247 -5036
60319 293672 392042 -13471 -2848 -4882
60915 295902 393957 -13861 -3685 -4509
61529 297074 394848 -14140 -4367 -4423
61790 297301 394991 -14380 -4893 -4429
60871 294653 392709 -14475 -5447 -4282
58413 290330 389763 -14467 -6014 -4116
55684 290162 391001 -14712 -6753 -3772
54376 295520 398088 -15186 -7557 -3130
54339 299881 403716 -15313 -8059 -2548
54353 301101 405126 -15054 -8326 -2218
54223 300724 404622 -14769 -8485 -1896
53597 299140 403545 -14534 -8698 -1339
