2025-08-20 01:05:14    绿光---红外光---红光---X轴---Y轴---Z轴
402 3592 827 -15680 1346 -5340
409 3600 825 -15678 1348 -5341
409 3603 826 -15679 1363 -5353
412 3609 827 -15681 1373 -5360
410 3615 829 -15673 1363 -5354
421 3619 819 -15670 1356 -5341
417 3622 825 -15658 1367 -5329
418 3626 822 -15651 1376 -5339
417 3622 823 -15665 1363 -5332
407 3623 821 -15680 1343 -5311
404 3613 824 -15682 1348 -5311
401 3616 822 -15684 1358 -5307
402 3618 823 -15687 1351 -5317
404 3624 818 -15673 1345 -5318
409 3624 828 -15672 1345 -5301
396 3623 822 -15680 1351 -5292
405 3628 821 -15655 1381 -5301
408 3626 820 -15668 1371 -5279
405 3618 822 -15682 1364 -5278
407 3631 820 -15693 1362 -5280
409 3624 821 -15696 1356 -5276
400 3625 819 -15691 1354 -5272
406 3626 817 -15693 1354 -5274
398 3625 818 -15693 1361 -5284
411 3627 818 -15690 1360 -5293
406 3631 819 -15670 1364 -5326
407 3630 818 -15693 1349 -5304
410 3629 820 -15698 1342 -5295
406 3630 818 -15698 1351 -5292
404 3629 823 -15696 1356 -5291
415 3635 819 -15699 1358 -5280
409 3632 823 -15701 1343 -5259
409 3631 819 -15699 1332 -5261
407 3634 825 -15703 1342 -5281
407 3643 821 -15694 1352 -5299
408 3633 822 -15673 1355 -5313
409 3640 824 -15679 1354 -5314
409 3641 826 -15704 1359 -5311
408 3649 825 -15710 1354 -5314
416 3645 827 -15707 1335 -5294
402 3645 827 -15699 1331 -5285
411 3647 827 -15691 1333 -5295
409 3650 829 -15684 1337 -5293
409 3639 826 -15696 1335 -5287
408 3648 824 -15712 1343 -5294
412 3639 824 -15692 1363 -5315
401 3639 822 -15678 1365 -5321
406 3645 822 -15686 1360 -5304
402 3639 822 -15684 1350 -5300
412 3640 822 -15693 1346 -5297
408 3642 823 -15696 1351 -5299
409 3643 822 -15687 1343 -5300
413 3644 825 -15691 1332 -5298
409 3646 824 -15699 1333 -5296
404 3643 828 -15703 1342 -5285
413 3645 822 -15680 1353 -5284
410 3645 823 -15663 1361 -5295
410 3647 823 -15671 1355 -5300
408 3646 827 -15678 1341 -5298
408 3652 826 -15680 1337 -5280
410 3640 826 -15683 1336 -5260
406 3647 827 -15698 1337 -5263
409 3648 825 -15703 1336 -5279
408 3652 820 -15708 1339 -5277
414 3651 831 -15709 1346 -5276
401 3648 823 -15678 1350 -5301
408 3651 825 -15678 1339 -5286
411 3649 825 -15684 1350 -5274
408 3647 828 -15692 1348 -5275
408 3656 831 -15711 1333 -5277
411 3651 831 -15720 1334 -5277
404 3650 829 -15721 1349 -5281
409 3652 831 -15722 1349 -5284
402 3652 838 -15714 1346 -5278
415 3651 828 -15694 1350 -5274
410 3653 827 -15677 1350 -5281
411 3650 824 -15681 1347 -5283
411 3653 823 -15700 1337 -5276
410 3652 823 -15706 1338 -5273
405 3651 828 -15692 1342 -5281
415 3652 816 -15687 1336 -5279
409 3652 826 -15692 1327 -5273
410 3651 827 -15697 1321 -5278
409 3654 828 -15703 1323 -5281
410 3660 827 -15708 1334 -5288
410 3649 824 -15688 1337 -5286
411 3656 824 -15677 1332 -5281
410 3651 826 -15690 1337 -5283
409 3659 823 -15698 1337 -5282
420 3653 826 -15704 1337 -5274
405 3655 826 -15704 1349 -5280
411 3655 826 -15695 1356 -5292
411 3657 824 -15691 1348 -5280
410 3649 827 -15694 1351 -5268
410 3662 828 -15699 1355 -5270
414 3656 829 -15673 1343 -5291
403 3656 828 -15681 1340 -5297
410 3659 824 -15688 1339 -5301
405 3657 824 -15693 1338 -5299
416 3657 824 -15695 1345 -5293
409 3659 826 -15699 1346 -5290
410 3655 823 -15696 1337 -5291
415 3658 827 -15697 1340 -5291
409 3657 826 -15700 1345 -5292
404 3656 830 -15688 1339 -5297
414 3658 821 -15673 1335 -5299
408 3657 826 -15671 1327 -5293
410 3658 822 -15675 1321 -5285
407 3658 827 -15680 1322 -5271
408 3664 825 -15695 1326 -5265
407 3654 822 -15706 1330 -5266
408 3659 822 -15711 1334 -5268
409 3656 822 -15705 1347 -5280
410 3664 822 -15700 1349 -5280
411 3659 823 -15689 1346 -5276
401 3661 823 -15668 1348 -5286
410 3659 824 -15669 1336 -5295
407 3661 829 -15680 1337 -5293
411 3657 824 -15685 1342 -5277
411 3667 824 -15687 1336 -5259
414 3661 825 -15685 1328 -5260
406 3661 825 -15685 1327 -5272
411 3661 824 -15690 1327 -5268
402 3664 826 -15693 1324 -5260
413 3662 823 -15698 1327 -5267
408 3663 823 -15686 1339 -5288
407 3662 824 -15675 1349 -5291
407 3663 823 -15688 1349 -5286
404 3661 823 -15698 1342 -5278
402 3661 827 -15696 1343 -5268
412 3665 818 -15694 1340 -5268
409 3662 825 -15702 1315 -5269
407 3663 822 -15706 1316 -5269
407 3663 827 -15706 1334 -5257
408 3674 823 -15707 1333 -5263
406 3656 822 -15677 1345 -5284
411 3664 822 -15686 1342 -5268
407 3658 824 -15682 1337 -5265
405 3667 823 -15682 1332 -5274
408 3662 825 -15690 1332 -5278
399 3663 823 -15701 1331 -5274
404 3663 824 -15705 1331 -5269
402 3664 827 -15704 1328 -5270
403 3656 823 -15700 1326 -5267
405 3668 824 -15679 1337 -5269
412 3666 821 -15671 1345 -5283
415 3670 823 -15685 1338 -5280
416 3670 823 -15685 1328 -5265
416 3675 830 -15690 1326 -5263
423 3675 817 -15699 1332 -5260
419 3675 824 -15694 1335 -5255
419 3676 821 -15695 1331 -5261
414 3672 825 -15691 1332 -5263
406 3672 809 -15692 1341 -5260
396 3501 789 -15667 1339 -5282
347 2121 717 -15573 1243 -5304
302 1008 695 -15908 1211 -4990
287 797 665 -16094 -48 -4755
315 1263 686 -15054 997 -6009
405 3527 770 -12360 3424 -9668
473 4824 834 -10384 3781 -11726
400 2967 677 -12244 2347 -8917
311 1144 599 -15308 549 -4491
273 654 576 -16634 621 -2280
277 730 561 -15811 1276 -3216
301 1834 588 -12776 2088 -7590
365 5134 653 -9571 2909 -12669
485 11842 821 -9441 3412 -12438
587 16787 900 -11996 2431 -8630
486 11942 764 -14234 1332 -4932
380 5674 642 -15783 768 -923
323 2820 585 -16695 -43 1831
314 2256 574 -16658 -288 1314
327 2582 588 -15867 677 -1824
357 3584 613 -14906 1590 -5038
385 4681 655 -14583 1662 -6668
390 4854 654 -14802 1642 -6678
372 4166 639 -15380 1483 -5502
352 3470 609 -15974 1196 -4109
349 3312 605 -16233 1059 -3544
359 3746 622 -16107 1139 -3959
373 4215 636 -15706 1340 -4893
372 4175 630 -15442 1464 -5502
367 3808 627 -15616 1394 -5197
353 3638 617 -16041 1179 -4232
361 3767 621 -15918 1246 -4534
364 3961 627 -15763 1329 -4913
370 3977 631 -15769 1329 -4903
366 3861 625 -15878 1268 -4653
361 3784 623 -15936 1234 -4499
363 3839 622 -15910 1261 -4539
365 3919 627 -15853 1296 -4686
360 3902 630 -15842 1301 -4711
368 3847 618 -15882 1288 -4602
364 3852 623 -15895 1275 -4570
364 3890 622 -15870 1273 -4619
366 3895 624 -15851 1284 -4643
364 3878 625 -15862 1286 -4607
363 3864 626 -15879 1282 -4562
365 3880 621 -15874 1273 -4579
364 3895 626 -15872 1268 -4606
364 3893 623 -15876 1270 -4610
366 3879 629 -15884 1264 -4597
361 3886 625 -15887 1257 -4588
365 3895 625 -15866 1267 -4620
366 3896 621 -15856 1280 -4642
366 3889 625 -15862 1277 -4616
364 3900 624 -15873 1278 -4586
374 3899 625 -15875 1279 -4579
360 3898 626 -15873 1281 -4581
365 3898 625 -15883 1285 -4573
361 3900 624 -15887 1282 -4575
370 3904 626 -15878 1283 -4592
365 3906 626 -15877 1279 -4605
366 3909 628 -15866 1274 -4625
364 3908 627 -15852 1273 -4628
367 3911 625 -15866 1264 -4604
361 3906 628 -15873 1260 -4597
371 3910 622 -15877 1263 -4593
366 3912 628 -15881 1274 -4586
366 3912 627 -15885 1268 -4591
368 3914 630 -15883 1249 -4586
365 3915 628 -15886 1247 -4573
366 3913 633 -15895 1249 -4563
365 3918 629 -15855 1268 -4639
366 3919 630 -15864 1269 -4613
365 3919 624 -15874 1261 -4584
371 3919 633 -15877 1255 -4567
360 3921 627 -15877 1260 -4562
365 3922 626 -15877 1259 -4570
367 3922 624 -15879 1251 -4582
368 3919 625 -15880 1241 -4575
365 3928 625 -15880 1241 -4556
369 3925 624 -15871 1281 -4607
361 3927 625 -15872 1285 -4598
366 3925 626 -15877 1272 -4584
361 3928 627 -15874 1260 -4580
370 3929 626 -15876 1256 -4584
367 3931 628 -15886 1255 -4586
366 3932 627 -15884 1258 -4583
370 3933 627 -15886 1263 -4571
367 3932 627 -15893 1255 -4559
363 3930 629 -15885 1255 -4565
371 3935 623 -15865 1274 -4592
367 3935 627 -15859 1277 -4597
367 3937 627 -15865 1264 -4582
366 3938 630 -15875 1265 -4573
367 3946 629 -15887 1266 -4564
368 3935 627 -15892 1261 -4552
368 3941 628 -15894 1261 -4548
368 3940 631 -15900 1258 -4554
367 3947 629 -15897 1256 -4562
375 3945 627 -15892 1263 -4569
363 3944 628 -15873 1266 -4585
367 3944 627 -15861 1260 -4589
368 3946 628 -15875 1246 -4572
366 3940 628 -15883 1247 -4565
367 3954 629 -15884 1255 -4560
372 3950 628 -15879 1250 -4565
362 3952 628 -15886 1258 -4564
367 3952 629 -15890 1264 -4558
364 3952 628 -15885 1259 -4559
371 3951 628 -15884 1261 -4558
368 3954 629 -15857 1281 -4603
368 3953 627 -15871 1278 -4575
372 3954 628 -15887 1264 -4558
368 3955 627 -15886 1250 -4547
363 3954 631 -15886 1249 -4545
373 3957 623 -15879 1252 -4555
368 3958 628 -15873 1263 -4556
369 3957 626 -15873 1266 -4545
367 3960 631 -15879 1255 -4538
366 3967 630 -15872 1272 -4587
366 3954 629 -15879 1285 -4569
370 3961 628 -15875 1285 -4555
370 3958 629 -15883 1276 -4549
371 3967 628 -15884 1267 -4549
375 3963 629 -15885 1258 -4549
367 3964 628 -15891 1256 -4549
371 3963 629 -15897 1262 -4542
367 3965 636 -15898 1263 -4541
368 3961 627 -15893 1264 -4564
367 3972 629 -15885 1269 -4588
369 3967 629 -15887 1259 -4584
366 3968 629 -15898 1252 -4563
365 3966 629 -15891 1259 -4556
362 3970 632 -15887 1261 -4558
373 3971 624 -15894 1254 -4553
368 3969 629 -15898 1257 -4542
368 3972 628 -15898 1261 -4536
366 3971 632 -15889 1261 -4540
367 3981 629 -15885 1260 -4547
366 3967 630 -15876 1269 -4582
369 3973 630 -15874 1278 -4590
367 3974 630 -15885 1265 -4566
368 3974 623 -15894 1257 -4557
373 3974 634 -15898 1266 -4545
367 3978 630 -15898 1274 -4540
366 3968 630 -15904 1269 -4538
366 3976 631 -15902 1254 -4538
369 3973 630 -15898 1249 -4540
369 3984 628 -15896 1250 -4542
370 3978 631 -15867 1261 -4578
364 3979 630 -15885 1263 -4559
371 3982 629 -15896 1259 -4543
372 3983 629 -15898 1251 -4539
372 3979 628 -15900 1258 -4544
372 3989 631 -15901 1262 -4552
373 3983 629 -15895 1248 -4552
368 3982 630 -15884 1239 -4553
369 3981 631 -15884 1241 -4552
363 3983 631 -15886 1254 -4565
373 3986 626 -15886 1266 -4576
367 3982 629 -15892 1268 -4566
366 3985 630 -15892 1266 -4549
363 3986 630 -15894 1266 -4536
369 3991 630 -15905 1266 -4538
366 3981 631 -15914 1266 -4531
368 3987 633 -15911 1261 -4521
368 3987 629 -15900 1259 -4519
369 3989 626 -15896 1260 -4517
366 3989 634 -15895 1264 -4533
368 3997 630 -15883 1266 -4568
368 3985 628 -15884 1258 -4566
369 3989 629 -15892 1257 -4534
369 3989 632 -15885 1259 -4532
372 3996 628 -15880 1254 -4533
376 3989 630 -15881 1257 -4528
362 3992 629 -15888 1257 -4536
369 3994 631 -15891 1253 -4545
370 3997 632 -15887 1250 -4542
367 3990 633 -15888 1259 -4540
369 4002 631 -15890 1281 -4561
373 3998 633 -15889 1283 -4559
365 3999 632 -15895 1271 -4537
370 3998 631 -15907 1262 -4530
363 3996 630 -15910 1254 -4530
374 3995 629 -15908 1248 -4535
368 3997 630 -15915 1244 -4534
369 3995 627 -15910 1237 -4535
369 3996 629 -15873 1275 -4577
368 4000 629 -15891 1277 -4562
366 3994 631 -15907 1269 -4553
369 3998 632 -15903 1267 -4543
369 4000 630 -15891 1264 -4525
368 4000 625 -15884 1253 -4525
369 4001 635 -15882 1250 -4534
369 4004 629 -15889 1247 -4534
370 3996 629 -15896 1244 -4526
370 4001 629 -15889 1252 -4525
370 3997 630 -15870 1271 -4545
369 4007 629 -15869 1274 -4548
373 4003 631 -15883 1269 -4531
365 4004 631 -15883 1268 -4514
369 4010 630 -15881 1255 -4502
367 4008 633 -15891 1255 -4504
370 4007 629 -15893 1253 -4517
369 4008 629 -15888 1252 -4523
367 4006 629 -15891 1246 -4522
367 4006 631 -15887 1247 -4535
368 4013 626 -15883 1262 -4548
377 4010 629 -15869 1272 -4554
363 4011 628 -15874 1258 -4536
369 4011 628 -15877 1246 -4525
363 4011 631 -15874 1241 -4521
375 4010 628 -15878 1247 -4520
369 4013 628 -15885 1250 -4516
369 4011 629 -15887 1252 -4519
370 4013 629 -15889 1258 -4517
370 4012 630 -15889 1255 -4517
365 4011 633 -15886 1283 -4562
373 4014 627 -15885 1263 -4552
368 4015 629 -15884 1252 -4543
368 4015 627 -15883 1265 -4535
368 4015 634 -15890 1277 -4528
370 4020 631 -15899 1270 -4515
369 4010 631 -15897 1262 -4506
370 4017 628 -15892 1260 -4507
369 4011 630 -15890 1260 -4510
369 4022 631 -15880 1263 -4526
372 4018 637 -15872 1265 -4551
363 4018 634 -15882 1267 -4544
369 4020 630 -15893 1271 -4522
367 4020 633 -15899 1272 -4519
372 4018 625 -15900 1261 -4524
371 4021 630 -15897 1240 -4518
370 4021 632 -15893 1230 -4511
369 4021 630 -15893 1240 -4509
370 4027 632 -15896 1252 -4504
369 4023 636 -15889 1259 -4513
370 4023 628 -15876 1265 -4536
370 4021 632 -15878 1271 -4536
369 4025 627 -15888 1278 -4517
370 4024 638 -15887 1268 -4516
366 4028 632 -15891 1261 -4518
369 4024 630 -15902 1259 -4513
370 4025 630 -15903 1253 -4512
370 4023 630 -15907 1238 -4522
371 4029 630 -15906 1220 -4536
374 4026 630 -15898 1225 -4541
363 4025 629 -15876 1265 -4536
369 4025 631 -15878 1271 -4536
363 4025 634 -15888 1278 -4517
375 4029 630 -15887 1268 -4516
368 4028 631 -15891 1261 -4518
368 4028 630 -15902 1259 -4513
368 4027 631 -15903 1253 -4512
371 4027 632 -15907 1238 -4522
367 4027 635 -15906 1220 -4536
376 4028 627 -15898 1225 -4541
370 4028 632 -15876 1259 -4587
369 4029 630 -15881 1252 -4549
367 4030 634 -15882 1241 -4545
366 4039 632 -15890 1240 -4544
368 4026 630 -15901 1241 -4529
368 4031 630 -15904 1236 -4522
366 4028 632 -15896 1230 -4521
367 4036 631 -15899 1229 -4526
371 4033 633 -15904 1241 -4526
364 4034 631 -15898 1251 -4530
368 4032 630 -15895 1247 -4536
367 4033 634 -15894 1240 -4526
369 4029 631 -15897 1245 -4515
369 4039 631 -15901 1253 -4510
373 4034 632 -15899 1248 -4511
367 4035 631 -15891 1251 -4512
369 4036 632 -15884 1254 -4512
364 4035 634 -15880 1245 -4517
374 4035 630 -15888 1244 -4519
371 4040 634 -15879 1250 -4538
372 4039 632 -15867 1253 -4565
369 4040 633 -15880 1248 -4556
368 4041 632 -15897 1243 -4533
367 4031 633 -15902 1243 -4517
370 4038 634 -15904 1238 -4511
370 4038 633 -15903 1235 -4510
371 4040 628 -15904 1240 -4510
374 4040 637 -15907 1241 -4514
371 4044 632 -15902 1237 -4522
373 4036 633 -15899 1242 -4534
377 4042 632 -15889 1261 -4560
374 4036 632 -15883 1275 -4556
372 4046 632 -15887 1265 -4530
376 4040 634 -15887 1244 -4519
364 4040 633 -15888 1237 -4513
368 4044 633 -15891 1241 -4508
368 4040 632 -15892 1243 -4501
369 4037 631 -15892 1255 -4503
369 4044 632 -15896 1258 -4501
367 4042 634 -15899 1242 -4512
369 4044 633 -15889 1258 -4523
370 4047 629 -15889 1256 -4515
377 4045 635 -15886 1251 -4502
365 4044 632 -15885 1244 -4500
371 4047 634 -15888 1248 -4509
369 4048 634 -15892 1247 -4511
376 4046 635 -15894 1241 -4506
369 4047 632 -15894 1237 -4504
370 4049 634 -15878 1256 -4554
368 4053 633 -15886 1259 -4537
371 4055 633 -15900 1249 -4519
372 4049 632 -15901 1253 -4514
364 4050 631 -15897 1255 -4506
370 4051 632 -15896 1247 -4502
368 4053 635 -15899 1244 -4501
370 4049 632 -15901 1244 -4506
371 4060 633 -15904 1245 -4503
370 4055 630 -15900 1257 -4508
374 4055 632 -15866 1279 -4543
371 4054 631 -15856 1280 -4549
368 4054 640 -15879 1263 -4523
375 4055 626 -15889 1253 -4510
370 4054 632 -15893 1252 -4507
369 4057 629 -15894 1250 -4505
369 4057 633 -15896 1245 -4500
371 4064 632 -15891 1246 -4502
370 4054 631 -15899 1250 -4496
370 4056 628 -15910 1247 -4497
369 4057 629 -15865 1278 -4531
372 4057 626 -15865 1258 -4508
371 4057 641 -15877 1256 -4494
369 4063 637 -15894 1259 -4494
371 4055 637 -15894 1242 -4501
369 4059 642 -15895 1239 -4497
372 4055 637 -15901 1250 -4488
371 4064 638 -15903 1244 -4488
374 4062 639 -15898 1234 -4493
371 4062 639 -15875 1271 -4546
370 4057 635 -15882 1270 -4543
366 4061 639 -15895 1264 -4524
376 4061 624 -15901 1253 -4510
370 4063 630 -15900 1242 -4494
371 4061 632 -15901 1236 -4488
369 4060 630 -15896 1234 -4489
371 4064 629 -15900 1248 -4489
370 4060 633 -15897 1261 -4500
371 4061 624 -15882 1259 -4512
370 4061 632 -15874 1267 -4522
370 4062 627 -15876 1269 -4518
370 4063 638 -15892 1265 -4496
368 4067 634 -15903 1258 -4485
372 4059 633 -15902 1254 -4490
368 4064 633 -15897 1261 -4494
370 4061 631 -15889 1260 -4488
371 4067 630 -15888 1257 -4480
381 4065 633 -15888 1254 -4482
366 4064 633 -15888 1255 -4501
370 4062 633 -15879 1273 -4534
365 4065 639 -15874 1278 -4532
376 4065 636 -15894 1264 -4507
370 4067 635 -15898 1251 -4505
370 4066 634 -15893 1251 -4502
375 4067 634 -15890 1264 -4498
370 4068 634 -15896 1268 -4486
365 4065 638 -15901 1261 -4485
375 4066 629 -15898 1250 -4491
369 4065 635 -15897 1247 -4499
371 4067 634 -15861 1267 -4561
367 4066 637 -15869 1250 -4537
370 4073 635 -15880 1244 -4515
370 4061 632 -15889 1241 -4496
369 4070 634 -15892 1242 -4481
370 4069 633 -15889 1240 -4483
373 4072 631 -15893 1249 -4489
378 4070 635 -15895 1259 -4492
364 4068 634 -15890 1255 -4493
372 4069 635 -15880 1270 -4515
373 4071 634 -15886 1272 -4508
373 4065 635 -15888 1252 -4496
372 4075 634 -15884 1243 -4504
380 4074 635 -15887 1251 -4510
368 4070 634 -15897 1259 -4493
371 4076 635 -15893 1249 -4480
365 4072 636 -15889 1251 -4485
375 4071 631 -15895 1253 -4492
369 4071 634 -15892 1248 -4514
369 4071 634 -15879 1260 -4547
366 4073 636 -15880 1265 -4542
370 4080 635 -15888 1265 -4516
368 4067 634 -15885 1259 -4500
373 4073 633 -15889 1246 -4495
370 4076 635 -15899 1248 -4501
370 4071 628 -15908 1256 -4501
369 4073 639 -15910 1258 -4497
367 4076 635 -15905 1256 -4494
370 4065 635 -15899 1261 -4501
368 4074 636 -15889 1278 -4523
371 4070 635 -15887 1274 -4518
369 4080 635 -15891 1258 -4497
372 4074 634 -15896 1253 -4484
370 4077 637 -15903 1246 -4471
369 4075 636 -15894 1240 -4472
365 4075 639 -15885 1249 -4481
375 4073 630 -15895 1259 -4483
373 4079 635 -15901 1247 -4478
374 4078 636 -15900 1237 -4485
373 4080 636 -15872 1251 -4548
375 4086 636 -15881 1242 -4527
374 4081 640 -15887 1246 -4516
377 4081 630 -15891 1252 -4512
376 4082 635 -15894 1250 -4508
373 4080 631 -15898 1256 -4497
373 4079 640 -15898 1254 -4485
368 4083 635 -15901 1251 -4482
369 4072 636 -15898 1249 -4483
366 4075 638 -15885 1252 -4506
368 4074 636 -15880 1259 -4532
368 4078 632 -15889 1261 -4521
378 4077 637 -15894 1260 -4496
364 4076 636 -15896 1252 -4483
369 4076 635 -15895 1249 -4485
368 4079 636 -15891 1263 -4478
376 4080 637 -15898 1269 -4471
372 4081 637 -15902 1250 -4480
370 4079 636 -15905 1241 -4483
368 4079 636 -15905 1249 -4485
370 4080 634 -15895 1256 -4503
365 4079 639 -15896 1256 -4504
376 4081 631 -15891 1256 -4494
371 4081 636 -15887 1266 -4492
372 4079 634 -15898 1265 -4493
369 4079 636 -15904 1254 -4490
373 4082 636 -15906 1249 -4477
372 4075 636 -15901 1248 -4477
368 4080 637 -15903 1245 -4478
372 4087 640 -15906 1248 -4472
372 4092 638 -15877 1263 -4500
380 4092 648 -15871 1264 -4516
365 4092 643 -15897 1262 -4489
372 4093 644 -15907 1263 -4482
374 4092 641 -15908 1254 -4485
371 4080 640 -15908 1250 -4484
371 4089 636 -15906 1253 -4494
374 4079 635 -15901 1252 -4505
364 4081 633 -15905 1259 -4495
369 4082 631 -15909 1269 -4480
364 4080 633 -15883 1248 -4522
374 4079 628 -15891 1232 -4506
370 4081 632 -15894 1233 -4504
370 4083 633 -15894 1244 -4495
368 4086 637 -15890 1244 -4495
370 4093 634 -15892 1235 -4500
370 4080 633 -15890 1233 -4499
371 4085 633 -15893 1246 -4495
370 4085 633 -15896 1242 -4487
370 4086 629 -15861 1258 -4532
371 4087 640 -15872 1264 -4519
371 4092 633 -15880 1268 -4508
371 4081 632 -15894 1263 -4502
369 4088 632 -15905 1257 -4489
372 4081 632 -15907 1254 -4477
370 4095 633 -15907 1253 -4472
372 4087 629 -15908 1254 -4479
375 4085 628 -15899 1250 -4485
371 4084 633 -15885 1257 -4503
366 4089 648 -15870 1264 -4529
376 4088 640 -15875 1265 -4521
371 4089 647 -15889 1255 -4495
371 4087 648 -15896 1246 -4481
371 4091 649 -15904 1253 -4472
369 4095 635 -15914 1236 -4490
374 4089 636 -15915 1239 -4477
365 4090 634 -15911 1236 -4469
372 4094 635 -15907 1234 -4480
365 4091 638 -15907 1232 -4485
375 4091 631 -15887 1258 -4536
371 4092 635 -15891 1256 -4512
371 4091 635 -15897 1251 -4492
367 4091 639 -15910 1238 -4485
372 4096 638 -15905 1239 -4487
371 4085 636 -15895 1237 -4491
372 4091 634 -15888 1227 -4490
370 4091 634 -15894 1225 -4488
370 4090 629 -15896 1227 -4495
372 4092 641 -15871 1239 -4534
370 4095 637 -15889 1231 -4517
370 4085 637 -15897 1227 -4504
369 4092 641 -15893 1239 -4497
371 4087 638 -15898 1246 -4487
370 4099 639 -15904 1242 -4473
372 4091 637 -15903 1243 -4470
367 4095 635 -15897 1251 -4469
370 4091 633 -15893 1251 -4463
366 4093 637 -15866 1244 -4499
370 4089 630 -15871 1243 -4499
366 4097 634 -15884 1251 -4485
367 4094 635 -15894 1251 -4487
367 4094 634 -15902 1235 -4494
369 4092 634 -15905 1237 -4483
366 4094 638 -15907 1256 -4476
366 4097 628 -15902 1263 -4480
368 4094 636 -15907 1271 -4477
375 4096 629 -15903 1272 -4482
381 4095 640 -15883 1270 -4507
379 4098 635 -15881 1270 -4505
379 4089 635 -15893 1265 -4486
383 4097 635 -15893 1256 -4483
383 4094 635 -15885 1245 -4475
379 4097 631 -15888 1243 -4467
378 4098 641 -15888 1243 -4468
368 4100 636 -15886 1248 -4474
370 4097 636 -15897 1256 -4482
369 4098 634 -15895 1265 -4480
368 4095 637 -15869 1280 -4514
366 4103 637 -15887 1271 -4483
367 4099 638 -15898 1263 -4475
365 4099 637 -15905 1257 -4473
368 4098 637 -15907 1248 -4470
362 4100 645 -15907 1252 -4468
375 4101 632 -15909 1255 -4466
371 4099 635 -15907 1250 -4476
370 4100 636 -15913 1243 -4480
371 4100 637 -15893 1255 -4505
369 4099 637 -15890 1238 -4500
370 4100 640 -15905 1234 -4490
371 4101 631 -15911 1240 -4476
370 4099 637 -15899 1235 -4469
366 4099 631 -15899 1238 -4466
368 4097 641 -15907 1248 -4461
363 4101 637 -15902 1247 -4465
366 4096 637 -15900 1242 -4465
366 4100 635 -15900 1253 -4479
366 4094 636 -15889 1269 -4511
364 4101 637 -15898 1264 -4508
370 4096 637 -15912 1247 -4488
368 4102 636 -15912 1239 -4477
379 4105 637 -15913 1226 -4470
376 4109 641 -15910 1220 -4477
388 4109 635 -15910 1228 -4481
383 4111 636 -15911 1231 -4476
384 4112 636 -15900 1241 -4465
386 4113 636 -15888 1249 -4458
380 4109 636 -15871 1258 -4493
368 4101 640 -15869 1263 -4508
374 4102 631 -15881 1255 -4487
367 4097 637 -15886 1250 -4485
367 4099 635 -15887 1249 -4483
365 4098 640 -15887 1244 -4474
367 4107 638 -15898 1242 -4468
368 4095 635 -15903 1246 -4473
371 4101 636 -15895 1252 -4472
370 4098 638 -15891 1253 -4474
371 4111 636 -15880 1261 -4527
378 4106 638 -15899 1257 -4496
366 4105 636 -15913 1249 -4471
370 4104 636 -15920 1249 -4470
370 4105 640 -15913 1247 -4477
371 4101 636 -15903 1239 -4476
371 4110 636 -15908 1231 -4475
374 4104 636 -15910 1234 -4475
365 4104 635 -15903 1230 -4474
373 4108 634 -15859 1255 -4507
367 4104 636 -15880 1244 -4493
379 4104 632 -15897 1238 -4484
373 4103 635 -15898 1238 -4465
370 4102 632 -15905 1234 -4462
369 4107 638 -15905 1229 -4469
370 4116 640 -15905 1226 -4472
371 4108 642 -15910 1232 -4478
374 4117 643 -15898 1243 -4481
373 4118 643 -15882 1259 -4524
372 4118 636 -15891 1252 -4504
377 4117 649 -15904 1246 -4477
373 4123 646 -15909 1246 -4467
373 4114 646 -15911 1239 -4464
372 4117 644 -15907 1243 -4464
373 4107 639 -15901 1246 -4467
371 4114 635 -15905 1238 -4468
374 4107 635 -15904 1233 -4466
366 4107 632 -15898 1244 -4478
371 4107 633 -15884 1257 -4499
369 4106 636 -15884 1253 -4497
374 4102 628 -15895 1250 -4490
370 4106 633 -15894 1256 -4486
370 4107 633 -15893 1258 -4478
369 4107 635 -15886 1258 -4474
371 4114 634 -15889 1260 -4469
370 4108 639 -15901 1251 -4471
372 4111 629 -15909 1243 -4479
371 4110 635 -15909 1244 -4479
368 4111 642 -15884 1257 -4507
375 4113 646 -15878 1260 -4515
371 4113 646 -15896 1257 -4484
372 4112 648 -15908 1262 -4473
371 4113 648 -15912 1264 -4476
371 4121 648 -15909 1257 -4482
368 4114 643 -15907 1246 -4480
377 4114 629 -15906 1245 -4477
372 4114 632 -15899 1241 -4466
371 4112 630 -15898 1240 -4459
370 4114 630 -15875 1279 -4513
372 4116 629 -15891 1274 -4486
371 4110 633 -15894 1262 -4478
370 4114 636 -15891 1252 -4474
373 4115 636 -15893 1249 -4462
371 4118 633 -15894 1250 -4467
379 4116 638 -15896 1253 -4478
366 4113 636 -15901 1256 -4468
372 4116 635 -15904 1258 -4457
374 4115 637 -15893 1261 -4462
373 4112 636 -15890 1263 -4465
370 4122 636 -15898 1259 -4457
375 4115 636 -15898 1256 -4461
369 4117 637 -15898 1258 -4461
372 4114 637 -15900 1248 -4452
368 4113 642 -15904 1239 -4463
377 4117 633 -15906 1240 -4472
372 4115 636 -15909 1242 -4465
371 4115 633 -15907 1242 -4460
369 4118 639 -15896 1245 -4475
372 4122 637 -15872 1250 -4504
373 4112 640 -15867 1254 -4494
373 4117 638 -15887 1253 -4476
371 4117 639 -15887 1251 -4471
371 4117 634 -15886 1245 -4462
372 4118 645 -15893 1239 -4462
368 4123 640 -15898 1233 -4464
371 4110 638 -15905 1234 -4463
368 4125 640 -15902 1238 -4459
370 4111 638 -15897 1231 -4462
381 4134 702 -15873 1276 -4505
384 4137 698 -15885 1263 -4500
381 4140 713 -15898 1244 -4489
381 4143 719 -15904 1228 -4477
384 4147 741 -15901 1226 -4477
385 4154 760 -15904 1227 -4478
389 4162 803 -15908 1229 -4476
401 4180 905 -15909 1234 -4468
432 4219 1146 -15905 1238 -4467
487 4311 1489 -15856 1251 -4505
540 4477 1766 -15867 1249 -4490
590 4773 2087 -15882 1246 -4471
771 5668 3283 -15885 1240 -4472
1367 8328 7081 -15891 1242 -4472
3310 16096 18849 -15902 1242 -4467
7875 32091 43689 -15903 1233 -4460
15356 59974 86761 -15904 1239 -4460
25515 102808 139255 -15904 1248 -4464
35264 170615 233972 -15895 1250 -4475
40592 211863 288632 -15925 1245 -4497
44053 237621 319776 -16159 1741 -4415
47443 263193 352812 -15946 1526 -4470
53656 297095 393999 -15595 846 -4645
58525 314304 413853 -15628 814 -4674
62033 322540 423106 -16758 141 -2252
63711 324678 425061 -16393 -628 -2187
63660 321343 420116 -11610 1152 -8720
60263 304437 398672 -9535 3066 -12323
56864 290080 382971 -11582 3354 -11581
55109 281120 371456 -13865 3796 -10851
57205 293872 397575 -7325 11034 -10689
53745 241383 342013 -5828 11103 -10527
54959 265065 377879 -4223 10603 -10724
59608 297510 418659 -2583 11154 -11773
61528 301264 421605 -1364 12556 -12933
62169 301274 424849 -397 12896 -13588
64751 313138 444410 1491 10320 -13749
67063 330491 458832 2980 7840 -13668
68710 342858 467209 4220 7632 -11847
70564 346855 469709 6721 8082 -11523
72044 347509 469728 7172 7381 -10118
73214 347132 469492 5424 7896 -9950
74042 345003 468070 3361 8098 -10500
74890 338561 464275 2061 6748 -10364
100706 351632 471828 1731 5937 -9580
38506 163840 262144 1094 5810 -10052
2979 10045 37238 118 5215 -11469
7615 24833 18032 -166 4321 -12382
3015 10594 3719 -423 3543 -12653
11060 35264 29160 97 3252 -13232
27148 79486 90121 1063 3252 -14486
23888 69564 74821 4420 1884 -16701
26728 78196 88280 7456 160 -18443
28146 81454 90094 3748 -1281 -8609
28690 82888 91712 -3321 2456 6023
29837 88835 101812 -3502 4890 7986
29478 89056 103525 -9042 -294 -894
24889 74166 80910 -17860 -544 -2903
13991 40901 34397 -15554 2016 2652
4091 12002 7432 -13055 3080 3318
1487 3825 4685 -13621 4219 2587
1254 2928 4835 -14529 4142 2063
1114 2816 4207 -15063 3601 1442
1734 6221 2347 -16039 2968 246
1841 6717 2633 -18116 2307 -918
1693 6380 2944 -20235 1353 -1677
1549 6014 2894 -20689 -1099 -3544
1284 5003 2745 -18090 -1172 -4728
894 3184 2742 -13049 2565 -7212
815 2191 3677 -11250 3682 -8243
1155 2472 6985 -11784 4281 -5863
2836 7984 18897 -13307 4935 -3116
6473 20470 41445 -12978 6124 -4393
10083 30621 59619 -14288 5973 -5570
16644 55428 98305 -16492 5075 -6328
27395 106134 168726 -16410 4713 -7632
43918 213889 306286 -14639 4958 -8447
52538 307569 416345 -12600 5059 -9688
56954 336416 450371 -11532 4795 -11057
59688 344624 459355 -12281 4986 -8323
61375 351456 466245 -14280 5365 -5102
62819 355170 472323 -15486 5214 -6156
64878 354960 476076 -15109 5127 -7664
71829 351584 477514 -12815 4489 -9691
79102 322215 443997 -10523 3694 -11425
55747 209865 306569 -9364 3161 -12593
40262 135819 211844 -7964 2454 -13408
28542 96740 151007 -5958 1083 -14494
19516 72632 102666 -3696 -689 -15797
13151 55567 67240 -1524 -2512 -16324
10661 46580 51335 -613 -3340 -16339
9827 42427 45055 -2109 -2022 -16019
8905 38322 39964 -4816 -666 -15804
7981 34793 37112 -5874 -621 -16508
7450 33006 37149 -5515 -1060 -17557
7473 33263 41625 -5090 -1735 -17860
7750 33537 46867 -5018 -2126 -16946
8295 35234 52195 -5289 -1857 -15862
8595 34433 54864 -6063 -1057 -15244
8505 29898 54126 -7232 -333 -14853
8404 25097 53193 -8039 257 -14520
10441 30012 64602 -8606 314 -14112
20793 71918 126565 -9641 912 -13217
41322 180178 272474 -10219 1719 -12479
47656 221070 325530 -9870 1930 -12064
48297 231326 337265 -10025 2118 -11738
47921 231330 335539 -11533 2607 -11021
45516 212887 308577 -14598 4068 -7387
27861 105970 165243 -13433 3969 -6812
4654 10795 25482 -11660 3145 -9283
1394 3989 5658 -11711 2787 -11402
1266 3765 5299 -12085 2924 -12684
1254 3925 5019 -12124 2669 -14171
1318 4103 5425 -11360 1213 -14810
1448 4353 6420 -9979 2033 -14256
1574 4692 7542 -9927 4577 -11463
1657 5190 8359 -13607 6054 -6569
1808 6051 9595 -13720 6287 -7263
2068 7121 11547 -14037 6519 -7090
2757 9427 16435 -13562 6776 -6684
5289 18078 33928 -13041 6945 -6308
17662 65611 112043 -12714 6894 -6439
37290 178625 259398 -12594 6751 -6374
45868 227169 324027 -12563 6741 -5980
48012 235157 332425 -12917 6780 -5418
46210 214179 298973 -13395 6792 -4770
33733 130108 189842 -13282 6642 -4376
9615 28115 50923 -12252 6748 -2330
3580 10019 19827 -12610 6191 -2015
2171 6175 11346 -14244 5051 -4983
1646 4900 7915 -15960 3913 -6753
1416 4445 6423 -15704 4281 -6969
1307 4326 5642 -14436 5591 -6130
1250 4328 5292 -14814 5857 -5342
1232 4389 5151 -15070 5892 -5570
1241 4508 5210 -15337 5885 -5897
1267 4676 5412 -15371 6040 -5991
1277 4772 5460 -15077 6224 -6095
1289 4858 5396 -14632 6398 -5880
1314 5007 5657 -14071 6514 -5486
1464 5597 6871 -13697 6531 -5008
1923 7108 10190 -13450 6489 -4662
3555 11846 20916 -13306 6423 -4570
10585 37467 65964 -13525 6395 -4601
31983 155538 229281 -14001 6401 -4609
47501 235417 336551 -14199 6372 -4800
52673 261061 367731 -14951 6239 -5061
52684 253428 353800 -15114 6225 -3880
30647 122772 195503 -13909 6352 -330
4702 11110 23064 -12843 5850 -1160
2006 6190 6069 -12866 4799 -6329
1688 5224 5298 -13012 4215 -9346
1563 4908 4985 -13111 3339 -12040
1597 5296 4616 -12296 3828 -12421
1540 5263 4624 -12722 5275 -8519
1519 5417 4646 -15365 5791 -2578
1543 5655 4729 -14440 6091 -3265
1582 5877 4858 -14677 6203 -3127
1607 6047 4979 -14783 6311 -3374
1635 6238 5170 -14390 6431 -3808
1666 6445 5557 -14046 6471 -3527
1796 7002 6585 -13874 6477 -2892
2114 8240 8827 -13952 6433 -2510
2909 11329 14835 -14225 6325 -2391
6471 24296 39155 -14636 6047 -2712
24615 96145 147688 -14971 5934 -2624
53888 241925 339193 -15159 5825 -2683
65028 290306 404663 -15346 5648 -2479
66935 293003 404365 -15015 5439 -1412
55110 228226 314978 -14668 5280 -145
2003 7884 7202 -14876 5736 -2485
2247 8973 9139 -14700 5651 -2113
3446 13971 17806 -14561 5609 -1759
9935 39203 60508 -14588 5572 -1574
43903 174695 252129 -14788 5525 -1800
58293 302760 415421 -15172 5446 -2138
62746 316379 427207 -15226 5474 -1842
62832 309290 418080 -14742 5430 -1179
64131 256532 360918 -14531 5453 167
32409 110396 165682 -15021 5280 -456
11149 39779 58295 -16297 4890 -2184
5439 20209 28055 -17938 4121 -2517
3713 13863 18133 -17332 4237 -2239
3044 11254 13876 -16248 4972 -1867
2703 9930 11661 -15877 4909 -3383
2491 9113 10374 -15342 5200 -3474
2384 8647 9598 -15041 5346 -3295
2331 8406 9102 -14809 5464 -3095
2304 8333 8859 -14462 5670 -3086
2303 8409 8832 -14295 5858 -2952
2318 8553 8860 -14433 5936 -2658
2335 8675 8933 -14560 5955 -2473
2441 9136 9750 -14593 5965 -2453
2953 11145 13300 -14909 5876 -2500
5019 19241 27281 -15161 5810 -2670
14374 54639 84825 -15429 5780 -2687
38937 172639 248545 -15526 5698 -2290
56001 272703 375293 -15124 5625 -1697
61593 293701 396754 -14672 5652 81
61474 286523 385657 -14594 5389 -789
43327 176726 244842 -15073 5034 -3468
14905 51656 77361 -15901 4894 -4162
5479 19402 27307 -16456 4920 -3235
3399 12201 15394 -16441 5075 -2456
2725 9843 11229 -16245 5230 -2983
2446 8885 9351 -16154 5291 -2846
2306 8415 8407 -15801 5310 -2571
2237 8139 7884 -15444 5370 -2281
2191 7904 7622 -15188 5453 -2079
2207 7777 7762 -14975 5546 -1974
2473 8359 9646 -14808 5640 -1882
3583 11525 17232 -14729 5712 -1856
9157 32030 53562 -14878 5734 -1911
25275 114381 165695 -15056 5669 -1738
38322 177378 247287 -14767 5616 -1519
43857 199847 273050 -14223 5433 -79
40354 177925 243545 -14065 5093 -591
23300 90392 129421 -14300 4930 -3899
8615 26720 44439 -14964 4902 -5692
4794 14735 24347 -14659 4976 -6716
3727 11704 18044 -15150 4920 -5125
3490 11126 16582 -16358 4917 -2984
3418 11014 15902 -16167 5040 -3168
3386 11015 15645 -15625 5164 -2757
3377 11126 15528 -15291 5206 -2428
3313 11053 15100 -15173 5184 -2286
3233 10905 14579 -15090 5150 -2231
3188 10895 14272 -15015 5143 -2177
3172 10989 14204 -15062 5172 -2057
3399 11914 15908 -15199 5198 -1976
5367 19140 29246 -15371 5235 -2074
14842 56215 89441 -15593 5242 -2534
34760 166804 240147 -15722 5219 -2541
49687 241070 334871 -15194 5293 -1886
54232 257745 351581 -14812 5053 -718
46887 213477 291784 -14654 4769 -2086
20052 71945 107337 -14853 4736 -5243
5714 17232 26788 -14759 4832 -6050
3204 9812 12635 -15284 4774 -5223
2539 8082 8696 -15895 4987 -3232
2388 7869 7248 -15713 5282 -1702
2324 7724 6854 -15844 5136 -1641
2366 7832 7218 -15674 5131 -1286
2696 8663 9455 -15354 5169 -1476
3972 12271 18162 -15322 5173 -1627
8658 28768 47219 -15193 5228 -1428
21761 94157 139072 -14193 5357 -5
29571 139236 194370 -13693 5217 746
29386 134336 186043 -14072 4881 -1763
19061 72728 106338 -14656 4755 -4937
6171 18010 28147 -14747 4597 -6682
3455 10481 13213 -16336 5021 -1492
2787 8837 9724 -16267 5040 -1122
2663 8839 8194 -16031 5040 -1455
2544 8589 7619 -16206 4979 -1200
2497 8572 7301 -16047 4989 -1305
2476 8632 7035 -15791 5030 -1299
2434 8587 6783 -15510 5071 -1096
2426 8630 6625 -15170 5111 -949
2426 8680 6564 -14970 5155 -760
2427 8735 6588 -14908 5184 -688
2431 8816 6655 -14966 5204 -776
2441 8896 6726 -15051 5234 -917
2457 8986 6812 -15186 5272 -1011
2465 9031 6898 -15323 5289 -1047
2483 9062 6961 -15395 5250 -1091
2495 9013 7036 -15518 5204 -1090
2566 9102 7430 -15618 5154 -1110
2785 9601 8845 -15804 5093 -1094
3463 11398 13607 -15950 5110 -1056
5564 17643 26498 -15664 4988 -922
9070 29670 46895 -15217 4918 -258
15045 54850 86625 -15868 4996 1143
18410 71358 109243 -15547 4991 642
18419 71426 109222 -14642 4783 -1545
12845 43138 68863 -14954 4363 -3131
5079 14928 20888 -14756 4346 -3985
3295 10121 11914 -16230 4606 -1775
2726 8961 8327 -17174 4715 -374
2550 8740 6771 -16240 4685 -1110
2394 8338 6046 -16042 4694 -731
2354 8298 5667 -15463 4839 -700
2294 8138 5391 -15296 4930 -810
2263 8113 5148 -15061 5000 -882
2218 8074 4824 -14931 5038 -785
2161 8037 4421 -14890 5028 -718
2130 8111 4043 -14954 4987 -699
2106 8173 3731 -15129 4960 -677
2065 8154 3438 -15256 4912 -785
2107 8435 3222 -15334 4980 -807
2198 8875 3093 -15469 4879 285
2299 9305 3041 -15401 4567 983
2428 9836 3111 -15257 4261 1709
2434 9850 2987 -15247 3941 1798
2367 9599 2782 -15317 3484 1561
2422 9809 2829 -15194 3138 1535
2334 9463 2621 -14855 2782 1166
2196 8987 2402 -14856 2305 549
2198 9029 2417 -15242 1855 -133
2077 8586 2270 -15748 1463 -1355
1998 8306 2210 -16600 1096 -2731
2026 8428 2259 -17542 780 -3607
2011 8373 2214 -17954 482 -4168
1919 8014 2055 -17773 186 -4787
1834 7686 1897 -17459 -2 -5369
1797 7530 1774 -17218 -5 -5704
1794 7512 1712 -17022 95 -5817
1815 7574 1714 -16810 161 -5783
1863 7755 1786 -16475 204 -5539
1945 8064 1915 -16119 461 -5037
1993 8224 1981 -15834 713 -4521
1987 8210 1982 -15613 753 -4140
2092 8607 2158 -15694 797 -3699
2070 8496 2105 -15815 864 -3493
2068 8495 2116 -15811 868 -3483
2150 8797 2254 -16057 883 -3266
2207 9007 2356 -16316 966 -2928
2277 9242 2452 -16637 860 -2983
2188 8896 2297 -16651 696 -3183
2234 9068 2378 -16372 702 -2831
2162 8776 2234 -15834 713 -4521
2025 8277 2017 -15613 753 -4140
1926 7892 1936 -15694 797 -3699
1939 7979 2186 -15815 864 -3493
2130 8581 2728 -15811 868 -3483
2053 8112 2919 -16057 883 -3266
2002 7745 3221 -16316 966 -2928
2067 7855 3685 -16637 860 -2983
2128 7885 4560 -16651 696 -3183
2596 9278 7265 -16372 702 -2831
3761 12734 15324 -16152 865 -2604
9164 31239 49236 -16128 1034 -2941
29276 137331 193642 -15936 1244 -3232
49487 261406 348976 -15939 1419 -3056
56363 304179 392975 -16086 1196 -2729
54963 286520 365635 -15800 1426 -2821
25799 109122 164122 -15788 1790 -2817
4622 12699 18529 -16091 1432 -2941
5107 19028 12226 -16355 1117 -2987
3709 13436 7380 -16407 1098 -2608
1420 4652 3876 -16195 980 -1959
1513 5398 3459 -15527 937 1780
2275 8534 4004 -14935 834 1221
2082 7675 3563 -14954 321 -4369
1692 6217 3078 -15476 47 -7068
1958 7337 3303 -16093 -967 -9284
1920 7151 3200 -14328 -989 -7320
1843 6863 3150 -14805 -229 -1148
1941 7221 3302 -17541 -138 3282
1897 7035 3299 -14618 775 -3227
1922 7133 3393 -14449 1172 -4366
1950 7202 3466 -16225 1458 -1677
1938 7150 3534 -15729 1741 -1550
1965 7242 3651 -15013 1753 -2650
1981 7283 3767 -15509 1696 -2121
1996 7320 3899 -15745 1667 -1894
2036 7447 4054 -15696 1702 -2200
2054 7492 4179 -16044 1687 -2105
2068 7541 4330 -16149 1653 -2222
2121 7731 4508 -16215 1607 -2312
2146 7820 4656 -16361 1554 -2293
2228 8143 4852 -16345 1528 -2349
2240 8185 4948 -16325 1497 -2310
2238 8205 5024 -16305 1467 -2235
2251 8247 5082 -16237 1462 -2145
2253 8261 5128 -16270 1413 -2007
2272 8301 5187 -16304 1362 -1985
2287 8380 5254 -16262 1306 -2064
2297 8404 5313 -16302 1247 -2026
2310 8457 5377 -16428 1108 -2054
2344 8574 5450 -16540 1071 -2063
2389 8726 5513 -16536 1058 -2117
2365 8633 5491 -16541 1006 -2138
2379 8681 5525 -16520 977 -2147
2386 8697 5541 -16490 974 -2138
2382 8690 5549 -16499 951 -2071
2395 8715 5558 -16479 964 -2033
2390 8702 5565 -16426 989 -2033
2390 8711 5570 -16348 1004 -1835
2391 8706 5570 -16390 952 -1767
2392 8708 5575 -16362 942 -1831
2389 8689 5577 -16396 919 -1794
2397 8729 5591 -16436 885 -1804
2399 8727 5601 -16476 860 -1818
2405 8752 5618 -16511 860 -1808
2451 8886 5678 -16513 889 -1802
2450 8904 5685 -16503 895 -1784
2454 8902 5687 -16478 894 -1755
2471 8954 5711 -16405 916 -1756
2475 8961 5728 -16348 943 -1758
2494 9040 5760 -16339 959 -1738
2509 9069 5786 -16311 956 -1765
2518 9118 5809 -16274 954 -1807
2544 9195 5841 -16311 955 -1766
2552 9224 5855 -16352 939 -1759
2557 9214 5856 -16372 915 -1789
2557 9215 5871 -16421 895 -1789
2563 9234 5886 -16464 879 -1802
2553 9210 5888 -16525 848 -1763
2540 9184 5877 -16564 809 -1701
2525 9136 5863 -16580 763 -1667
2518 9101 5856 -16597 736 -1573
2521 9105 5858 -16593 739 -1478
2532 9136 5856 -16566 758 -1447
2519 9067 5807 -16516 782 -1432
2514 9036 5711 -16478 834 -1424
2490 8924 5535 -16439 902 -1438
2487 8923 5396 -16402 932 -1498
2495 8933 5394 -16369 941 -1579
2454 8760 5400 -16333 973 -1693
2506 8942 5551 -16342 1018 -1764
2498 8841 5831 -16381 1025 -1720
2528 8918 6298 -16381 988 -1656
2564 9042 6708 -16369 958 -1544
2595 9121 7126 -16372 924 -1424
2681 9452 7951 -16393 889 -1334
2793 9850 8773 -16389 921 -1287
2903 10214 9275 -16185 971 -1451
2936 10302 9490 -16199 997 -1513
2933 10271 9543 -16071 1002 -1595
2991 10484 9540 -16118 873 -1450
2929 10216 9563 -16295 702 -1401
2872 10005 9834 -16387 615 -1501
2923 10185 10280 -16378 549 -1515
3094 10838 10931 -16423 509 -1274
3612 12862 11705 -16553 459 -895
4615 16845 13972 -16559 363 -674
7429 26867 22664 -16337 152 25
8511 30090 26183 -16285 27 187
6986 25331 23256 -16269 -28 374
7829 28476 27233 -16231 -91 773
8871 31927 30644 -15930 -755 1512
9259 33206 31701 -15657 -886 1958
9748 34788 33197 -15224 278 2521
10182 36121 34431 -15658 1698 4258
10805 38047 36471 -15973 2667 5434
11606 40420 39094 -15300 2903 5091
11772 40586 39144 -15575 2393 4683
11353 39136 37154 -15714 2200 4705
11141 38390 36410 -15184 2750 5011
11182 38167 36438 -14983 2761 5570
12947 43307 43476 -14857 2320 6040
13296 43692 44166 -14567 1966 6402
12929 42216 43893 -14579 1727 6454
13628 44143 49735 -14685 1479 6185
13522 42764 48964 -14648 1222 5690
11962 37450 39185 -14584 1077 5140
10947 34963 33407 -14267 398 5081
9846 31782 28068 -15058 -809 5605
9675 31369 26885 -16306 -1371 6039
9712 31437 26547 -16732 -1513 6109
10081 32616 27937 -17216 -1767 6422
10472 33697 29094 -17035 -1737 6263
8499 27478 21200 -16592 -2004 5627
5183 17009 10050 -16314 -2546 5775
2529 8351 4741 -15997 -2567 5574
2281 7607 10956 -15703 -2209 5352
3520 12401 20361 -14817 -1827 6382
5474 18515 29575 -14515 -1691 7123
6930 22752 35482 -14139 -1486 7406
8219 26727 40351 -13804 -1810 6864
10774 34278 49319 -13344 -1758 4772
10468 33752 53416 -13049 -869 2570
8054 27733 48260 -14505 -1300 486
6699 23807 41641 -15661 -1751 -1660
5270 18983 33086 -15997 -1075 -2075
3776 13861 23990 -16425 -1601 -1920
2923 11123 18908 -16368 -1971 -1272
2676 10884 17361 -16320 -2543 -1388
2406 10085 15428 -16225 -2597 -1457
2191 9240 13934 -16212 -2336 -1053
2059 8608 12767 -16692 -2074 -373
2103 8525 12183 -17311 -1925 -344
2788 10965 14390 -17332 -1548 -799
4699 17307 20221 -16823 -1397 -1427
8119 27942 29907 -15955 -1621 -2198
12423 40354 42314 -15468 -1601 -2444
19514 61218 67478 -15972 -1989 -1590
29498 89157 106443 -16382 -2772 -314
41376 120594 165405 -16042 -3728 880
52412 156708 234327 -15145 -5102 2789
53250 164105 245679 -14041 -6479 4625
47292 146465 220088 -13244 -7732 5573
42248 130517 193633 -12164 -8786 6367
38058 117666 170822 -10550 -9877 6862
33041 102144 143608 -8732 -11060 7495
27793 87730 118701 -7314 -11846 9159
24161 77864 102262 -6341 -12284 10190
23079 75049 98864 -5385 -12551 10101
22086 72189 94422 -4983 -12503 10012
21070 69358 90660 -5227 -12100 9991
21260 69916 93578 -5716 -11982 10118
22949 74311 103526 -5794 -11743 10323
24578 76975 112139 -5726 -11380 10187
27771 81642 123528 -6015 -11021 10183
30501 81222 124734 -6639 -10462 10815
30774 79480 123463 -7801 -9545 10950
31914 82778 128236 -8601 -8601 10513
33808 87330 134586 -10028 -7990 10257
36052 95133 147628 -11849 -7924 10350
42186 119232 187116 -12268 -8014 10524
46436 135032 210793 -12249 -7457 10066
47340 137814 214260 -13196 -6467 9102
48485 140752 217374 -14294 -6141 7895
49155 142411 219044 -15073 -6309 6340
49140 142319 218956 -15023 -6511 5494
49155 142514 219326 -15121 -6179 5764
49566 144263 221699 -15386 -6111 5732
51528 151971 232462 -15327 -6197 5559
54023 161022 243435 -15095 -6077 5437
56536 169252 251416 -15219 -5749 5469
58543 175547 256968 -15374 -5315 5245
59966 180391 262549 -15415 -4885 4915
61067 183776 267087 -15674 -4484 4886
60987 183323 266885 -15945 -4395 4834
60779 182608 266316 -15789 -4539 4005
60161 181096 264772 -15227 -4543 2656
59418 178059 261669 -14524 -4070 1468
59223 177483 261834 -14404 -3197 639
60110 181750 268772 -14910 -2478 317
62699 194752 288670 -15398 -1966 284
66259 216728 321092 -15577 -1456 151
68636 245658 359149 -15497 -812 -219
67767 258975 370626 -15665 -122 -644
66774 262711 370715 -16071 491 -1022
66142 265859 370875 -16396 1045 -1169
66124 269050 372815 -16424 1528 -1187
66708 270211 374839 -16159 2002 -1293
67232 269746 376093 -15791 2171 -1095
66850 268845 374985 -15714 1903 -491
65653 269237 374184 -16041 1610 86
64921 269859 374112 -16042 1421 340
64640 269936 374271 -15630 1188 379
63603 271357 374812 -15554 1142 423
62366 272848 374543 -15642 994 545
61097 274668 374077 -16305 688 416
60504 277333 375078 -16595 603 185
60355 280793 376988 -16682 585 -147
60866 284587 379315 -16669 655 -693
61973 287706 381657 -16477 672 -1158
63389 291125 384781 -16336 646 -1425
65070 295024 388678 -16555 730 -1802
66960 299045 393012 -16703 874 -2276
68571 301725 396124 -16535 994 -2721
69521 302393 396643 -15728 1421 -3508
69634 301088 394846 -15659 1678 -3963
69331 299084 392587 -15604 1888 -4392
68746 297263 391065 -15382 2063 -4711
68059 295125 389110 -15337 2158 -4868
67003 291058 385875 -15633 2241 -4960
65609 287143 383422 -15872 2328 -5009
64460 283504 382191 -15930 2391 -4896
63616 280088 381793 -16180 2408 -4726
61070 278505 380992 -16253 2425 -4108
58539 279249 380544 -16151 2595 -3904
57487 280409 380573 -16134 2803 -3841
57263 281900 380814 -16037 2990 -3633
57540 284434 381643 -15915 3142 -3403
59048 289563 384919 -15719 3336 -3411
62546 297177 391136 -15573 3562 -3639
66279 303275 396548 -15457 3765 -3906
68868 306514 399740 -15258 3910 -4090
70391 307551 401087 -15184 3950 -4199
71020 306708 400060 -15237 3992 -4354
70884 304282 397100 -15166 4120 -4568
70211 300324 392244 -14900 4240 -4674
68851 296968 390216 -14689 4309 -4612
68409 293883 390048 -14422 4357 -4402
68381 291162 389011 -14108 4851 -4528
68391 288778 387422 -13956 5393 -4985
68249 288007 387163 -13723 5630 -5549
68132 288319 387243 -13167 5983 -6333
67468 285363 383141 -12408 6262 -7094
68315 279110 375169 -12223 6370 -7878
67849 276893 373042 -12511 6147 -7633
67519 276866 373957 -12167 6039 -8112
67505 276528 374482 -11836 6063 -9074
67997 272549 369031 -11872 6054 -9726
68459 263884 355984 -11217 5952 -10479
68150 257057 346622 -10146 5645 -11372
80807 250179 349714 -13406 3548 -7784
74929 241231 340095 -13813 4028 -7904
70290 234560 332108 -13987 3544 -7657
71588 243905 347671 -14211 3421 -7808
74655 257033 370427 -14238 3443 -7767
79030 276527 400464 -14335 3364 -7760
59117 276244 387855 -14806 3107 -7411
49689 281651 376632 -15223 3056 -6975
53679 291368 383749 -15222 3223 -7192
58007 300152 392393 -15002 3041 -7468
63740 311796 405814 -14983 2787 -7260
68797 312071 406855 -14654 2652 -7665
71223 304482 399175 -13018 2618 -9493
71875 295802 388816 -11233 2570 -11463
72276 285827 376229 -9780 2316 -12902
71556 278504 366875 -8510 1951 -13983
70312 274246 362162 -7868 1518 -14577
69496 266817 352019 -7928 1063 -14882
69953 236500 312657 -8311 854 -15035
43708 130169 184526 -7838 899 -15288
14506 40940 57439 -6365 505 -15648
6520 17754 26781 -4694 -148 -15956
5294 14238 24359 -2990 -454 -16372
5087 13530 25110 -1879 -666 -16724
5417 14546 28204 -1506 -893 -16841
5994 16555 32304 -1523 -1126 -16772
6636 19016 36475 -1577 -1376 -16666
7189 21332 39794 -1270 -1567 -16674
7725 23696 42832 -910 -1696 -16648
8104 25333 44912 -950 -1754 -16579
8406 26586 46802 -1090 -1914 -16444
8786 28160 49206 -821 -2335 -16245
9044 29188 50872 -491 -2804 -16127
9265 30020 52381 -422 -3164 -16130
9376 30353 53132 -472 -3444 -16222
9402 30315 53392 -494 -3629 -16260
9372 29991 53190 -487 -3744 -16252
9307 29577 52807 -458 -3854 -16259
9387 29902 53478 -382 -3959 -16273
9514 30397 54302 -364 -4027 -16263
9615 30774 54958 -429 -4089 -16243
9733 31213 55642 -394 -4361 -16308
9847 31670 56333 -315 -4516 -16346
10110 32722 57864 -295 -4669 -16381
10320 33522 59068 -301 -4825 -16447
10508 34214 60166 -297 -4972 -16459
10604 34531 60681 -304 -5130 -16445
10593 34404 60554 -317 -5213 -16385
10530 34078 60154 -329 -5232 -16290
10524 34037 60195 -325 -5231 -16179
10551 34143 60420 -355 -5224 -16114
10533 34052 60351 -425 -5221 -16101
10484 33851 60096 -464 -5218 -16097
10418 33604 59732 -450 -5226 -16072
10385 33485 59551 -424 -5212 -16000
10421 33653 59843 -393 -5169 -15928
10486 33929 60297 -341 -5167 -15927
10543 34156 60661 -316 -5190 -15978
10567 34242 60809 -301 -5218 -16007
10589 34310 60923 -244 -5263 -16025
10660 34615 61380 -167 -5315 -16029
10755 34990 61945 -122 -5369 -16025
10822 35249 62331 -103 -5452 -16053
10855 35362 62490 -91 -5538 -16116
10874 35445 62607 -70 -5629 -16196
10919 35653 62901 -22 -5724 -16233
10948 35781 63057 -18 -5706 -16222
10935 35740 62991 -29 -5617 -16134
11002 36041 63446 -42 -5486 -16040
11049 36234 63753 -51 -5403 -16023
11081 36368 63971 32 -5419 -15997
11082 36424 64057 215 -5405 -15912
11077 36561 64255 173 -5398 -15881
11076 36733 64560 82 -5388 -15879
11049 36803 64702 94 -5445 -15915
11006 36907 64850 185 -5579 -15945
11007 37187 65221 249 -5724 -15980
10995 37307 65394 325 -5788 -16035
10971 37326 65431 375 -5803 -16089
10920 37150 65231 387 -5787 -16126
10809 36657 64615 665 -5855 -16136
10729 36475 64369 840 -6026 -16240
10733 36818 64696 1202 -6188 -16333
10557 36480 63969 1611 -6360 -16468
10285 35847 62941 1822 -6761 -16863
10052 35352 62209 2024 -7358 -17461
9851 34780 61506 2014 -7706 -18079
9630 33869 60476 1413 -7804 -18911
9216 32112 58203 766 -8088 -19280
8569 29321 54149 854 -8623 -19183
8132 27582 51385 1471 -9006 -19290
7903 27051 50292 1832 -8821 -19354
7333 24815 46581 2021 -8395 -19029
7200 24608 46235 2975 -8535 -17331
7529 26324 48603 4470 -8343 -15068
7852 28126 51121 5376 -6526 -13917
7949 28656 51643 5316 -4407 -13878
7512 26991 48955 4581 -3411 -14664
7271 26128 47488 4005 -3028 -15693
7237 26276 47625 3835 -3202 -16511
7503 27957 49939 3436 -3676 -17583
7820 30094 52819 2398 -3718 -19406
8325 33264 57283 1089 -3251 -20410
8753 35726 60757 119 -2179 -19463
8833 35779 60889 -366 -641 -17503
8751 34858 59753 -589 988 -15295
8773 34762 59742 -1093 2360 -13368
8845 35042 60251 -2027 3501 -11740
9012 35882 61475 -3482 4433 -10927
9292 37700 64126 -5322 5395 -11231
9978 42405 70823 3436 -3676 -17583
10551 46909 76875 2398 -3718 -19406
10778 49383 79990 1089 -3251 -20410
10847 50453 81276 119 -2179 -19463
10808 50507 81220 -366 -641 -17503
10631 49462 79646 -589 988 -15295
10436 48380 78067 -1093 2360 -13368
10283 47439 76607 -2027 3501 -11740
9567 43034 70075 -3482 4433 -10927
8554 36821 61076 -5322 5395 -11231
7759 32167 54543 -6673 6927 -10826
7470 30280 51903 -6789 7979 -10168
7179 28418 49228 -6953 8350 -9911
6612 25233 44416 -7391 8043 -10436
5863 21496 38718 -8399 7519 -12195
5568 20022 36623 -9542 7303 -14557
5595 20086 36888 -10124 7434 -15709
5728 20662 37868 -10178 7897 -14799
5804 20945 38363 -10070 8541 -12789
5701 20362 37476 -9906 8644 -11015
5370 18791 35034 -9963 8490 -10114
5465 19306 35899 -10181 8217 -10381
5744 20705 38094 -10313 8041 -10925
6152 22826 41215 -10336 8281 -10617
6377 24112 42985 -10100 8295 -9733
6565 25196 44536 -9670 7979 -9123
6776 26361 46207 -9344 8040 -8980
6952 27395 47668 -9110 8379 -8940
7099 28292 48871 -8802 8415 -9089
7147 28749 49379 -8321 8432 -9790
7209 29379 50096 -8020 7757 -11160
7092 28984 49180 -7274 6981 -13093
6556 26255 44933 -5906 6490 -14838
5896 22734 39575 -4404 6023 -16226
5233 19386 34509 -3596 5422 -17763
4724 16916 30681 -3915 5266 -18891
4211 14492 26817 -4956 5372 -19158
3490 11190 21597 -5852 5541 -18957
1982 5083 11057 -6184 5986 -18254
562 896 2359 -6474 6949 -17173
262 526 570 -6981 8064 -16252
256 529 517 -7223 8820 -15303
256 527 512 -7041 9246 -14114
254 526 512 -6789 9537 -12998
252 516 506 -6931 10236 -11736
253 521 515 -7499 11247 -10330
257 538 529 -7846 11517 -9335
259 559 546 -7921 11112 -9051
262 564 552 -7775 10029 -9927
256 548 536 -10749 11920 -3145
257 536 527 -12351 11825 1509
256 529 523 -12150 11493 3550
253 518 516 -11591 10434 248
254 516 510 -9943 9688 -5209
253 512 506 -7790 9543 -5759
253 505 506 -6597 9417 -2827
247 491 486 -4491 9735 -302
247 495 488 -2465 9712 659
249 505 497 404 8727 -2352
251 512 501 523 7707 -4006
251 520 506 -140 7569 -3480
255 531 515 -1878 8256 -980
257 542 523 -4178 8379 2102
260 552 532 -7211 9324 4647
261 560 538 -7773 10257 5976
264 569 544 -6459 9985 5957
265 581 553 -7014 9869 5610
269 598 564 -9973 10727 5808
274 615 574 -11004 10638 5414
280 638 583 -11892 10904 4672
287 672 600 -12883 11366 4259
298 719 634 -14005 11641 3723
310 780 680 -14920 11673 2749
327 854 733 -15322 11193 1731
345 935 781 -15700 10794 685
366 1026 860 -16071 10652 -240
386 1115 927 -16318 10462 -540
405 1200 979 -16557 10323 -31
428 1297 1035 -16627 10377 710
448 1390 1076 -16280 10261 1351
468 1496 1144 -15858 9795 1722
499 1644 1287 -15846 9344 1751
544 1851 1513 -15952 9121 1619
609 2128 1806 -15675 8879 1593
688 2457 2183 -15190 8578 1720
797 2894 2636 -14874 8356 2086
958 3534 2838 -14709 8096 2630
1050 3974 2920 -14729 7881 2783
1016 3761 3503 -14786 7620 2363
1100 3720 4379 -14918 7300 1763
1314 4193 5191 -15418 7333 1020
1468 4463 5608 -15624 7623 436
1831 5509 7083 -15560 7672 678
2742 8265 11593 -15515 7458 1298
4964 15257 23714 -15662 7129 1587
8940 27341 44415 -15925 6431 2140
9854 31163 49705 -15605 5848 2688
7686 25701 39813 -15140 6854 3272
5902 21240 29805 -15204 7131 3007
4008 15086 19329 -15746 6813 1725
2998 11471 14609 -16164 6484 1173
3472 13328 17445 -15658 6537 1448
3975 15361 20065 -14603 6698 1224
4622 17771 23813 -14282 6385 581
6250 23014 33080 -14698 6035 2080
9800 32420 52134 -15154 5337 3235
18639 52162 92576 -16586 4879 317
27488 71361 126408 -13998 5488 1834
35937 90002 157567 -14002 6010 1342
50485 120880 206374 -14483 6196 1364
71901 165177 282327 -14024 6734 2215
78869 185746 322505 -13322 7673 3426
78661 189531 330191 -12056 8726 5807
79585 191554 331526 -11217 9429 7489
80049 193024 332829 -11706 9547 7145
80774 194712 334334 -11255 9937 6904
81940 196662 335381 -10094 10589 6019
83098 197791 333502 -9703 10921 4728
82802 195592 324789 -9881 11012 3839
81729 192614 316424 -10341 10894 3068
80687 190088 309656 -10947 10725 2534
79953 188496 305527 -11439 10889 1997
79566 187773 303572 -11711 11333 1327
78813 186116 300084 -12057 11339 584
77752 183706 295512 -12417 10540 -564
76693 181134 290953 -12338 9701 -1078
75255 176387 286303 -12234 9719 -891
75107 175026 285386 -12407 10178 -1323
75593 175000 285648 -12240 10698 -1320
75974 175401 285481 -11862 11196 -845
76123 175777 286001 -11656 11448 -956
76345 176158 286802 -11512 11427 -1360
76297 175937 286533 -11349 11187 -1873
77522 177565 290067 -11143 11426 -2033
79922 180592 296577 -10773 12103 -1536
80266 181195 297943 -10480 12350 -1279
80576 181861 299232 -10403 12440 -1022
80622 181995 299177 -10473 12414 -908
80581 181980 298844 -10400 12250 -663
80573 181993 298609 -10152 12356 -512
80281 181397 297160 -9888 12788 -565
79695 180284 294493 -9729 13309 -708
78612 178337 289679 -9374 13455 -305
77151 175784 283461 -8899 13463 415
75247 172453 275630 -8719 13806 546
74166 171222 271124 -8664 14354 298
74923 174238 272985 -8590 14831 -25
77095 178257 277923 -8531 14823 -99
79672 183109 282251 -8668 14414 -50
79225 183402 276481 -8949 13896 -91
77762 181273 267034 -9351 13279 -420
75925 178062 257115 -9660 12824 -1061
72246 168165 241124 -9600 12602 -1222
68382 157530 226235 -9313 12546 -1029
66409 152019 217908 -8947 12553 -1137
65095 147881 212317 -8794 12389 -983
65865 149029 214671 -9142 12147 -175
68347 154449 223629 -10261 13009 2147
70862 159975 232363 -11160 12954 2715
72137 162571 236630 -11444 11580 852
72324 162607 236945 -11674 10714 -212
71907 161414 235339 -11927 9953 -667
71902 161244 235004 -12315 9557 -734
71915 161140 234401 -12482 9674 -346
68998 155097 226013 -12378 10218 567
65683 149282 218700 -12388 10345 1023
65003 148821 218524 -12409 10090 772
63965 148212 217277 -12184 10083 346
64379 150606 220856 -11980 10383 129
64959 153761 225223 -11874 10509 172
67966 164177 239192 -11899 10395 387
70680 171992 250299 -11968 10367 404
73114 182951 264087 -12033 10308 293
75638 211767 300821 -11902 10396 345
69442 216491 313950 -11638 10671 223
60145 217788 316005 -11760 10432 33
51965 209316 304036 -12353 11568 435
50323 199008 291647 -12582 9924 664
48870 189876 279505 -13175 9401 1543
46397 175557 259567 -14106 9962 2765
41946 155471 231735 -13947 9302 3835
39950 148526 221877 -13806 9104 5133
39459 147878 220003 -13879 8866 6281
39073 147106 217607 -13562 7809 7189
38095 144257 212200 -13370 7052 7819
37912 144932 211975 -12562 7557 8780
37551 146427 210324 -11946 8036 8488
36530 144554 202060 -11158 9221 8093
35707 139803 191272 -10420 10971 7721
35702 136767 185315 -9969 12399 7577
34383 127148 171059 -9604 12665 7561
30999 108597 145503 -8912 12458 7446
27485 86078 114054 -8126 12492 7480
19097 47299 59924 -7596 12306 7662
4529 11665 13258 -7162 11950 7671
1714 5469 6330 -6764 11927 7814
1054 4051 4730 -6446 11598 8090
954 3806 4412 -6458 11008 8242
919 3669 4231 -6616 10756 8485
886 3541 4033 -6603 10449 8532
846 3390 3780 -6597 10205 8416
807 3225 3503 -6671 9929 8560
772 3074 3252 -6738 9420 8844
747 2965 3060 -6688 9164 9140
782 3134 3271 -6434 9301 9191
815 3296 3391 -6357 9515 8893
814 3309 3342 -6253 9993 8451
818 3337 3331 -5541 11393 7826
824 3378 3348 -4169 13302 6389
830 3407 3369 -3642 14686 6376
833 3431 3394 -3927 15538 7032
836 3438 3405 -3805 16262 6415
829 3395 3374 -3775 16340 6233
825 3369 3367 -3837 15810 6254
827 3372 3400 -3746 15500 6335
831 3384 3445 -3427 15183 6568
829 3379 3458 -3309 14644 6919
825 3368 3441 -3550 14109 7193
820 3361 3430 -4072 13438 7389
818 3350 3407 -4728 12881 7653
810 3316 3344 -4917 12867 7834
807 3309 3327 -4679 13096 7966
792 3256 3223 -4779 13043 8129
781 3211 3128 -5172 12799 8423
776 3184 3067 -5461 12728 8786
770 3164 3024 -5440 12000 9301
765 3136 2981 -5510 12282 9284
761 3113 2946 -5542 12201 9045
755 3087 2909 -5381 12269 8784
750 3055 2862 -5106 12527 8473
746 3042 2848 -4639 12630 8246
742 3016 2825 -3808 12595 8265
737 2982 2796 -3067 12809 8189
728 2939 2749 -2594 12932 7950
729 2944 2751 -2281 12461 7951
730 2951 2750 -2377 11855 8217
730 2955 2741 -2660 11236 8626
726 2945 2717 -3047 10510 8956
726 2945 2698 -3243 9896 9213
728 2957 2693 -2961 9599 9281
4406 17967 12654 -2434 12046 7255
5454 22047 16311 -2111 12477 6360
6889 27802 22420 -2171 12779 5449
8856 36090 32760 -3112 13082 3945
11908 48139 48540 -3936 13474 2180
15822 62253 67655 -4038 13955 689
19865 76018 87676 -5138 14248 -779
24430 91575 110730 -5976 14550 -2381
29100 106949 134639 -6480 14477 -3189
30700 110382 145117 -7584 14291 -3475
28182 97317 133029 -8385 13855 -3847
26317 87519 123016 -9399 13600 -4215
24394 79020 113940 -10481 13669 -3966
23024 73257 108146 -10878 13106 -3396
21936 68964 104007 -12019 12528 -2316
21330 66990 102429 -12428 12588 -1813
21540 68315 104542 -12260 12620 -1234
23809 79278 121330 -12013 12526 -654
28219 101432 153133 -12098 12411 -382
31943 126654 186874 -12271 12680 75
35930 167282 238593 -12247 12810 711
36677 190121 267538 -12093 12400 556
34802 187267 263125 -12131 12286 232
34167 181530 254560 -11675 12366 -407
37670 191180 266161 -10790 12766 -793
41481 196745 272283 -9979 13214 -1392
46348 212268 294137 -9310 13623 -2053
47293 213956 296252 -8287 14112 -2572
46818 208825 289158 -7549 14194 -2981
45632 200748 277354 -7484 13996 -3151
41596 182147 250492 -7525 14044 -3260
39096 172403 236747 -7697 14084 -3348
37836 169953 235170 -7904 14198 -2958
47987 216601 305064 -8220 14215 -2590
53040 246801 347271 -8585 14334 -1826
52281 248228 351191 -8755 14423 -885
52759 260946 370517 -9514 13788 -7
52756 283819 398273 -10798 13355 1231
53104 296378 411872 -11673 13781 1726
54501 303234 418684 -11653 14011 1928
55576 310983 426477 -11295 14058 2749
56660 317802 433062 -11003 13797 3266
57891 322029 438266 -10701 12777 3505
60054 330100 448587 -10306 11533 2738
61127 331790 449232 -9319 10895 -371
61670 329797 445897 -8828 10543 -4598
61823 324356 440758 -8683 10806 -7960
65777 318625 442786 -8137 11324 -8870
61549 279188 379492 -8540 11268 -8713
25552 136086 185096 -9533 11051 -8291
13650 55007 81613 -9678 12090 -7398
8558 27512 42183 -9158 13779 -6062
6896 21636 30874 -8306 14510 -4859
5254 14670 22880 -6558 14584 -3752
3788 10439 15286 -4200 14690 -3376
10576 31080 37644 -2959 13888 -3833
24789 67379 82956 -3094 12107 -3473
30260 81362 100435 -3858 11804 -659
33416 91948 110185 -4154 12822 3605
31990 91535 104820 -3258 12997 6496
33366 95856 109607 -3718 12567 7785
27927 81489 92326 -4788 12183 8791
26280 77227 87774 -5161 12851 11743
27848 82033 94429 -6513 12796 10253
34740 100758 118774 -7804 12942 8586
43444 124516 148275 -9172 12991 7176
53586 149781 181691 -9524 12886 6738
54339 149238 181346 -8956 13058 6823
41918 116638 139207 -8674 13227 7069
32512 94688 109457 -8071 13210 7565
26262 79508 86199 -7323 12436 8361
23811 73182 76695 -5424 12218 8151
30567 92384 100010 -2840 13310 6196
31481 94140 97972 -2882 13977 5004
24431 75118 73237 -5152 14026 5538
24397 74741 72419 -5214 13956 4836
27109 81888 80229 -5394 13927 3191
31243 93020 93497 -7321 13942 2424
33017 97427 98534 -7808 14205 651
29943 89050 88419 -8197 14848 -2178
25924 77890 74911 -8857 14973 -2670
18827 57929 51767 -8338 14611 273
15734 49918 43124 -7798 14772 1518
17863 57108 51281 -7465 14922 -1125
22417 71018 66646 -6405 15049 -2882
28346 89437 88801 -5636 15458 -3673
43865 136295 147001 -5709 15714 -5362
60727 185568 208008 -6377 16011 -6227
62908 191971 215289 -4874 16192 -4237
62467 191299 214853 -1650 16507 -718
62607 191852 216193 383 16747 1775
63781 194959 220544 1815 16390 3223
80950 250268 298885 4680 14222 444
100569 351308 427209 6219 12359 -3278
91658 369805 440959 5552 13145 -4525
87279 376495 446712 3795 14587 -3228
86425 380048 454388 2818 14734 -649
86107 386176 463498 3619 14439 1932
85740 388790 465321 5175 14097 3848
85743 385796 464708 5378 13859 5134
85449 380977 461337 4670 13658 5648
84821 374290 456347 3079 13141 6430
84783 374008 455931 2399 13688 6368
84502 370617 452990 2577 14678 6307
84139 366204 448651 2334 15474 6563
84028 366023 447423 2029 15791 6667
84020 369588 449551 2968 15489 6645
84151 376541 454936 4632 14626 6683
85094 383827 462737 5555 13572 6828
86181 382026 461931 6472 11911 7524
85255 365045 450595 8394 10193 8473
83295 345334 435148 10189 9536 8971
82534 338902 428730 10544 9118 9342
81760 338301 425592 9518 8739 9563
81498 339707 425096 8209 8875 9549
81337 340703 424116 7087 9456 9660
81339 341704 423161 6274 10232 10258
81743 342818 423011 5843 10758 10807
82134 342306 421204 6142 11071 10761
82621 342587 420505 6646 11545 10246
83248 343602 420672 6999 11822 8617
83269 341149 417361 7077 11251 8025
80822 316762 391971 6055 11781 8036
77267 291483 364737 3877 12967 7274
77274 290082 364461 2897 12556 6935
77993 289145 365020 3273 11697 6452
78854 288187 365724 3660 12172 3839
79583 287781 366530 4146 13915 951
80562 286987 367222 4914 15124 -83
83560 285570 369977 5175 15013 872
88189 283573 372483 4428 14234 1924
90091 282552 373285 3731 13658 2815
90965 282367 373956 3575 13658 3410
91438 282001 373951 3493 14177 3301
91641 282706 374960 2983 14945 3942
92027 278956 368414 2364 15251 4845
90688 272454 356512 1677 15120 5695
89403 268740 349198 1049 14871 7304
87740 265115 343257 568 14737 8855
85047 258243 331099 156 14825 9912
77371 237632 295318 -325 14687 9930
67612 212543 255640 -1368 14351 8869
62594 199981 236848 -2358 14152 8123
55026 179044 205966 -2576 14155 7386
46546 154525 172263 -2395 14597 5925
42700 143584 157096 -2558 14923 4603
50528 164930 188112 -3979 13269 3954
62487 190530 237998 -5969 12583 3946
66414 197047 263120 -5752 14672 4918
100333 286947 389149 -2921 15087 6608
106604 325024 433024 -325 14687 9930
96096 274181 378228 -1368 14351 8869
72722 202035 281410 -2358 14152 8123
42187 124199 166963 -2576 14155 7386
27056 80349 107303 -2395 14597 5925
22114 65812 89169 -2558 14923 4603
20620 62155 82862 -3979 13269 3954
18050 53347 72309 -5969 12583 3946
16928 50084 67104 -5752 14672 4918
14989 44874 57791 -2921 15087 6608
13185 39467 51392 -87 15094 9036
12973 39368 52662 -140 14305 8837
13286 41134 52760 -148 13792 7890
12429 38913 51675 -1392 13543 5975
11641 36234 48926 -2875 14715 5007
10578 32883 44785 -2738 15129 5562
10235 31313 43567 -2685 14460 6016
9419 28478 40271 -3903 14293 6380
9198 27684 39451 -4447 13596 6181
9057 26979 39170 -4673 13202 3094
8882 26142 38669 -6462 14949 540
8585 25149 37407 -6659 15145 1311
8270 24373 35841 -5545 14311 2049
7981 23596 34683 -5805 14719 2333
7543 22062 33067 -6302 14763 2714
7246 20965 31972 -6892 14779 3251
6740 19267 30136 -6641 14723 3637
6473 18104 29243 -5631 15129 3799
6439 17840 29251 -4893 15219 3935
6372 17623 28850 -4572 15142 4453
6243 17341 28356 -4274 15105 4982
6530 18434 29630 -3953 15072 4883
6930 20067 31456 -3936 15132 4392
7311 21685 33242 -3776 15285 3957
7461 22441 33975 -3382 15125 3881
7644 23121 34864 -2970 15037 4181
6891 20395 31004 -1897 14763 4467
5980 17453 27137 -1374 14549 5005
5797 16735 26407 -1754 14733 5177
6072 17316 27868 -1499 14958 4532
6399 17792 28946 -846 15063 4069
5698 15029 26063 -587 15163 4204
5878 15491 27275 -537 15415 5096
6130 16329 28560 25 15368 5734
6217 16630 28912 671 15167 5430
5932 15612 27397 1080 15061 5092
5906 15640 27593 1354 15065 4738
7077 19797 32600 1331 15173 4151
9632 28546 42248 580 15451 4069
8178 25209 36283 -612 15531 4881
7646 24314 34513 -956 14761 6440
8276 26367 37812 -468 14693 8136
8001 24681 36281 -215 14785 9557
7695 22609 33950 -348 14348 9976
7893 22765 34855 -770 14352 9401
7764 22691 34056 -2408 14239 9454
6657 19480 29904 -3646 14294 9047
7338 21730 32735 -3099 14851 7202
7427 22102 32716 -1824 14091 4907
7876 23658 34423 -471 13109 -671
60045 170183 216833 10006 10352 -5041
46883 136044 161154 10724 8873 -3142
39461 118548 135596 9550 6695 -1100
43314 129729 153837 7154 5772 1189
54613 162221 205639 6732 5510 6117
67872 204628 265565 7318 3533 13210
67889 204062 263356 6210 2504 13988
66799 201336 260988 49 480 11186
71768 222707 290981 -6237 179 9291
80692 267408 347329 -10197 -125 1781
85158 297699 382479 -18321 -398 -3965
85288 312324 398652 -22998 1459 -3999
84787 320958 408141 -22265 789 -4529
84560 322709 409686 -21784 -539 -5001
84594 322184 407807 -21914 -1106 -4797
84442 320333 404541 -22796 -1912 -3808
86313 321054 406285 -22497 -3243 -2808
91122 322843 409654 -21138 -3565 -3262
93702 317143 399338 -20204 -4294 -3871
91128 311262 388084 -19838 -5517 -2645
86053 381769 468893 -15393 -7022 1502
86226 381149 467882 -15400 -6208 2866
86213 379618 466308 -15169 -5451 4114
86249 378236 466865 -15046 -5043 4453
86053 377978 467974 -14525 -4877 4335
86270 377991 471342 -13735 -4013 5462
107458 361998 434244 -12977 -2975 7342
90358 252391 304535 -11586 -2334 8763
102813 300622 356517 -10053 -1818 10057
104406 319587 368924 -8912 -1489 10942
97047 336122 378564 -8262 -1277 10989
93137 319535 364347 -6938 -1279 11345
90224 304413 351940 -5727 -1141 11917
89843 297564 342550 -6010 602 13222
87927 291385 330498 -6570 1829 10389
86575 282334 319668 -8270 1146 4412
85669 274360 311716 -11098 1183 4270
81316 243199 281322 -11805 2783 6328
55926 154622 181652 -12969 3706 7982
18755 52065 64207 -13525 3605 7001
19502 77591 118277 -14604 4120 6410
37326 171648 244921 -15091 4008 6708
44557 201091 283611 -15545 3685 6961
49256 211014 301408 -16472 3779 6636
53512 219455 319183 -17434 3471 6260
56575 224504 329746 -17116 3605 8138
70471 263891 384810 -15719 4145 8535
75554 288858 407105 -14895 4214 6179
78403 280069 401863 -13924 3876 4211
79433 268437 394652 -13582 4257 3714
75194 270144 396633 -14120 4885 4664
69923 265064 392026 -13840 4924 5658
73617 265141 395214 -13848 5105 6454
74139 263948 395838 -14831 5386 6997
72107 263758 387923 -15310 4925 6737
74708 258650 381828 -14852 4367 6756
80390 264659 387608 -14394 4316 8147
78714 252995 377991 -10942 5128 9724
74230 235313 362776 -10853 5745 10868
64536 204703 321011 -11245 5963 11758
51132 164493 264746 -10278 5909 11428
32431 104700 175438 -8846 6458 10627
12418 37283 71748 -8659 7422 10321
3724 9087 22750 -6646 8765 9503
1319 2347 8114 -4858 9558 9043
670 1158 3738 -4196 9868 9571
463 1292 1745 -3047 10329 10039
635 2397 921 -2727 10536 10610
1573 5470 1252 -1275 11156 11384
2665 8500 2615 1420 11697 10683
3100 9557 3323 3146 11782 8254
3331 10099 3810 4214 12008 5286
4093 12122 5804 5422 12407 2729
5492 15647 9754 6171 12671 468
6329 17570 12173 6425 12893 -1511
6515 17896 12516 6232 13078 -3221
5668 15729 9605 5915 13185 -4727
4390 12545 6098 5777 13097 -5869
3556 10391 4120 5699 12706 -6840
2371 7229 1967 6079 12440 -6955
1041 3461 759 6879 12917 -6750
330 1102 578 7249 13342 -7213
327 675 1617 6837 13181 -7833
1879 3189 13480 6424 12831 -8149
7681 19432 48730 6782 12502 -7847
18912 56949 111591 7273 12293 -7223
45976 171069 272527 7575 12198 -6767
51827 281764 395732 8589 11869 -4028
49561 296154 403814 8043 11055 -974
49873 299447 407784 5718 10112 3688
49962 258588 367553 2424 10071 8536
51795 207840 317949 -1467 10465 11438
52470 206320 316230 -5156 10153 11905
53763 207962 319695 -8304 10169 11110
54842 207098 320455 -10118 10513 8882
56445 208901 323857 -10178 10047 5931
57326 215355 332311 -10280 9406 3820
56589 204041 315580 -11305 9393 3617
53639 179102 279183 -13160 10065 5046
43371 136677 215602 -14057 9891 5330
1594 3115 8980 -14997 7389 2216
1264 2549 7236 -14807 7336 1136
972 1985 5394 -13564 7072 564
644 1478 3247 -13884 6799 877
459 1279 1972 -14674 6981 1732
431 1292 1717 -14219 7287 3170
404 1130 1731 -15303 7141 4186
405 979 1929 -16331 6903 3025
928 924 5582 -16057 7115 1073
2298 1931 13286 -15246 7302 -22
3282 3260 18106 -15340 6962 101
3241 3052 17539 -15773 6410 2082
2720 2236 14632 -15867 6537 4948
1767 1533 9061 -16274 6969 5767
1020 2145 3949 -15504 7567 7027
849 2715 3184 -14572 7626 6698
760 2624 3388 -14706 7509 3708
629 2179 2930 -14680 7823 1551
397 1281 1587 -15205 8217 1838
283 1031 761 -15376 8472 3338
294 1188 645 -14813 7799 5278
329 1401 616 -13713 6626 6158
352 1487 633 -12710 6166 6824
389 1633 721 -11300 6516 8574
403 1637 892 -9417 6962 10562
378 1380 1113 -8625 7001 11004
407 1317 1400 -7968 7155 10758
476 1534 1793 -7460 7338 10264
573 1963 2326 -8056 7022 9080
678 2469 2910 -8891 6704 8072
776 2941 3438 -10002 6475 7386
861 3358 3888 -11002 6331 6841
943 3743 4307 -11743 6022 6139
1023 4107 4744 -12562 5712 5368
1122 4491 5264 -13324 5585 4504
1293 5024 6103 -13785 5643 3690
1519 5629 7099 -14011 5694 2665
1813 6385 8381 -14035 5748 1748
2392 7917 10872 -13882 6057 1334
4197 12767 18449 -13783 6492 1124
6791 18814 26833 -13963 6708 1046
8092 21294 30305 -14454 6768 1139
8960 22753 32464 -14779 6957 1001
9168 22241 32164 -14741 7177 576
8416 19162 28992 -14659 7217 -63
7158 15760 25098 -14807 6494 -1095
5753 12620 21290 -14281 6868 -2326
4626 10008 18280 -13432 7988 -3451
3753 8634 14340 -13324 8002 -4365
3208 8904 10435 -13387 7927 -5128
8195 25756 22230 -9960 9848 -6601
9978 31478 27806 -10203 10067 -6262
12156 38508 36549 -10260 10338 -6141
14069 44201 46713 -10444 10477 -6225
15311 47600 55362 -10707 10470 -6072
14713 45517 55977 -10857 10421 -5699
12664 39511 50381 -10868 10042 -4918
11472 35960 48109 -11592 9272 -5127
9700 31295 43051 -12974 8046 -5342
8174 27186 37079 -14181 7145 -5311
7310 24714 32744 -14743 6875 -5045
7073 24203 31349 -14695 6313 -4467
6719 23470 29671 -14341 5842 -4030
6453 22769 28144 -14257 5656 -3921
6370 21812 26836 -15124 5124 -4026
6444 21001 26005 -16048 4582 -4339
6592 20567 25539 -15948 4362 -4465
6840 20444 25227 -15549 4473 -4263
7075 20432 24735 -15536 4683 -3922
7226 20616 24775 -15363 4785 -3493
7513 21235 25532 -15285 4521 -3546
7724 21878 26686 -15466 4534 -3914
7878 22454 27797 -15286 4748 -4125
8132 23192 29395 -15365 5224 -4528
8085 23106 29302 -15286 5867 -4560
7257 21216 25510 -14563 6200 -4129
6235 18791 20766 -14246 6347 -3843
5321 16760 16686 -14614 5975 -3659
4471 15343 14004 -15123 5351 -3567
3889 14845 13132 -15250 5067 -3721
3644 14696 13039 -15159 4964 -3985
3584 14512 13107 -14963 4927 -4052
3680 14722 13576 -14752 5073 -4232
3929 15932 14847 -14629 5314 -4636
4354 18889 17641 -14487 5609 -5030
5263 25360 23878 -14252 5992 -5333
6724 35460 34067 -13753 6862 -5533
8870 49580 48569 -13633 7180 -5716
11800 68472 68159 -13461 7418 -5893
16178 97796 98013 -13391 7526 -5714
21695 136240 135924 -13638 7432 -5319
26876 173690 171568 -13995 7202 -4965
30528 200472 196320 -14179 6951 -4663
33307 220437 214470 -14262 6754 -4370
35282 233709 226097 -14447 6475 -4092
36647 241849 233387 -14818 5993 -3801
37589 246138 237088 -15169 5489 -3487
37628 242409 233801 -15330 5142 -3133
37876 242016 233627 -15427 4955 -2851
37680 236639 228808 -15505 4796 -2625
36222 217996 212207 -15592 4643 -2369
33608 194509 190725 -15707 4488 -2203
31268 181959 179347 -15773 4446 -2170
31324 190830 187813 -15728 4446 -2043
32512 210525 206015 -15744 4274 -1718
34656 234502 228775 -15875 3998 -1370
35913 246210 240738 -15686 3755 -1124
36858 252524 249129 -15609 4058 -1045
38209 261050 258830 -15868 4230 -915
37148 251552 250033 -15989 3941 -724
36509 246454 245821 -15906 3722 -419
40095 274969 272319 -15806 3426 -67
43132 301478 295117 -15895 3285 -102
43987 308072 300070 -15945 3353 -180
43810 305335 296670 -15976 3477 -208
42658 293024 285272 -15870 3913 -614
41621 281799 275927 -15551 4602 -1205
41939 283502 278088 -15559 4785 -1239
42657 289042 283647 -15651 4863 -1046
43205 293182 287835 -15403 5353 -1224
43385 293537 288308 -15264 5842 -1289
43530 293812 288701 -15139 6360 -1416
43791 294884 289797 -14953 6738 -1718
44015 294630 289851 -15002 6676 -1728
44246 294462 289969 -15031 6495 -1586
44578 295676 291232 -14878 6491 -1518
44777 296143 291658 -14820 6807 -1728
44789 295462 291090 -14867 6912 -1792
44918 296163 291589 -14894 6915 -1801
44907 297904 293020 -14996 6805 -1735
44747 300596 295028 -15082 6652 -1567
44373 304357 297630 -15186 6513 -1312
39848 277029 270342 -15195 6412 -984
34416 231570 227443 -15149 6195 -648
31260 205616 201334 -15242 5806 -380
29251 192056 191508 -15341 5414 -159
28928 180964 184477 -15161 4973 454
29365 175210 180293 -15223 5068 735
29810 172053 177219 -15643 5661 434
30657 170244 177436 -15919 5863 710
31715 172063 180960 -15287 6062 1247
32298 176519 185405 -14332 7427 1516
32614 183712 191828 -14072 8087 1317
33461 195335 203178 -13897 7679 1009
33086 202787 206274 -13722 7787 940
32875 209033 208145 -13821 8001 810
33957 217074 215661 -13905 8044 919
35436 226888 225599 -14126 7944 1005
36754 236864 235522 -14542 7952 890
38525 251314 249781 -14694 7937 882
40290 265897 263634 -14543 7591 890
41837 279158 275876 -14535 6897 833
43069 290529 286156 -14881 6082 893
44559 305048 299553 -15183 5545 995
46559 325062 317388 -15248 5185 1187
47680 337973 328312 -15365 4902 1341
47685 341138 330805 -15514 4694 1413
46918 336808 327438 -15591 4701 1296
44476 316515 310053 -15583 4546 1445
41880 295969 293342 -15635 4102 2002
41029 289588 288960 -15783 3848 2388
40827 289782 289750 -15879 3897 2518
40866 292875 292281 -15687 4161 2480
40775 294598 293396 -15578 4638 1985
40666 295034 293608 -15655 5102 1485
40163 290160 288748 -15753 5044 1420
38547 275085 273796 -15686 4742 1498
36000 250488 250592 -15552 4569 1533
34501 235678 237064 -15378 4600 1453
34753 235107 237155 -14951 4880 1498
35176 235478 237643 -14873 5014 1561
34331 225935 228190 -15218 5047 1505
32947 212978 215695 -15344 5347 1068
31658 201124 204744 -15183 5767 479
31363 197418 202134 -15105 6037 234
32470 204691 211197 -15145 6154 275
34478 218198 226515 -15185 6338 258
36196 229962 239356 -15086 6567 120
37794 242254 252534 -14999 6702 13
39648 257484 268632 -15101 6759 -52
41576 274146 285959 -15257 6650 41
43279 289428 301641 -15219 6185 409
44992 304292 316414 -15217 5557 825
46289 316104 327608 -15481 5082 1036
47029 322856 334295 -15709 4725 1222
48279 335070 346187 -15744 4063 1920
49777 350729 360712 -15757 3725 2168
50723 362056 370469 -15824 3356 2274
50957 366740 373770 -15880 3208 2208
50042 360618 366567 -15951 2942 2168
47530 339468 344544 -16045 2514 2252
42705 298774 304258 -16082 2189 2412
38806 269087 276852 -16108 1825 2608
40925 286411 294301 -16116 1449 2877
41287 290236 297820 -16105 1523 2771
40989 289095 297259 -16020 2047 2278
40487 285931 294676 -15865 3915 1620
39633 279304 288632 -15973 3783 1569
38329 268591 278819 -15994 2152 1886
37019 257875 268512 -15797 2253 1765
35875 248585 259119 -15727 2299 1664
34658 238934 249507 -15731 2273 1586
34123 234466 245133 -15864 2238 1533
33997 232155 242749 -16097 2281 1509
33002 222209 230881 -16259 2498 1494
32407 216092 224496 -16154 2804 1507
32862 218285 227362 -15893 3115 1605
33385 221497 231143 -15896 3396 1583
33935 225300 235553 -15949 3470 1501
34477 229137 239990 -16045 4075 1357
35030 233243 244819 -16160 4910 1138
35614 237638 249763 -16002 5130 1056
36121 241535 254036 -15804 5204 1042
36551 245177 257830 -15691 5262 1054
37091 250050 262875 -15688 5272 1046
37344 253191 266070 -15599 5234 827
37261 253994 266879 -15613 5213 700
37062 254392 267069 -15675 5126 690
36326 250430 262501 -15730 4959 679
35288 244062 255314 -15840 4787 607
34016 235857 246003 -16066 4577 732
32684 227352 236412 -16221 4263 1087
32137 225139 233801 -16265 3985 1250
32605 230216 238960 -16255 3773 1263
34049 242344 251463 -16189 3554 1221
34958 248708 257751 -16173 3467 946
34694 246885 256618 -16295 3508 628
34974 250425 260774 -16230 3654 431
35759 258258 269057 -15939 4114 233
36893 269483 280659 -16123 3872 -71
38081 281278 292606 -16417 3126 -435
39168 292993 304431 -16205 2997 -772
40683 309135 320268 -15881 3047 -1021
41942 322501 333591 -15713 3123 -1291
42679 329823 341034 -15738 3094 -1575
43128 333875 344829 -15808 3112 -1815
43728 339844 350217 -15816 3005 -2041
44094 343330 353015 -15864 2495 -2163
43912 340773 350506 -15859 1825 -2091
43249 333329 343797 -15801 1183 -1984
41971 319719 331003 -15835 814 -1889
39877 298190 310200 -15973 639 -1868
36294 264215 277532 -16187 541 -2001
32425 228888 240709 -16373 456 -2147
31565 221369 232887 -16585 334 -2225
33319 234703 247382 -16849 89 -2154
34061 239766 252279 -17039 133 -2194
34891 247093 259381 -16211 1118 -2579
35637 254098 265833 -15953 2552 -3224
35668 254795 266480 -16468 3210 -3599
35694 255591 267182 -16008 3357 -3776
35792 257510 268976 -15661 3492 -4060
35851 259324 270727 -15687 3604 -4327
35909 261636 272886 -15582 3807 -4555
35969 264136 275158 -15387 3836 -4804
35939 265854 276658 -15313 3777 -5419
35942 267569 278117 -15200 3758 -5523
35980 269077 279368 -15056 3655 -5716
36022 270155 280151 -14947 3530 -6093
36032 270445 280401 -14584 3461 -6605
36053 270731 280598 -14016 3409 -7072
36059 270764 280578 -13604 3355 -7304
36102 270915 280785 -13502 3279 -7352
36119 270858 280773 -13540 3201 -7291
36140 270952 280869 -13956 3160 -7006
36128 270838 280768 -14323 3274 -6857
36118 270825 280747 -14649 3415 -6734
36125 271099 280986 -14966 3591 -6634
36149 271598 281253 -15280 3749 -6538
36231 272601 282131 -15452 3854 -6419
36328 273762 283328 -15509 3921 -6312
36458 275424 285115 -15622 3944 -6232
36544 276861 286601 -15663 3945 -6196
36534 276976 286596 -15481 3903 -6243
36440 275886 285342 -15184 3771 -6301
36579 276447 286187 -14927 3557 -6363
37054 280253 291630 -14745 3292 -6382
37506 285179 297897 -14629 2995 -6273
37434 285952 299658 -14801 2717 -6136
36571 278393 293061 -14917 2460 -5979
35206 266420 282252 -14938 2073 -5782
34647 262097 278671 -15031 1724 -5747
33825 254021 270810 -15133 1445 -5723
34869 262570 279844 -15227 1313 -5816
36570 277346 293861 -15091 1230 -6004
36816 279489 296180 -15077 984 -6099
36298 274201 290717 -15082 1170 -6367
35503 266630 283037 -15190 1334 -6305
35297 265308 282030 -15433 1214 -6102
35784 271092 288386 -15296 1264 -5987
37076 285076 302961 -15203 1404 -5991
38013 294844 312712 -15236 1520 -6260
38343 298305 316291 -15165 1479 -6406
38247 297702 315756 -15125 1455 -6460
38074 296382 314559 -15013 1288 -6437
38133 297324 315656 -14998 749 -6459
38633 302258 320582 -15050 422 -6511
39003 305504 323705 -15055 473 -6526
39333 307975 326019 -15126 549 -6529
39503 307571 325761 -15173 629 -6525
39513 304397 322495 -15188 560 -6466
39172 297423 314737 -15203 510 -6366
39026 293711 310938 -15305 599 -6332
39427 296481 313752 -15277 564 -6287
39987 301586 318740 -15256 669 -6297
40538 307277 324372 -15439 817 -6368
41044 312121 329397 -15449 947 -6261
41137 312535 329600 -15569 994 -6180
40872 310276 327150 -15778 1016 -6151
40792 311059 328376 -15757 980 -5894
40484 309554 326689 -15697 835 -5546
38745 291052 304923 -15846 716 -5449
35748 260222 270556 -15976 508 -5382
33959 243425 252967 -15699 307 -5029
33112 238143 248257 -15383 334 -4631
34330 250048 262258 -15727 535 -4495
36787 271848 286015 -16254 682 -4421
38155 285412 300732 -16322 684 -4291
39747 301662 318186 -16070 666 -4363
41983 325387 342963 -15903 365 -4417
44457 352843 370788 -15912 -80 -4482
46109 370041 388123 -15750 -313 -4705
46808 375465 394076 -15561 -294 -5039
47418 379199 398284 -15628 -95 -5270
48248 385247 404657 -15858 92 -5232
49488 395918 415881 -15871 -8 -5190
50967 408960 429561 -15746 -295 -5165
52298 419474 441748 -15725 -394 -5138
53223 424850 448454 -15828 -448 -5139
53808 428130 452021 -15971 -583 -5137
54610 415749 421349 -15628 -735 -5266
54804 413682 418083 -15556 -346 -5264
55177 412128 414609 -15565 165 -5358
55879 410804 411509 -15643 724 -5545
56944 409775 408901 -15766 1311 -5764
58197 410516 408479 -15847 1659 -5752
60119 413242 409937 -15722 1886 -5594
62186 416014 412497 -15654 2144 -5537
63641 419024 418336 -15718 2451 -5618
63825 420732 422983 -15765 2615 -5625
63424 420454 424687 -15825 2520 -5483
63079 419998 425637 -15922 2269 -5227
62648 419198 425657 -15898 1820 -4799
62273 418340 425179 -15631 1213 -4019
61832 417620 424599 -15671 1070 -3860
61259 416770 423795 -15747 1002 -3855
60707 415958 422982 -15758 979 -3811
60479 415252 422437 -15757 1015 -3739
60457 414757 422021 -15737 1097 -3717
60285 414492 421440 -15760 1287 -3807
59582 413813 420209 -15857 1610 -4029
59147 412875 418924 -15965 1924 -4220
59876 412083 418310 -16059 2287 -4380
60980 410708 417162 -16065 2316 -4423
60925 409519 415780 -15985 2370 -4421
60575 408534 414521 -15909 2369 -4342
60059 408024 413760 -15898 2252 -4274
58871 408012 413249 -15860 2151 -4292
56053 407559 411638 -15837 2070 -4304
52237 405750 409122 -15825 2017 -4214
50153 404580 408107 -15782 2022 -3972
50231 404554 408384 -15738 2438 -3988
53371 405168 410224 -15852 2570 -3904
57684 406463 412089 -15806 2865 -4148
59567 406992 412696 -15641 2905 -4360
58755 407739 412868 -15678 2724 -4354
57294 407689 412685 -15609 2528 -4281
56956 407224 412572 -15530 2678 -4274
57140 406218 412036 -15720 3024 -4323
57659 404193 410670 -15797 3301 -4326
59058 401238 408457 -15589 3579 -4504
60200 398499 406290 -15438 3848 -4729
61055 396359 404609 -15467 3966 -4671
61781 394619 403489 -15462 4005 -4554
62280 393136 402639 -15426 4029 -4503
62598 392356 402337 -15403 4049 -4453
62648 392228 402225 -15389 4063 -4423
62591 391781 401846 -15381 4062 -4415
62527 391196 401448 -15358 4051 -4406
62424 390781 401054 -15337 4058 -4417
62332 390483 400800 -15307 4073 -4449
62263 390138 400498 -15295 4037 -4468
62194 389818 400213 -15294 4010 -4467
62144 389563 400006 -15282 4028 -4453
62097 389336 399815 -15246 4039 -4453
62053 389118 399570 -15219 4033 -4467
62036 388929 399391 -15248 4018 -4458
61998 388733 399236 -15306 4003 -4426
61948 388580 399084 -15345 3970 -4390
61895 388507 398958 -15372 3912 -4377
61866 388431 398843 -15424 3871 -4397
61841 388335 398709 -15440 3728 -4502
61812 388183 398543 -15465 3673 -4481
61776 388046 398429 -15516 3651 -4473
61686 387863 398283 -15520 3656 -4477
61525 387608 398117 -15486 3678 -4509
61319 387337 397881 -15424 3733 -4566
61081 387073 397672 -15368 3784 -4611
60852 386878 397502 -15325 3824 -4608
60653 386757 397350 -15275 3878 -4582
60475 386674 397212 -15197 4002 -4695
60318 386620 397116 -15151 4051 -4830
60197 386546 397072 -15092 4097 -4941
60088 386457 397007 -15025 4145 -5036
59985 386378 396902 -14959 4200 -5146
59902 386234 396784 -14895 4238 -5229
59837 386049 396646 -14845 4267 -5305
59762 385836 396497 -14800 4317 -5415
59675 385617 396300 -14748 4371 -5522
59585 385416 396073 -14668 4437 -5632
59488 385182 395837 -14564 4509 -5744
59382 384992 395595 -14502 4561 -5821
59270 384803 395374 -14497 4623 -5864
59184 384635 395185 -14504 4706 -5855
59106 384447 394971 -14522 4809 -5755
59031 384230 394769 -14567 4935 -5640
58956 383988 394579 -14613 5085 -5551
58897 383775 394413 -14652 5271 -5480
58848 383554 394226 -14698 5497 -5410
58804 383326 394061 -14738 5744 -5313
58778 383134 393931 -14759 5930 -5204
58752 382972 393809 -14759 6064 -5125
58722 382817 393685 -14746 6171 -5096
58699 382698 393577 -14734 6235 -5115
58683 382604 393459 -14716 6285 -5146
58680 382537 393385 -14680 6319 -5150
58680 382498 393343 -14631 6331 -5115
58676 382469 393277 -14593 6316 -5065
58647 382411 393182 -14579 6301 -5050
58621 382379 393080 -14568 6296 -5084
58601 382341 393016 -14759 5930 -5204
58587 382317 392958 -14759 6064 -5125
58578 382243 392855 -14746 6171 -5096
58554 382153 392755 -14734 6235 -5115
58498 382023 392659 -14716 6285 -5146
58382 381849 392543 -14680 6319 -5150
58213 381661 392441 -14631 6331 -5115
58000 381445 392281 -14593 6316 -5065
57772 381179 392100 -14579 6301 -5050
57600 381029 391999 -14568 6296 -5084
57457 380932 391949 -14473 6220 -5215
57348 380910 391924 -14433 6220 -5258
57262 380894 391909 -14439 6232 -5317
57175 380814 391859 -14498 6224 -5352
57109 380785 391819 -14570 6205 -5350
57050 380754 391777 -14629 6165 -5343
57013 380745 391778 -14655 6108 -5322
56976 380747 391733 -14646 6075 -5277
56910 380708 391687 -14630 6047 -5222
56832 380688 391637 -14607 5996 -5174
56765 380630 391582 -14580 5987 -5142
56694 380553 391504 -14561 6038 -5153
56613 380498 391471 -14516 6099 -5214
56538 380401 391387 -14425 6167 -5290
56475 380347 391313 -14333 6233 -5369
56427 380288 391245 -14268 6296 -5427
56381 380202 391167 -14227 6342 -5449
56345 380129 391101 -14211 6378 -5480
56305 380070 391032 -14181 6414 -5540
56278 380039 391017 -14151 6446 -5586
56254 380092 391026 -14143 6454 -5596
56245 380107 390989 -14140 6451 -5595
56252 380112 390978 -14153 6449 -5605
56260 380132 390950 -14177 6449 -5615
56280 380184 390957 -14199 6452 -5619
56288 380195 390935 -14212 6449 -5618
56304 380202 390917 -14222 6447 -5606
56316 380207 390886 -14236 6438 -5605
56330 380235 390889 -14240 6431 -5598
56351 380291 390891 -14230 6418 -5569
56367 380305 390854 -14226 6393 -5561
56385 380311 390831 -14213 6373 -5547
56393 380307 390823 -14164 6370 -5527
56380 380273 390805 -14116 6378 -5538
56320 380222 390760 -14107 6381 -5570
56187 380087 390680 -14102 6377 -5603
55990 379903 390541 -14098 6377 -5626
55767 379700 390389 -14099 6382 -5660
55562 379455 390213 -14080 6388 -5698
55394 379325 390090 -14067 6392 -5691
54683 378536 389367 -14146 6364 -5602
54618 378480 389296 -14133 6386 -5588
54561 378417 389236 -14141 6398 -5583
54514 378363 389180 -14148 6404 -5583
54477 378327 389131 -14138 6418 -5551
54450 378298 389101 -14142 6425 -5516
54435 378272 389055 -14144 6428 -5506
54424 378250 388996 -14143 6434 -5515
54417 378259 388970 -14135 6441 -5535
54411 378258 388932 -14120 6454 -5548
54414 378229 388896 -14106 6461 -5542
54414 378207 388861 -14103 6465 -5541
54425 378214 388832 -14117 6476 -5553
54446 378218 388803 -14109 6481 -5551
54476 378252 388809 -14091 6487 -5540
54500 378281 388803 -14086 6493 -5531
54526 378330 388797 -14088 6498 -5524
54563 378382 388801 -14094 6498 -5531
54604 378432 388824 -14102 6493 -5562
54631 378458 388827 -14108 6489 -5591
54624 378457 388832 -14144 6482 -5588
54547 378398 388783 -14190 6480 -5559
54394 378261 388725 -14195 6490 -5507
54191 378087 388632 -14166 6492 -5465
53981 377927 388531 -14123 6488 -5458
53797 377793 388439 -14092 6485 -5479
53658 377720 388404 -14053 6481 -5503
53553 377654 388372 -14020 6472 -5528
53457 377617 388363 -14033 6464 -5566
53383 377599 388364 -14073 6454 -5591
53325 377566 388340 -14118 6449 -5602
53299 377540 388330 -14137 6455 -5593
53287 377558 388349 -14110 6455 -5571
53286 377569 388374 -14072 6457 -5556
53287 377594 388388 -14050 6452 -5530
53289 377540 388317 -14048 6447 -5520
53287 377446 388252 -14051 6455 -5533
53282 377282 388100 -14065 6469 -5564
53271 377075 387950 -14090 6474 -5595
53281 377115 387980 -14097 6495 -5617
53299 377103 387950 -14101 6507 -5649
53309 377053 387899 -14126 6519 -5671
53332 376983 387832 -14111 6526 -5714
53359 376900 387767 -14070 6535 -5654
53385 376843 387700 -14170 6542 -5485
53409 376807 387621 -14314 6553 -5435
53418 376819 387609 -14260 6562 -5545
53435 376823 387599 -14075 6549 -5663
53458 376833 387576 -13943 6509 -5732
53473 376841 387574 -13849 6482 -5801
53497 376857 387571 -13814 6471 -5857
53515 376877 387563 -13800 6451 -5895
53545 376887 387547 -13792 6447 -5895
53586 376910 387545 -13857 6439 -5815
53626 376919 387541 -13958 6421 -5758
53665 376947 387549 -14023 6415 -5777
53705 376949 387526 -14017 6416 -5729
53743 376972 387538 -14014 6408 -5658
53753 376965 387549 -14027 6395 -5663
53687 376861 387504 -14019 6390 -5689
53537 376704 387424 -14004 6402 -5700
53333 376525 387346 -13989 6420 -5695
53128 376390 387266 -14000 6435 -5688
52936 376256 387227 -14017 6452 -5712
52775 376139 387161 -14003 6461 -5729
52641 376061 387147 -13992 6463 -5698
52533 375982 387111 -14050 6471 -5670
52446 375903 387091 -14135 6495 -5670
52377 375837 387049 -14195 6526 -5649
52335 375808 387037 -14223 6535 -5593
52316 375809 387049 -14220 6536 -5546
52309 375803 387045 -14183 6536 -5553
52298 375808 387053 -14068 6550 -5604
52276 375783 387048 -13936 6572 -5633
52242 375742 387038 -13874 6577 -5650
52194 375686 387021 -13887 6578 -5653
52147 375635 386990 -13938 6568 -5629
52110 375593 386956 -13974 6558 -5588
52083 375579 386932 -13985 6554 -5554
52055 375541 386934 -14041 6572 -5510
52038 375525 386913 -14083 6560 -5496
52034 375511 386896 -14106 6553 -5494
52042 375508 386893 -14085 6557 -5496
52055 375509 386886 -14067 6569 -5502
52071 375514 386896 -14075 6573 -5499
52099 375529 386908 -14083 6570 -5480
52135 375562 386921 -14091 6566 -5467
52168 375601 386958 -14095 6570 -5470
52213 375626 386976 -14089 6575 -5489
52261 375659 386993 -14067 6574 -5486
52318 375715 387045 -14056 6570 -5449
52381 375750 387064 -14073 6565 -5422
52436 375801 387105 -14091 6564 -5402
52458 375811 387116 -14109 6558 -5386
52398 375728 387077 -14122 6548 -5375
52249 375565 387014 -14106 6541 -5357
52050 375367 386891 -14091 6536 -5342
51835 375187 386798 -14106 6555 -5347
51649 374997 386704 -14107 6576 -5365
51499 374904 386650 -14088 6585 -5368
51380 374828 386609 -14088 6593 -5374
51287 374769 386563 -14121 6601 -5406
51210 374694 386522 -14163 6608 -5432
51157 374620 386471 -14180 6609 -5433
51127 374568 386421 -14156 6600 -5407
51116 374523 386383 -14112 6587 -5366
51111 374492 386349 -14078 6581 -5345
51093 374464 386330 -14048 6572 -5337
51064 374502 386359 -14026 6559 -5313
51018 374472 386325 -14020 6570 -5298
50964 374438 386307 -14063 6587 -5288
50909 374390 386287 -14127 6574 -5262
50867 374352 386263 -14171 6560 -5236
50835 374298 386226 -14224 6560 -5236
50824 374275 386189 -14270 6569 -5266
50830 374194 386125 -14252 6596 -5330
50842 374112 386024 -14150 6623 -5384
50865 374066 385972 -14117 6616 -5379
50896 374049 385958 -14116 6607 -5444
50937 374036 385917 -13928 6654 -5558
50998 374046 385883 -13956 6602 -5445
51063 374066 385872 -14094 6560 -5374
51131 374087 385866 -14173 6520 -5312
51194 374113 385882 -14233 6494 -5241
51254 374169 385911 -14275 6502 -5211
51301 374232 385923 -14236 6510 -5209
51335 374297 385892 -14203 6497 -5188
51350 374375 385909 -14234 6483 -5144
51352 374414 385917 -14355 6399 -5069
51269 374296 385797 -14401 6403 -5112
51082 374054 385626 -14337 6429 -5217
50836 373881 385524 -14156 6432 -5232
50590 373751 385443 -14024 6391 -5029
50378 373640 385397 -14038 6351 -4819
50220 373528 385357 -14136 6344 -4770
50099 373451 385306 -14297 6357 -4731
50009 373427 385284 -14497 6342 -4582
49947 373403 385290 -14649 6298 -4427
49919 373416 385326 -14729 6263 -4315
49929 373438 385372 -14763 6246 -4240
49944 373495 385424 -14775 6239 -4224
49943 373523 385475 -14782 6224 -4241
49932 373543 385518 -14781 6198 -4253
49900 373535 385533 -14782 6176 -4241
49853 373510 385542 -14794 6163 -4250
49804 373477 385538 -14787 6171 -4306
49762 373477 385544 -14748 6207 -4384
49732 373473 385564 -14696 6245 -4496
49718 373476 385575 -14612 6265 -4614
49717 373472 385582 -14519 6295 -4676
49728 373463 385578 -14452 6336 -4693
49754 373493 385607 -14403 6368 -4726
49781 373520 385624 -14386 6386 -4765
49815 373527 385633 -14391 6386 -4761
49858 373573 385667 -14416 6382 -4731
49897 373608 385686 -14453 6380 -4702
49945 373643 385688 -14490 6382 -4688
49999 373654 385697 -14522 6392 -4683
50056 373694 385712 -14520 6373 -4674
50121 373739 385754 -14550 6380 -4652
50183 373761 385765 -14570 6389 -4644
50227 373798 385787 -14575 6390 -4636
50207 373734 385768 -14565 6381 -4635
50088 373587 385704 -14568 6372 -4635
49897 373393 385620 -14577 6357 -4636
49678 373185 385533 -14576 6346 -4640
49482 373036 385483 -14547 6335 -4634
49332 372940 385453 -14490 6307 -4650
49223 372862 385419 -14487 6297 -4674
49148 372815 385414 -14536 6311 -4676
49096 372799 385433 -14574 6320 -4662
49072 372812 385476 -14596 6320 -4626
49072 372842 385533 -14598 6314 -4586
49097 372903 385575 -14582 6306 -4564
49130 372944 385630 -14571 6292 -4557
49147 372948 385668 -14561 6284 -4550
49156 372970 385708 -14541 6291 -4556
49150 372969 385736 -14524 6296 -4584
49144 373003 385784 -14519 6282 -4611
49130 373031 385829 -14540 6277 -4601
49129 373053 385854 -14573 6291 -4592
49138 373072 385876 -14589 6311 -4586
49152 373082 385902 -14593 6323 -4575
49174 373119 385929 -14588 6332 -4562
49206 373150 385950 -14587 6343 -4550
49245 373193 385972 -14596 6353 -4550
49293 373209 385987 -14607 6366 -4541
49344 373253 386010 -14608 6368 -4533
49398 373299 386041 -14582 6346 -4557
49457 373348 386072 -14564 6341 -4572
49525 373396 386098 -14565 6355 -4560
49593 373447 386129 -14560 6362 -4556
49663 373506 386150 -14560 6365 -4556
49731 373551 386168 -14561 6362 -4557
49778 373555 386178 -14559 6365 -4545
49752 373500 386158 -14560 6361 -4540
49625 373343 386092 -14565 6352 -4544
49429 373150 386000 -14570 6348 -4542
49222 372974 385924 -14513 6310 -4578
49045 372832 385876 -14516 6322 -4554
48804 372699 385951 -14571 6346 -4530
48796 372665 385956 -14591 6347 -4508
48793 372656 385958 -14597 6360 -4499
48789 372654 385960 -14600 6370 -4514
48802 372662 385968 -14596 6371 -4530
48819 372663 385990 -14580 6369 -4537
48848 372679 385999 -14563 6371 -4549
48881 372703 386016 -14544 6378 -4563
48919 372730 386037 -14506 6364 -4576
48965 372760 386059 -14500 6353 -4569
49011 372804 386078 -14530 6366 -4560
49070 372850 386100 -14544 6381 -4557
49129 372889 386141 -14542 6381 -4559
49189 372938 386152 -14546 6373 -4574
49257 372979 386179 -14555 6375 -4575
49329 373041 386208 -14551 6390 -4560
49402 373091 386225 -14545 6396 -4553
49479 373138 386263 -14532 6382 -4560
49549 373181 386294 -14512 6369 -4566
49587 373194 386298 -14522 6369 -4558
49532 373121 386266 -14550 6380 -4545
49367 372922 386160 -14568 6387 -4548
49141 372714 386071 -14575 6386 -4540
48921 372523 385984 -14567 6382 -4526
48742 372376 385912 -14545 6380 -4521
48613 372294 385890 -14521 6385 -4516
48529 372227 385850 -14544 6399 -4535
48478 372206 385858 -14588 6409 -4552
48446 372177 385869 -14575 6385 -4575
48441 372174 385863 -14576 6389 -4554
48467 372212 385901 -14566 6384 -4535
48508 372262 385941 -14537 6379 -4522
48533 372285 385952 -14518 6373 -4504
48543 372268 385957 -14524 6373 -4491
48536 372241 385958 -14541 6376 -4497
48512 372219 385949 -14553 6380 -4507
48489 372200 385947 -14565 6390 -4519
48475 372211 385969 -14564 6382 -4568
48479 372228 386008 -14561 6360 -4616
48500 372236 386030 -14583 6350 -4606
48516 372258 386038 -14587 6340 -4567
48542 372271 386054 -14560 6327 -4539
48577 372305 386077 -14536 6314 -4518
48619 372362 386109 -14543 6316 -4497
48668 372384 386131 -14555 6336 -4470
48720 372403 386140 -14563 6366 -4434
48780 372400 386146 -14557 6412 -4400
48841 372440 386169 -14504 6522 -4413
48909 372494 386200 -14512 6549 -4414
48982 372578 386251 -14555 6540 -4423
49064 372655 386313 -14590 6512 -4445
49149 372754 386354 -14619 6464 -4462
49231 372847 386422 -14664 6391 -4499
49268 372889 386455 -14718 6289 -4550
49203 372822 386449 -14744 6180 -4580
49029 372681 386404 -14735 6064 -4566
48797 372480 386311 -14702 5961 -4515
48571 372302 386246 -14615 5891 -4461
48389 372186 386215 -14526 5897 -4423
48257 372091 386190 -14500 5997 -4420
48167 372040 386172 -14513 6126 -4439
48116 372000 386168 -14542 6247 -4448
48086 371972 386147 -14553 6352 -4450
48077 371951 386157 -14540 6446 -4464
48093 371996 386188 -14545 6528 -4495
48129 372030 386217 -14597 6581 -4532
48163 372082 386240 -14667 6591 -4555
48191 372120 386274 -14686 6565 -4550
48201 372113 386269 -14658 6511 -4496
48194 372102 386286 -14604 6458 -4406
48183 372105 386286 -14565 6419 -4347
48173 372123 386327 -14576 6384 -4333
48170 372109 386328 -14598 6354 -4335
48178 372098 386333 -14612 6333 -4341
48205 372110 386354 -14599 6338 -4345
48241 372153 386381 -14524 6360 -4353
48284 372191 386410 -14398 6377 -4371
48336 372223 386420 -14277 6454 -4459
48398 372273 386463 -14368 6488 -4505
48460 372320 386495 -14480 6511 -4535
48533 372371 386518 -14571 6521 -4521
48602 372437 386535 -14593 6532 -4471
48676 372509 386591 -14545 6546 -4415
48745 372551 386617 -14482 6568 -4400
48825 372607 386641 -14463 6607 -4418
48905 372645 386655 -14481 6634 -4409
48988 372695 386686 -14436 6681 -4316
49072 372779 386713 -14466 6693 -4299
49151 372822 386739 -14539 6691 -4319
49219 372842 386743 -14605 6666 -4332
49253 372814 386725 -14626 6631 -4309
49185 372697 386681 -14588 6611 -4255
48986 372492 386546 -14520 6604 -4217
48719 372228 386435 -14472 6598 -4208
48459 372005 386333 -14446 6583 -4223
48240 371831 386265 -14438 6585 -4277
48080 371724 386217 -14450 6592 -4315
47976 371676 386201 -14470 6575 -4313
47909 371650 386190 -14486 6546 -4308
47869 371632 386190 -14509 6516 -4332
47854 371632 386189 -14548 6475 -4378
47858 371655 386210 -14572 6426 -4422
47890 371695 386250 -14579 6386 -4460
47932 371716 386258 -14583 6358 -4481
47962 371741 386278 -14590 6334 -4462
47972 371749 386291 -14579 6300 -4422
47962 371744 386278 -14528 6251 -4390
47940 371727 386273 -14511 6257 -4383
47926 371722 386283 -14563 6319 -4390
47919 371735 386295 -14625 6365 -4370
47928 371757 386308 -14663 6399 -4323
47953 371819 386356 -14678 6433 -4276
47986 371848 386409 -14676 6464 -4250
48030 371902 386435 -14682 6483 -4255
48078 371953 386463 -14716 6489 -4283
48135 372027 386527 -14733 6481 -4297
48205 372108 386571 -14582 6441 -4262
48280 372191 386624 -14495 6441 -4261
48352 372277 386698 -14450 6444 -4279
48436 372393 386765 -14470 6443 -4278
49464 373413 387341 -14396 6675 -4456
49489 373439 387352 -14407 6715 -4441
49392 373381 387355 -14467 6723 -4418
49184 373254 387320 -14512 6704 -4401
48926 373084 387261 -14511 6680 -4407
48699 372941 387205 -14503 6689 -4453
48524 372865 387175 -14493 6722 -4520
48412 372851 387205 -14512 6719 -4530
48354 372888 387241 -14553 6678 -4504
48329 372949 387279 -14540 6650 -4535
48321 372986 387318 -14459 6633 -4608
48342 373044 387363 -14331 6615 -4673
48395 373102 387383 -14203 6607 -4738
48459 373175 387429 -14106 6618 -4836
48513 373231 387452 -14036 6649 -4972
48553 373256 387476 -13990 6670 -5094
48573 373273 387490 -13931 6697 -5182
48573 373280 387497 -13874 6707 -5262
48566 373296 387500 -13820 6699 -5344
48569 373288 387510 -13771 6707 -5406
48579 373303 387515 -13755 6723 -5433
48601 373318 387513 -13764 6740 -5429
48632 373353 387537 -13793 6756 -5416
48673 373394 387565 -13842 6772 -5382
48723 373441 387595 -13905 6778 -5322
48788 373511 387619 -13953 6796 -5256
48859 373556 387651 -14020 6875 -5192
48934 373621 387678 -14036 6893 -5153
49008 373689 387708 -14027 6907 -5135
49089 373770 387766 -14005 6935 -5147
49964 374408 388042 -13772 7011 -5353
49844 374267 387979 -13752 6984 -5336
49619 374038 387864 -13747 6965 -5321
49369 373823 387746 -13789 6967 -5356
49161 373643 387648 -13872 6983 -5387
49007 373519 387593 -13879 6959 -5367
48915 373431 387536 -13840 6930 -5341
48867 373396 387514 -13791 6896 -5335
48856 373389 387510 -13762 6875 -5319
48868 373401 387503 -13763 6860 -5310
48905 373441 387524 -13789 6854 -5319
48963 373479 387547 -13818 6845 -5318
49022 373524 387585 -13842 6831 -5331
49062 373555 387578 -13850 6836 -5350
49086 373551 387573 -13849 6853 -5359
49087 373544 387574 -13847 6853 -5345
49082 373528 387573 -13864 6840 -5321
49069 373507 387557 -13887 6831 -5318
49070 373514 387567 -13891 6840 -5316
49083 373529 387572 -13882 6867 -5311
49103 373542 387558 -13877 6891 -5308
49132 373568 387577 -13881 6911 -5304
49169 373591 387596 -13887 6918 -5293
49212 373615 387583 -13895 6929 -5287
49261 373641 387605 -13901 6936 -5294
49315 373681 387606 -13906 6919 -5290
49371 373719 387621 -13903 6889 -5280
49437 373768 387651 -13899 6878 -5275
49510 373825 387671 -13899 6873 -5261
49585 373869 387684 -13895 6863 -5256
49664 373914 387714 -13898 6853 -5257
49745 373990 387737 -13911 6845 -5237
49827 374061 387768 -13935 6841 -5208
49919 374112 387799 -13954 6847 -5202
50010 374183 387817 -13949 6887 -5236
50086 374229 387843 -13953 6871 -5216
50096 374225 387838 -13917 6846 -5181
49988 374102 387772 -13884 6835 -5177
49766 373881 387656 -13923 6858 -5214
49505 373659 387541 -13990 6867 -5237
49273 373492 387464 -14023 6854 -5242
49099 373375 387411 -14013 6848 -5222
48981 373291 387380 -13967 6850 -5210
48917 373252 387354 -13921 6847 -5232
48892 373229 387351 -13906 6832 -5228
48881 373235 387372 -13888 6822 -5230
48897 373261 387386 -13902 6824 -5240
48944 373305 387405 -13926 6824 -5227
48999 373366 387437 -13920 6827 -5210
49048 373401 387462 -13911 6840 -5232
49081 373423 387466 -13908 6855 -5255
49092 373418 387486 -13920 6869 -5251
49083 373409 387483 -13930 6878 -5260
49070 373398 387464 -13924 6890 -5267
49062 373396 387463 -13903 6898 -5253
49068 373408 387466 -13899 6894 -5244
49087 373423 387478 -13906 6885 -5249
49116 373443 387490 -13903 6884 -5260
49155 373486 387507 -13902 6884 -5260
49199 373508 387531 -13908 6881 -5261
50013 374140 387804 -13897 6809 -5259
50101 374211 387830 -13918 6818 -5262
50177 374270 387853 -13931 6822 -5253
50194 374268 387871 -13932 6822 -5239
50091 374152 387825 -13953 6825 -5246
49862 373939 387718 -13991 6830 -5255
49578 373705 387580 -14018 6833 -5254
49318 373503 387493 -14004 6822 -5252
49121 373366 387427 -13957 6804 -5247
48986 373281 387394 -13917 6784 -5249
48910 373226 387377 -13900 6764 -5247
48870 373212 387367 -13903 6765 -5239
48855 373210 387365 -13915 6798 -5247
48856 373219 387380 -13935 6822 -5253
48886 373241 387394 -13946 6817 -5240
48933 373287 387427 -13932 6807 -5238
48979 373329 387445 -13918 6807 -5265
49015 373353 387459 -13906 6813 -5291
49032 373363 387468 -13890 6820 -5293
49024 373336 387462 -13897 6824 -5277
49013 373319 387463 -13899 6821 -5253
48997 373316 387454 -13896 6822 -5250
48993 373303 387450 -13932 6828 -5285
49001 373313 387464 -13939 6824 -5277
49021 373338 387476 -13935 6823 -5260
49049 373347 387475 -13934 6817 -5251
49088 373373 387484 -13935 6819 -5259
49137 373411 387500 -13933 6820 -5269
49189 373469 387524 -13929 6805 -5270
49254 373526 387553 -13927 6790 -5259
49324 373569 387569 -13927 6784 -5245
49401 373633 387598 -13934 6802 -5254
49476 373691 387614 -13938 6824 -5272
49559 373732 387641 -13942 6826 -5271
49648 373786 387667 -13961 6810 -5263
49735 373853 387691 -13959 6787 -5250
49824 373900 387704 -13947 6787 -5232
49910 373961 387732 -13949 6780 -5228
50001 374013 387738 -13956 6772 -5229
50090 374064 387764 -13977 6767 -5230
50174 374117 387781 -13985 6749 -5235
50230 374151 387812 -13976 6751 -5236
50201 374098 387789 -13986 6779 -5261
50035 373926 387701 -14015 6790 -5300
49772 373704 387581 -14036 6787 -5311
49496 373468 387480 -14029 6787 -5305
49269 373319 387408 -13995 6764 -5294
49114 373212 387353 -13947 6728 -5279
49017 373146 387329 -13911 6708 -5271
48966 373114 387324 -13903 6704 -5254
48947 373115 387320 -13916 6712 -5246
48948 373133 387329 -13941 6730 -5269
48975 373167 387353 -13958 6744 -5286
49022 373236 387393 -13968 6734 -5276
49068 373305 387430 -13982 6716 -5275
49103 373340 387452 -13989 6708 -5294
49111 373380 387491 -13995 6702 -5297
49091 373414 387516 -13993 6697 -5276
49063 373422 387559 -13938 6693 -5256
49039 373425 387576 -13891 6697 -5265
49022 373436 387577 -13958 6707 -5294
49019 373460 387599 -14032 6717 -5318
49035 373492 387649 -13998 6731 -5293
49067 373509 387689 -13984 6714 -5274
49108 373530 387692 -13975 6721 -5278
49157 373558 387720 -13972 6730 -5277
49214 373585 387721 -13957 6720 -5245
49278 373549 387689 -13940 6714 -5227
49334 373436 387570 -14010 6708 -5235
49391 373256 387415 -14095 6687 -5252
49448 373086 387259 -14113 6652 -5223
49517 372945 387133 -14148 6603 -5185
49598 372808 387012 -14133 6586 -5211
49682 372738 386949 -14064 6619 -5259
49772 372740 386945 -13971 6665 -5353
49858 372780 386938 -13907 6657 -5372
49935 372842 386939 -13883 6586 -5229
50001 372921 386966 -13971 6534 -5115
50039 372977 387004 -14144 6544 -5127
49978 372929 386987 -14257 6578 -5154
49789 372777 386918 -14275 6634 -5164
49518 372606 386841 -14265 6638 -5147
49248 372504 386823 -14259 6588 -5141
49025 372416 386784 -14212 6572 -5167
48866 372368 386776 -14143 6576 -5159
48767 372379 386784 -14110 6592 -5154
48716 372405 386812 -14104 6617 -5172
48688 372433 386834 -14110 6638 -5198
48695 372482 386866 -14108 6639 -5218
48736 372558 386895 -14065 6659 -5275
48801 372624 386952 -13983 6714 -5388
48862 372688 386989 -13895 6765 -5470
48904 372711 386993 -13833 6766 -5448
48912 372700 386983 -13807 6740 -5377
48897 372711 386984 -13833 6748 -5331
48876 372678 386977 -13886 6751 -5293
48861 372681 386987 -13948 6741 -5253
48858 372688 386991 -14007 6750 -5232
48864 372705 386999 -14055 6768 -5242
48890 372720 387017 -14077 6777 -5247
48926 372755 387030 -14053 6772 -5246
48976 372789 387054 -14022 6761 -5255
49027 372851 387067 -13994 6749 -5255
49090 372894 387091 -13965 6723 -5248
49157 372950 387105 -13959 6693 -5228
49225 373011 387130 -13983 6687 -5199
49304 373066 387152 -14007 6684 -5187
49379 373097 387161 -14015 6672 -5188
49458 373157 387195 -14024 6667 -5174
49539 373224 387206 -14054 6676 -5152
49628 373307 387245 -14083 6677 -5144
49718 373363 387268 -14057 6690 -5143
49786 373432 387292 -14096 6693 -5127
49779 373408 387286 -14145 6707 -5118
49646 373278 387223 -14167 6726 -5110
49415 373070 387112 -14153 6729 -5087
49161 372888 387015 -14104 6731 -5070
48939 372726 386951 -14060 6727 -5074
48787 372634 386907 -14043 6711 -5078
48692 372590 386876 -14038 6713 -5072
48637 372543 386879 -14031 6783 -5093
48599 372531 386870 -14044 6798 -5087
48589 372521 386853 -14028 6806 -5069
48608 372566 386880 -14034 6804 -5077
48658 372610 386912 -14052 6799 -5095
48715 372667 386934 -14059 6794 -5086
48760 372707 386955 -14065 6779 -5057
48785 372721 386977 -14047 6783 -5055
48788 372725 386977 -14025 6791 -5080
48783 372724 386974 -14023 6781 -5109
48774 372727 386974 -14035 6788 -5130
48773 372732 386976 -14032 6806 -5118
48790 372732 386984 -14023 6796 -5108
48816 372755 386992 -14029 6776 -5099
48852 372795 387004 -14028 6765 -5083
48896 372822 387017 -14020 6762 -5084
48946 372876 387028 -14011 6754 -5102
48999 372915 387075 -14013 6745 -5101
49062 372977 387081 -14024 6740 -5087
49129 373022 387110 -14033 6736 -5084
49202 373077 387123 -14031 6754 -5096
49279 373147 387150 -14033 6771 -5100
49362 373204 387187 -14050 6759 -5079
49447 373276 387210 -14042 6744 -5042
49534 373347 387248 -14020 6739 -5033
49609 373414 387271 -14040 6754 -5066
49637 373413 387284 -14090 6779 -5084
49550 373322 387236 -14123 6788 -5082
49354 373118 387141 -14118 6774 -5075
49106 372921 387038 -14084 6753 -5075
48882 372766 386965 -14050 6754 -5094
48721 372659 386922 -14024 6766 -5098
48618 372602 386907 -14009 6750 -5084
48559 372573 386894 -14012 6739 -5074
48537 372558 386892 -14020 6745 -5070
48537 372562 386925 -14020 6743 -5060
48567 372601 386931 -14009 6748 -5057
48624 372660 386972 -14003 6768 -5084
48687 372733 386996 -14014 6781 -5094
48743 372762 387033 -14029 6786 -5095
48779 372783 387038 -14050 6754 -5094
48796 372784 387030 -14024 6766 -5098
48798 372787 387047 -14009 6750 -5084
48801 372777 387058 -14012 6739 -5074
48808 372776 387057 -14020 6745 -5070
48825 372787 387061 -14020 6743 -5060
48848 372831 387084 -14009 6748 -5057
48882 372867 387120 -14003 6768 -5084
48927 372902 387143 -14014 6781 -5094
48982 372957 387157 -14029 6786 -5095
49041 373005 387177 -14029 6828 -5094
49104 373036 387197 -14013 6830 -5094
49168 373066 387202 -14013 6818 -5112
49231 373144 387238 -14030 6789 -5118
49301 373180 387278 -14035 6773 -5105
49384 373273 387373 -14033 6761 -5088
49493 373480 387607 -14041 6761 -5074
49613 373739 387936 -14062 6771 -5073
49746 373971 388164 -14084 6773 -5084
49877 374049 388229 -14029 6806 -5096
49977 374105 388274 -14018 6799 -5089
49996 374115 388298 -14019 6810 -5114
49892 374010 388233 -13999 6816 -5148
49663 373788 388101 -14002 6828 -5117
49415 373558 387955 -14047 6834 -5064
49215 373383 387844 -13996 6811 -5037
49083 373258 387758 -13892 6800 -5081
49003 373190 387720 -13896 6791 -5107
48964 373165 387672 -13914 6850 -5112
48947 373137 387657 -13919 6980 -5154
48941 373117 387636 -13973 7059 -5154
48960 373133 387624 -14028 7076 -5107
48997 373147 387627 -14029 7054 -5070
49023 373160 387646 -13999 7002 -5057
49041 373193 387659 -13994 6944 -5033
49040 373240 387703 -13982 6890 -5048
49028 373304 387747 -13930 6838 -5095
49013 373340 387784 -13934 6786 -5110
48999 373368 387810 -13947 6759 -5144
48993 373407 387835 -13954 6756 -5265
48995 373417 387859 -13975 6724 -5316
49013 373436 387869 -13976 6694 -5305
49036 373479 387902 -13991 6684 -5268
49071 373521 387938 -14034 6669 -5261
49120 373575 387950 -14052 6650 -5263
49177 373620 387982 -14034 6648 -5268
49250 373668 388011 -14014 6657 -5260
49327 373693 388037 -14036 6670 -5275
49400 373674 388010 -14040 6717 -5340
49462 373548 387876 -14012 6709 -5352
49526 373326 387687 -13980 6689 -5353
49590 373119 387536 -13971 6681 -5339
49664 373077 387480 -13969 6684 -5329
49741 373098 387474 -13962 6689 -5329
49805 373092 387473 -13958 6677 -5329
49766 372982 387391 -13988 6632 -5330
49599 372757 387220 -14126 6598 -5353
49338 372528 387075 -14198 6608 -5293
49062 372355 386966 -14082 6565 -5147
48825 372247 386896 -14074 6489 -5040
48646 372205 386879 -14188 6456 -5101
48518 372216 386916 -14287 6457 -5250
48442 372272 386974 -14298 6482 -5339
48413 372341 387035 -14211 6492 -5324
48416 372441 387116 -14142 6478 -5277
48456 372551 387193 -14144 6470 -5221
48511 372649 387285 -14132 6447 -5167
48561 372762 387368 -14119 6417 -5133
48599 372865 387464 -14162 6425 -5139
48606 372898 387502 -14252 6442 -5130
48608 372899 387486 -14321 6454 -5071
48611 372872 387467 -14344 6491 -5062
48618 372827 387431 -14304 6541 -5113
48633 372803 387426 -14219 6578 -5147
48648 372803 387423 -14161 6588 -5159
48663 372808 387421 -14143 6584 -5141
48682 372832 387428 -14168 6581 -5133
48714 372848 387452 -14170 6616 -5176
48755 372889 387474 -14120 6659 -5206
48810 372932 387482 -14065 6665 -5197
48868 372965 387506 -14042 6646 -5180
48937 373017 387524 -14072 6633 -5176
49005 373061 387536 -14095 6649 -5193
49086 373097 387554 -14070 6653 -5207
49172 373142 387549 -14048 6637 -5185
49251 373171 387545 -14055 6638 -5164
49313 373160 387546 -14073 6651 -5171
49284 373090 387482 -14035 6667 -5207
49126 372929 387399 -14054 6648 -5188
48871 372698 387269 -14106 6635 -5163
48601 372473 387144 -14126 6614 -5133
48381 372278 387042 -14112 6592 -5115
48221 372157 386980 -14117 6601 -5140
48111 372076 386928 -14163 6622 -5161
48041 372045 386902 -14220 6623 -5147
47990 372024 386880 -14234 6616 -5123
47970 372007 386872 -14168 6596 -5073
47973 372032 386874 -14173 6592 -5048
48008 372073 386893 -14149 6602 -5024
48053 372130 386911 -14124 6606 -5013
48090 372165 386922 -14134 6623 -5035
48100 372179 386915 -14171 6632 -5036
48094 372159 386912 -14163 6635 -5037
48079 372143 386920 -14123 6648 -5084
48066 372129 386924 -14100 6676 -5112
48068 372139 386905 -14087 6695 -5121
48085 372128 386906 -14086 6716 -5156
48112 372153 386912 -14081 6717 -5129
48148 372176 386928 -14090 6690 -5086
48196 372213 386944 -14083 6680 -5099
48248 372254 386960 -14071 6688 -5117
48309 372313 387001 -14080 6696 -5123
48368 372365 387014 -14074 6688 -5109
48437 372422 387035 -14072 6673 -5107
48512 372479 387071 -14083 6664 -5119
48592 372544 387092 -14085 6656 -5117
48679 372615 387126 -14080 6663 -5105
48770 372681 387149 -14081 6667 -5102
48850 372728 387170 -14089 6658 -5095
48865 372744 387180 -14081 6657 -5103
47832 371813 386770 -14035 6629 -5094
47894 371863 386780 -14044 6631 -5066
47947 371888 386790 -14099 6636 -5069
47976 371875 386800 -14135 6641 -5086
47986 371853 386789 -14129 6642 -5081
47980 371827 386762 -14113 6670 -5092
47976 371826 386775 -14140 6661 -5098
47975 371837 386768 -14170 6646 -5087
47993 371864 386788 -14191 6629 -5056
48023 371909 386809 -14187 6608 -5032
48060 371954 386839 -14170 6591 -5033
48111 372003 386853 -14186 6585 -5034
48165 372057 386873 -14212 6587 -5031
48224 372102 386891 -14214 6582 -5030
48290 372147 386920 -14183 6586 -5031
48362 372219 386956 -14161 6591 -5052
48440 372284 386982 -14178 6590 -5062
48522 372346 387023 -14191 6602 -5055
48610 372426 387055 -14184 6608 -5045
48699 372505 387075 -14182 6609 -5026
48793 372573 387118 -14184 6611 -5013
48880 372640 387152 -14184 6618 -5012
48946 372685 387166 -14170 6631 -5009
48945 372683 387155 -14157 6642 -4999
48820 372544 387113 -14159 6655 -4993
48588 372325 387018 -14129 6678 -4989
48336 372129 386905 -14111 6690 -4999
48125 371989 386828 -14143 6690 -5035
47975 371884 386800 -14196 6688 -5056
47885 371805 386777 -14232 6681 -5051
47836 371777 386774 -14201 6675 -5044
47814 371785 386783 -14141 6656 -5046
47818 371796 386793 -14106 6624 -5052
47844 371822 386817 -14091 6611 -5035
47902 371859 386849 -14095 6618 -5014
47966 371928 386882 -14123 6672 -5045
48015 371978 386940 -14138 6665 -5054
48046 372009 386974 -14137 6661 -5075
48057 372008 386991 -14158 6656 -5088
48059 372015 387006 -14173 6645 -5082
48065 371999 387006 -14154 6640 -5072
48074 372013 386997 -14133 6639 -5070
48089 371968 386976 -14152 6633 -5062
48113 371959 386971 -14194 6621 -5050
48144 371986 386969 -14188 6643 -5057
48182 372010 386964 -14198 6630 -5038
48237 372031 386958 -14196 6609 -5028
48293 372060 386962 -14192 6594 -5026
48359 372093 386956 -14181 6580 -5027
48425 372137 386973 -14180 6574 -5031
48495 372212 386979 -14175 6596 -5052
48566 372273 387010 -14155 6607 -5054
48636 372351 387040 -14185 6571 -5032
48701 372431 387090 -14237 6542 -5030
48772 372505 387146 -14235 6539 -5047
48839 372585 387222 -14208 6545 -5061
48916 372679 387270 -14176 6561 -5062
48997 372784 387336 -14143 6563 -5057
49076 372871 387411 -14164 6558 -5062
49123 372931 387471 -14221 6559 -5070
49064 372879 387468 -14234 6551 -5053
48876 372704 387362 -14181 6541 -5025
48615 372462 387250 -14137 6573 -5052
48374 372248 387151 -14174 6601 -5097
48194 372082 387080 -14232 6599 -5107
48081 371961 387010 -14241 6603 -5108
48011 371843 386938 -14205 6597 -5099
47975 371726 386860 -14174 6581 -5111
47971 371615 386771 -14153 6553 -5110
47982 371516 386675 -14168 6516 -5078
48243 371772 386552 -14157 6477 -5209
48268 371852 386551 -14156 6490 -5158
48306 371887 386559 -14195 6494 -5117
48351 371932 386581 -14224 6488 -5090
48391 371960 386588 -14198 6507 -5067
48446 371993 386599 -14236 6523 -5056
48508 372032 386607 -14228 6546 -5056
48580 372082 386616 -14186 6567 -5063
48659 372130 386648 -14157 6575 -5096
48744 372184 386681 -14161 6574 -5093
48836 372246 386699 -14187 6556 -5036
48932 372338 386737 -14232 6538 -4994
49037 372433 386798 -14278 6537 -4973
49123 372507 386838 -14280 6551 -4952
49150 372539 386864 -14229 6573 -4936
49049 372457 386824 -14173 6573 -4915
48816 372248 386737 -14156 6582 -4939
48535 372024 386629 -14179 6597 -4983
48292 371839 386548 -14215 6608 -5001
48115 371718 386494 -14239 6628 -5005
47995 371642 386472 -14246 6627 -4980
47932 371625 386463 -14230 6622 -4967
47900 371641 386489 -14150 6612 -4948
47891 371635 386507 -14096 6605 -4946
47905 371645 386519 -14118 6609 -4968
47949 371698 386546 -14155 6602 -4954
48013 371751 386580 -14203 6597 -4932
48076 371800 386608 -14217 6590 -4932
48124 371834 386634 -14197 6582 -4944
48151 371841 386630 -14191 6591 -4965
48159 371848 386619 -14191 6613 -4970
48159 371843 386623 -14192 6633 -4961
48161 371843 386635 -14209 6637 -4945
48181 371851 386636 -14236 6648 -4917
48207 371865 386659 -14235 6663 -4919
48245 371907 386672 -14213 6659 -4927
48289 371956 386714 -14203 6647 -4906
48338 372009 386741 -14214 6641 -4888
48394 372061 386779 -14212 6649 -4897
48460 372102 386812 -14185 6656 -4914
48533 372161 386854 -14176 6664 -4914
48599 372236 386891 -14184 6665 -4907
48678 372308 386961 -14179 6656 -4904
48759 372396 387023 -14179 6652 -4891
48852 372501 387085 -14172 6660 -4888
48947 372601 387143 -14167 6663 -4890
49038 372672 387197 -14185 6641 -4872
49098 372744 387242 -14224 6618 -4849
49070 372705 387247 -14267 6603 -4806
48915 372571 387183 -14268 6598 -4745
48680 372365 387090 -14272 6603 -4713
48448 372215 387022 -14326 6613 -4728
48274 372118 386984 -14388 6620 -4728
48158 372058 386982 -14409 6615 -4677
48093 372027 386980 -14302 6596 -4650
48067 372016 386984 -14266 6563 -4616
48067 372029 386977 -14271 6547 -4571
48093 372043 386985 -14337 6540 -4521
48156 372093 387016 -14428 6530 -4467
48244 372143 387044 -14513 6513 -4396
48327 372213 387087 -14569 6479 -4298
48396 372256 387105 -14610 6442 -4180
48438 372239 387117 -14666 6406 -4041
48466 372214 387095 -14741 6347 -3870
48478 372210 387086 -14830 6262 -3687
48487 372215 387100 -14883 6198 -3544
48505 372225 387121 -14895 6138 -3414
48529 372223 387103 -14908 6060 -3298
48563 372235 387113 -14943 5987 -3200
48611 372267 387139 -14985 5921 -3101
48661 372301 387155 -15024 5878 -3015
48720 372357 387170 -15086 5851 -2916
48781 372413 387202 -15203 5806 -2822
48855 372481 387223 -15347 5770 -2814
48933 372535 387261 -15450 5771 -2888
49017 372613 387291 -15519 5793 -2998
49102 372687 387320 -15528 5825 -3133
49200 372769 387372 -15473 5823 -3272
49302 372853 387419 -15389 5763 -3408
49408 372966 387474 -15278 5686 -3531
49508 373060 387540 -15175 5618 -3662
49581 373143 387605 -15079 5561 -3806
49558 373169 387658 -14992 5521 -3950
49418 373123 387679 -14926 5491 -4100
49225 373038 387664 -15077 5565 -4418
49028 372937 387638 -15397 5665 -4521
48879 372893 387638 -15793 5674 -4484
48806 372943 387710 -15904 5492 -4367
48795 373060 387809 -15688 5296 -4346
48837 373282 387965 -15458 5208 -4428
48899 373409 388055 -15347 5176 -4530
48962 373465 388065 -15179 5123 -4601
49052 373582 388135 -14961 5059 -4646
49142 373596 388113 -14513 5061 -4935
49231 373755 388223 -14314 5054 -5146
49290 373762 388202 -14176 5060 -5446
49324 373818 388232 -14102 5104 -5792
49336 373774 388197 -14068 5139 -6108
49336 373709 388116 -13923 5202 -6394
49343 373672 388077 -13865 5220 -6623
49374 373660 388066 -13769 5206 -6849
49425 373668 388091 -13640 5172 -7022
49533 373517 388011 -13586 5095 -7101
49649 373406 387930 -13437 5009 -7153
49758 373343 387876 -13297 4923 -7293
49863 373384 387852 -13299 4890 -7466
49964 373406 387818 -13362 4916 -7603
50058 373344 387727 -13406 4958 -7739
50153 373347 387696 -13414 4945 -7833
50250 373411 387719 -13371 4880 -7879
49881 371868 386353 -14044 4259 -7613
49575 371489 386081 -14263 4183 -7360
49336 371177 385839 -14451 4070 -7024
49167 370891 385635 -14857 3735 -6105
49070 370586 385405 -15083 3614 -5621
48999 370235 385155 -15311 3480 -5054
48950 369902 384965 -15576 3247 -4379
48916 369543 384713 -15885 2875 -3634
48907 369176 384435 -16100 2507 -2986
48914 368767 384116 -16179 2269 -2519
48905 368388 383770 -16171 2105 -2059
48853 367805 383358 -16160 1945 -1476
48767 367285 382974 -16214 1727 -887
48664 366819 382653 -16326 1472 -433
48565 366387 382337 -16424 1226 -153
48480 366009 382047 -16427 990 -12
48422 365680 381757 -16357 780 119
48377 365421 381513 -16299 604 338
48343 365234 381316 -16274 445 648
48312 365082 381138 -16278 304 958
48303 364988 380977 -16252 185 1239
48290 364910 380807 -16164 69 1566
48263 364813 380691 -16144 -75 1993
48244 364745 380594 -16226 -275 2399
48240 364743 380527 -16326 -481 2664
48250 364762 380471 -16379 -644 2838
48270 364796 380440 -16366 -790 3018
48290 364848 380428 -16336 -922 3250
48307 364928 380443 -16345 -1065 3495
48304 364990 380444 -16354 -1211 3691
46241 365277 380634 -15319 -1746 4775
46263 365370 380692 -15481 -1731 4858
46289 365423 380691 -15627 -1686 4898
46290 365538 380777 -15849 -1528 4866
46262 365677 380879 -15941 -1444 4822
46219 365869 381002 -16047 -1333 4734
46180 366023 381114 -16132 -1177 4643
46155 366169 381212 -16193 -959 4553
46145 366308 381313 -16252 -690 4431
46145 366437 381387 -16287 -427 4294
46165 366542 381447 -16318 -213 4130
46194 366623 381495 -16303 -42 3950
46225 366716 381547 -16306 89 3778
46276 366770 381578 -16403 206 3550
46330 366841 381604 -16494 310 3241
46385 366886 381606 -16496 353 2957
