2025-08-24 01:58:21    绿光---红外光---红光---X轴---Y轴---Z轴
746 2767 2554 3029 -15905 3142
710 2629 2386 3308 -15914 3218
691 2546 2287 3609 -16015 3260
649 2368 2048 3922 -16055 3255
620 2239 1875 4467 -15907 3282
596 2146 1786 4851 -15768 3481
569 2041 1693 4879 -15684 3724
541 1924 1572 5098 -15560 3669
513 1806 1442 5249 -15557 3470
487 1703 1348 4890 -15732 3398
466 1627 1283 4448 -15877 3264
451 1559 1218 4238 -16003 3046
436 1497 1157 3971 -16171 2946
428 1466 1132 3548 -16214 2965
423 1459 1133 3193 -16235 2981
425 1458 1137 3087 -16270 2890
429 1472 1154 2959 -16227 2773
440 1516 1201 2597 -15944 2662
455 1578 1265 2585 -15868 2518
472 1649 1331 2632 -15765 2404
610 2205 1786 3366 -16010 2695
625 2263 1837 3424 -16056 2793
632 2295 1866 3485 -16022 2874
632 2295 1863 3505 -16006 2978
626 2275 1843 3529 -16011 3064
615 2232 1805 3577 -15981 3083
599 2168 1749 3625 -15998 3106
581 2090 1675 3647 -16041 3144
561 2004 1595 3665 -16043 3137
540 1916 1516 3699 -16101 3104
518 1832 1441 3711 -16178 3071
501 1761 1380 3677 -16183 3039
486 1697 1320 3620 -16169 2989
468 1640 1269 3579 -16175 2925
462 1613 1247 3541 -16155 2849
459 1599 1232 3380 -16008 2711
459 1597 1228 3345 -16009 2630
466 1628 1256 3323 -15976 2548
475 1670 1289 3271 -15963 2514
489 1719 1328 3217 -15937 2503
506 1795 1399 3188 -15853 2479
525 1870 1459 3137 -15845 2502
546 1944 1518 3091 -15914 2581
568 2034 1598 3098 -15918 2636
588 2113 1667 3083 -15974 2785
604 2169 1709 3149 -16040 2843
618 2225 1755 3216 -16089 2902
626 2253 1776 3238 -16133 2995
626 2255 1772 3294 -16148 3040
623 2243 1747 3399 -16150 3049
613 2205 1700 3476 -16134 3066
608 2187 1673 3504 -16121 3069
610 2194 1651 3552 -16150 3051
614 2209 1629 3598 -16065 2974
643 2334 1734 3584 -15953 2880
688 2517 1874 3530 -16077 2855
735 2718 1993 3569 -16231 2785
810 3031 2237 3591 -16289 2714
898 3388 2548 3364 -16373 2813
966 3666 2760 3149 -16427 2918
953 3630 2658 3088 -16453 2940
941 3569 2619 2901 -16525 3013
876 3293 2415 2554 -16666 3167
775 2877 2087 2366 -16578 3182
677 2465 1775 2376 -16408 3033
576 2055 1465 2323 -16659 2937
496 1736 1251 2271 -16855 2843
436 1493 1086 2321 -16895 2684
387 1296 942 2542 -16968 2465
359 1185 868 2891 -16830 2210
339 1100 809 3123 -16580 2007
331 1067 788 3322 -16229 1794
334 1080 806 3582 -15951 1532
343 1117 835 3804 -15764 1281
364 1206 905 3929 -15275 1045
404 1371 1041 3973 -14847 869
466 1623 1245 3969 -14759 836
550 1972 1531 3923 -14903 961
696 2576 2077 3762 -15199 1228
916 3468 2898 3486 -15641 1560
1221 4700 4031 3133 -16075 1892
1634 6346 5568 2769 -16261 2191
2106 8198 7217 2466 -16587 2549
2549 9923 8607 2259 -17086 2928
3033 11759 10418 1963 -16848 3303
3252 12495 11329 1889 -16250 3392
3075 11780 10927 1973 -15432 3424
2695 10262 9562 2446 -15406 3533
2207 8410 7697 3106 -16056 3723
1898 7220 6547 3571 -16196 3814
1627 6179 5475 3891 -16052 3609
1459 5531 4864 4223 -15579 3131
1366 5169 4593 4383 -15361 2634
1358 5149 4628 4706 -15982 1789
1446 5495 5010 4653 -16034 1518
1632 6216 5833 4518 -16087 1364
1950 7423 7313 4567 -16388 1298
2356 8930 9116 4765 -16619 1309
2863 10779 11229 4742 -16390 1474
3488 13038 13795 4517 -15837 1758
4386 16211 17461 4347 -15174 2047
5742 20840 23017 4337 -14884 2287
7550 26848 30149 4493 -14786 2754
9595 33364 38070 4503 -14887 3170
10936 37377 42861 4742 -14744 3710
10966 37071 42941 5349 -14602 4219
9657 32710 37916 5967 -14721 4419
7976 27261 31532 6474 -14870 4277
6714 23223 26680 6857 -15085 3829
5901 20644 23597 6941 -15307 3211
5495 19291 22165 6905 -15346 2633
5484 19207 22305 6911 -15226 2190
5814 20229 23728 6822 -15145 2009
6294 21656 25750 6685 -15035 2117
6653 22605 27281 6688 -14861 2481
6682 22536 27398 6700 -14697 3004
6367 21405 26169 6669 -14565 3436
5915 19852 24421 6801 -14550 3608
5551 18639 23007 6984 -14559 3566
5374 18066 22340 7102 -14491 3355
5439 18274 22680 7254 -14260 3054
5765 19331 24047 7358 -14031 2822
6225 20837 25875 7351 -14065 2822
6650 22186 27528 7298 -14149 3090
6897 22894 28481 7264 -14143 3455
6840 22576 28249 7257 -14226 3762
6566 21557 27204 7268 -14354 3969
6255 20421 26023 7323 -14379 4015
6006 19512 25089 7446 -14407 3874
5835 18891 24447 7616 -14531 3626
5820 18766 24439 7768 -14504 3365
5927 18998 24931 7882 -14388 3137
6081 19370 25583 8026 -14318 3054
6195 19637 26046 8094 -14328 3211
6180 19520 25969 8131 -14274 3380
6028 19044 25330 8133 -14162 3497
5860 18559 24649 8098 -14118 3505
5789 18372 24385 8017 -14043 3447
5830 18477 24582 7943 -14036 3349
5945 18722 25086 7970 -14119 3298
6113 19087 25802 8074 -14206 3343
6253 19336 26365 8501 -14160 3504
6231 19125 26251 8596 -14095 3568
6038 18571 25433 8527 -14016 3548
5805 17989 24468 8413 -13966 3402
5663 17636 23918 8231 -13876 3267
5683 17772 24034 7989 -13731 3254
5849 18300 24731 7840 -13628 3343
6057 18861 25591 7785 -13472 3494
6181 19103 26100 7630 -13427 3662
6220 19236 26231 7818 -13936 3664
6136 18942 25846 8055 -13961 3557
5960 18234 25157 8125 -13893 3524
5956 18240 25201 8160 -13974 3520
6156 18994 26021 8085 -14088 3617
6302 19459 26588 7798 -14171 3805
6343 19610 26744 7580 -14174 3911
6316 19585 26600 7631 -14092 3880
6157 19024 25933 7769 -14009 3766
5959 18310 25145 7942 -13967 3572
5874 18028 24825 8134 -13960 3357
5884 18033 24886 8212 -14016 3308
5949 18205 25169 8182 -14070 3414
6051 18572 25580 8096 -14024 3546
6099 18805 25750 7905 -13942 3647
6054 18722 25543 7670 -13822 3660
5953 18422 25116 7343 -13887 3606
5800 17987 24491 7274 -14111 3445
5790 17990 24466 7654 -14140 3240
5818 17862 24620 7976 -14065 3192
5946 18042 25213 8162 -14032 3311
6260 19050 26505 8295 -14113 3499
6479 19814 27331 8214 -14290 3693
6433 19747 27101 7900 -14424 3822
6260 19346 26359 7662 -14458 3791
6046 18728 25469 7654 -14420 3608
5870 18097 24791 7756 -14330 3406
5869 18004 24847 7928 -14272 3291
6026 18411 25515 8094 -14256 3322
6180 18797 26147 8160 -14224 3488
6253 19011 26428 8111 -14160 3650
6207 18955 26183 8041 -14055 3709
6014 18457 25368 7925 -13967 3657
5817 17907 24565 7756 -13862 3525
5751 17746 24335 7695 -13763 3340
5844 17889 24734 7494 -13779 3283
5823 17837 24655 7351 -13981 3398
5957 18333 25206 7738 -14132 3343
6019 18260 25455 8126 -13984 3312
6031 18072 25555 8184 -13997 3524
6231 18892 26355 8111 -14160 3650
6238 19063 26278 8041 -14055 3709
5994 18306 25288 7925 -13967 3657
5868 18074 24797 7756 -13862 3525
5831 18050 24628 7695 -13763 3340
5755 17731 24325 7494 -13779 3283
5778 17749 24449 7351 -13981 3398
5894 18046 24928 7738 -14132 3343
5982 18223 25296 8126 -13984 3312
6060 18443 25616 8184 -13997 3524
6072 18536 25636 8377 -14284 3565
5954 18251 25126 8013 -14409 3627
5793 17852 24464 7651 -14392 3660
5695 17635 24066 7578 -14208 3558
5651 17406 23884 7543 -14115 3488
5601 17295 23717 7634 -14159 3451
5742 17701 24301 7869 -14173 3405
5835 17655 24696 8038 -14206 3451
5917 17736 25076 8116 -14273 3549
6083 18406 25722 8111 -14287 3597
6037 18409 25469 7978 -14226 3634
5855 17964 24721 7727 -14136 3637
5785 17881 24440 7483 -13971 3514
5772 17769 24387 7246 -13872 3402
5794 17647 24525 7114 -14037 3418
5938 17993 25145 7387 -14181 3318
6063 18361 25628 7840 -14125 3224
6047 18385 25540 8069 -14148 3398
5982 18332 25254 8164 -14200 3562
5857 18024 24715 7797 -14311 3572
5709 17574 24119 7482 -14392 3554
5678 17501 24020 7510 -14402 3392
5763 17738 24382 7696 -14369 3288
5897 18083 24952 7885 -14332 3299
6072 18581 25678 8049 -14277 3350
6213 18993 26229 8085 -14277 3427
6229 19027 26266 7939 -14360 3470
6141 18768 25895 7730 -14416 3399
6010 18426 25349 7528 -14381 3255
5879 18118 24807 7381 -14295 3109
5791 17942 24451 7420 -14272 2983
5772 17934 24379 7542 -14288 2976
5821 18108 24595 7616 -14303 3105
5930 18482 25051 7688 -14388 3271
6079 19023 25644 7770 -14495 3408
6207 19525 26134 7804 -14509 3481
6289 19916 26418 7751 -14394 3496
6376 20437 26723 7637 -14285 3437
6669 21572 27818 7485 -14272 3290
6774 21702 28232 7349 -14261 3128
6660 21288 27760 7294 -14263 3029
6435 20975 26666 7283 -14274 3019
6000 19822 24813 7279 -14265 3072
5667 18777 23578 7270 -14293 3145
5725 19070 23862 7165 -14330 3247
6106 20205 25473 6966 -14411 3344
6659 21635 27833 6915 -14662 3357
7232 23333 30094 7182 -14837 3203
7356 23910 30351 7187 -14838 3231
7118 23293 29299 6384 -14745 3277
6566 21895 26862 6223 -14697 2865
5847 19947 23763 5813 -14702 2653
5314 18332 21597 5823 -14760 2447
5071 17589 20613 6420 -14768 2327
5068 17639 20567 6873 -14845 2653
5243 18156 21319 7029 -14570 3171
5453 18736 22238 7127 -14633 3414
5578 19076 22696 6736 -15051 3467
5468 18680 22220 5324 -15128 2926
5207 17886 21154 4954 -15558 2414
4916 17113 19842 4582 -15529 2110
4602 16252 18444 4635 -15559 1931
4310 15400 17223 4952 -15696 1965
4110 14822 16363 5223 -15951 2219
3983 14478 15824 5600 -16259 2458
3955 14397 15721 5938 -16087 2559
3978 14462 15823 5877 -15830 2554
4011 14552 15989 5540 -15827 2465
3975 14362 15893 5113 -15641 2281
3847 13831 15517 4576 -15419 2112
3730 13427 15077 3989 -15364 2001
3570 12972 14271 3551 -15246 1890
3317 12127 13171 3266 -15304 1828
3030 11150 12094 3106 -15530 1859
2740 10144 10786 3282 -15988 1909
2417 8956 9474 3731 -16423 1924
2159 7965 8565 4165 -16118 1927
1894 7002 7486 4278 -15726 2000
1713 6355 6769 4235 -15886 2019
1566 5788 6212 4177 -15511 1925
1432 5282 5674 3807 -15493 1979
1320 4890 5138 3456 -16889 2060
1207 4484 4589 3567 -17509 1923
1099 4080 4135 3729 -17042 1802
997 3698 3695 3663 -16627 1830
907 3352 3256 3806 -16231 1791
823 3027 2839 4042 -15839 1779
748 2737 2498 3902 -15395 2097
698 2546 2257 3474 -15137 2619
663 2407 2073 3247 -15343 2995
646 2345 1977 3167 -15628 3204
643 2333 1922 2795 -15720 3436
637 2310 1825 2380 -15801 3660
632 2306 1751 2224 -15872 3703
682 2513 1893 2184 -15833 3590
723 2686 1947 2128 -15674 3433
810 3050 2213 2115 -15603 3293
914 3470 2572 2193 -15759 3161
1039 3968 3077 2258 -15975 3067
1240 4767 3923 2212 -15951 3070
1521 5846 5113 2202 -15525 3025
1681 6436 5755 2448 -15389 2895
1709 6541 5877 2514 -15926 2924
1749 6673 6086 2421 -16609 3055
1658 6301 5774 2373 -17147 3057
1509 5726 5314 2246 -17357 2897
1381 5222 4944 2180 -16907 2584
1184 4448 4161 2115 -16509 2434
1012 3784 3524 2091 -16840 2607
896 3331 3155 1963 -17003 2844
791 2920 2785 1858 -16487 2905
704 2576 2448 1919 -16341 2879
649 2354 2239 1955 -16590 2888
601 2168 2057 1993 -16318 2824
572 2053 1941 1904 -16239 2873
548 1954 1817 1851 -16412 2880
502 1770 1606 1956 -16156 2675
538 1919 1798 1974 -16031 2583
511 1801 1646 1855 -16484 2662
504 1780 1633 1940 -16563 2587
2520 7496 6479 4870 -19234 -117
3239 9748 8241 7193 -19442 -2018
3983 12481 10132 6862 -19369 -1585
5216 17440 13915 5640 -19343 -509
6063 17777 15162 6675 -20692 -303
3959 13619 11604 7617 -22480 68
3097 8690 8485 7312 -21830 433
1681 4618 4652 7973 -18723 36
1334 3961 3770 8559 -16003 -549
1380 4111 3916 7826 -16566 -651
1202 3245 3509 7177 -17491 -697
1094 2811 3332 8043 -14302 -889
1378 3355 4173 7046 -14388 326
1539 3398 4599 5250 -20743 1880
1567 3282 4729 4832 -23456 1000
1775 3439 5298 3432 -22630 -1450
2360 4538 6765 -4323 -21505 -9489
2239 4254 6373 -5884 -17906 -13098
2021 4017 5900 1064 -14461 -3607
1929 4230 5576 3188 -14089 -2473
1660 4030 4838 5731 -14483 -2524
1534 4032 4553 6410 -15087 -2438
1575 4276 4642 6391 -15873 -2717
1645 4554 4783 7377 -16889 -3840
1633 4513 4760 7909 -17179 -4874
1742 4886 5073 7125 -17293 -5281
1818 5079 5261 6986 -17169 -5749
1799 4943 5232 5948 -17240 -5478
1877 5151 5430 5385 -17447 -4754
1863 5083 5371 5253 -17158 -4218
1860 5096 5357 4438 -16521 -3359
1836 5047 5268 3598 -16146 -2548
1832 5089 5250 3516 -15422 -2065
1781 4943 5078 3227 -15244 -1377
1747 4897 4986 3118 -15519 -720
1633 4455 4665 3590 -15508 -540
1537 4189 4429 4059 -15537 -785
1632 4657 4667 4495 -15426 -1444
1615 4661 4619 4968 -15032 -2384
1648 4746 4728 5348 -15534 -3018
1618 4510 4673 5906 -17335 -3554
1519 3977 4439 6386 -18534 -4097
1377 3454 4080 5803 -19058 -4262
1305 3222 3898 5566 -18981 -4550
1217 2911 3628 5921 -17830 -4981
1145 2746 3433 5682 -17024 -4873
1107 2706 3316 5584 -16686 -4380
1074 2667 3200 5403 -16503 -3613
1044 2611 3083 4590 -16483 -2403
1038 2638 3051 3855 -16459 -1257
1056 2734 3107 3559 -16423 -371
1032 2608 3009 3159 -16378 421
921 2166 2665 2730 -16204 939
852 1934 2450 2613 -16407 866
766 1615 2215 2669 -17225 298
1162 3002 3433 2564 -17722 -599
1159 2915 3276 2407 -17702 -1801
826 1737 2346 2765 -16780 -2981
876 2039 2521 3079 -15587 -3318
793 1844 2254 3376 -16330 -2758
595 1129 1664 3540 -17198 -1689
524 867 1465 2439 -19276 -700
515 864 1446 4082 -19433 -1986
453 720 1263 6127 -16653 -3658
375 553 1027 4056 -16670 -3003
340 486 911 3179 -16850 -2541
319 459 844 3558 -16411 -2355
292 426 741 2233 -16337 -887
258 410 628 908 -16633 811
247 410 594 942 -16904 1602
237 409 563 1043 -16249 2019
227 405 534 818 -14784 2169
227 404 537 1461 -14518 1447
215 400 496 2813 -15819 -53
203 400 452 4024 -16380 -1846
201 396 451 4741 -16062 -3409
202 393 457 5289 -15099 -4826
199 391 448 5784 -14345 -6183
202 391 459 5730 -15564 -5956
207 390 473 5963 -16091 -5551
209 389 494 5447 -16230 -4627
219 393 521 4707 -16024 -3581
232 398 553 4524 -15533 -2868
237 401 565 4235 -15710 -2304
246 406 595 3902 -16426 -1907
264 421 657 3970 -16609 -1979
273 429 693 3981 -14499 -3005
283 438 730 4303 -13571 -3855
302 460 790 4810 -13467 -4692
317 480 838 5054 -13688 -5330
323 487 857 5561 -13958 -5876
334 507 892 6407 -14150 -6303
335 506 892 6879 -14315 -6404
329 497 879 7230 -14750 -6373
337 511 909 7703 -15263 -6443
344 527 927 7922 -15317 -6468
343 525 918 7963 -15181 -6400
342 532 914 8053 -15096 -6326
329 513 870 7915 -14924 -6111
318 501 843 7458 -14830 -5717
322 510 853 7077 -14721 -5452
322 502 845 6661 -14654 -5318
320 501 849 6229 -14710 -5439
324 502 858 6136 -14665 -5949
326 497 866 5945 -14554 -6468
332 502 889 5690 -14369 -6848
339 510 913 5764 -14059 -7123
345 514 932 5771 -13948 -7136
356 528 964 5805 -14077 -6892
364 541 992 6042 -14251 -6594
369 549 1008 6220 -14245 -6287
377 562 1030 6427 -13937 -6055
378 569 1037 6733 -13607 -5976
372 563 1024 7007 -13504 -6012
371 564 1010 7294 -13679 -6184
365 563 997 7554 -13977 -6473
355 548 963 7615 -14166 -6782
350 539 945 7572 -14196 -7052
354 555 961 7481 -14132 -7261
353 550 956 7210 -14002 -7353
355 548 956 6874 -13954 -7356
365 564 991 6659 -14038 -7365
369 564 1000 6419 -13895 -7339
372 561 1016 6026 -13652 -7162
379 571 1044 5877 -13513 -7020
384 575 1062 5869 -13281 -6981
390 586 1085 5707 -13108 -6925
398 601 1114 6186 -13365 -7162
410 624 1147 6399 -13542 -7303
416 637 1162 6706 -13546 -7444
415 638 1162 7011 -13569 -7542
418 646 1164 7175 -13483 -7576
410 637 1145 7236 -13232 -7576
399 614 1107 7221 -13070 -7565
398 619 1104 7215 -13129 -7598
393 611 1086 7107 -13285 -7659
392 613 1084 6941 -13541 -7857
396 626 1098 6811 -13448 -7904
393 617 1087 6634 -13462 -7859
397 625 1103 6537 -13349 -7746
403 637 1121 6309 -13219 -7477
403 634 1122 6199 -13100 -7305
403 630 1126 6250 -12900 -7345
408 637 1142 6256 -12789 -7503
410 639 1145 6387 -12926 -7748
408 631 1136 6771 -13642 -8070
408 633 1139 6841 -13701 -8030
412 645 1151 6947 -13614 -7884
419 661 1170 6959 -13434 -7636
420 670 1181 6840 -13166 -7374
427 692 1206 6726 -12932 -7207
430 703 1215 6668 -12833 -7191
427 684 1193 6639 -12746 -7358
428 685 1197 6594 -12748 -7631
426 681 1191 6670 -12938 -7947
417 654 1159 6795 -13151 -8197
417 661 1167 6730 -13367 -8247
414 651 1155 6773 -13633 -8181
405 634 1130 6846 -13631 -7973
413 660 1160 6673 -13454 -7502
415 663 1160 6655 -13356 -7072
410 657 1146 6685 -13181 -6849
415 676 1168 6548 -12983 -6748
414 674 1161 6646 -12924 -6929
408 663 1144 6802 -12974 -7293
410 668 1149 6755 -13163 -7621
404 655 1131 6859 -13371 -7944
400 644 1117 6940 -13441 -8163
406 657 1137 6799 -13476 -8196
407 652 1135 6796 -13509 -8171
411 662 1150 6804 -13376 -8070
417 672 1169 6650 -13138 -7842
416 664 1164 6596 -12941 -7598
430 700 1217 6555 -12768 -7322
440 721 1244 6520 -12701 -7136
439 714 1242 6728 -12583 -7377
451 746 1284 6797 -12721 -7569
452 743 1279 7096 -12849 -7785
441 715 1245 7088 -12926 -7886
445 728 1262 7098 -13139 -7937
445 727 1258 7363 -13271 -8022
438 709 1229 7287 -13223 -7987
443 730 1253 7141 -13232 -7887
439 723 1243 7239 -13199 -7819
428 701 1210 6810 -13073 -7383
435 721 1233 6888 -13029 -7421
436 722 1227 6795 -12910 -7519
426 704 1204 6683 -12953 -7638
429 710 1208 6826 -13164 -7805
430 715 1212 6817 -13282 -7896
430 711 1211 6701 -13250 -7939
433 715 1213 6732 -13142 -7965
431 712 1214 6716 -13042 -7901
434 720 1227 6726 -12898 -7752
441 734 1247 6712 -12862 -7757
444 741 1258 6736 -12856 -7799
450 753 1279 6780 -12811 -7855
451 752 1280 6789 -12859 -7894
447 739 1265 6929 -12990 -7934
449 743 1273 7010 -13032 -7952
448 740 1267 6963 -13013 -7916
445 738 1263 6995 -12941 -7852
446 741 1265 6968 -12949 -7694
448 744 1263 6891 -12953 -7516
446 745 1262 6844 -12921 -7490
446 745 1260 6802 -12959 -7603
445 748 1259 6796 -13031 -7773
443 742 1251 6811 -13241 -7936
443 750 1257 6837 -13308 -8072
447 753 1264 6769 -13249 -8107
442 741 1252 6714 -13274 -8051
447 751 1267 6702 -13180 -7963
448 753 1270 6608 -13079 -7798
451 759 1281 6636 -12987 -7654
459 778 1309 6667 -12898 -7586
459 775 1309 6645 -12897 -7592
464 781 1320 6793 -12935 -7710
470 796 1342 6880 -12988 -7834
468 791 1338 6870 -13042 -7891
470 792 1340 6973 -13098 -7905
470 793 1341 6971 -13133 -7827
465 779 1320 6871 -13103 -7690
459 770 1307 6890 -13044 -7611
460 770 1304 6916 -13003 -7558
456 765 1292 6839 -12941 -7514
448 748 1267 6808 -12968 -7508
451 766 1279 6859 -13002 -7558
449 764 1273 6769 -13038 -7610
444 754 1261 6713 -13186 -7693
452 776 1284 6770 -13171 -7838
448 764 1270 6661 -13064 -7907
450 769 1280 6642 -13045 -7983
462 795 1317 6702 -13044 -8054
460 781 1307 6604 -13124 -7961
463 784 1321 6691 -13083 -7928
468 793 1338 6664 -13032 -7853
468 789 1338 6808 -12993 -7828
470 788 1340 7001 -13095 -7800
470 789 1341 7080 -13135 -7729
472 798 1352 7069 -13060 -7630
471 794 1343 7073 -13047 -7540
474 805 1352 7038 -12955 -7506
475 811 1356 6885 -12962 -7595
471 805 1344 6833 -13019 -7768
473 816 1353 6773 -13155 -7914
469 805 1338 6765 -13110 -8033
473 814 1350 6654 -13092 -8027
476 818 1360 6643 -13116 -7953
470 796 1337 6658 -12965 -7851
478 820 1372 6520 -12887 -7632
485 831 1391 6631 -12842 -7532
481 820 1380 6767 -12812 -7520
496 849 1427 6750 -12935 -7487
498 853 1436 6979 -13089 -7618
497 848 1434 7143 -13197 -7760
506 870 1461 7140 -13226 -7834
502 861 1448 7248 -13156 -7911
500 857 1442 7217 -13173 -7918
503 862 1443 7126 -13266 -7890
492 843 1414 7114 -13199 -7875
494 852 1421 6914 -13065 -7765
497 856 1420 6760 -13004 -7651
484 832 1392 6756 -12994 -7630
486 840 1401 6651 -12933 -7650
490 843 1402 6602 -12896 -7719
486 832 1395 6655 -12966 -7770
487 839 1406 6638 -12984 -7746
495 851 1423 6623 -12950 -7700
493 843 1415 6738 -12938 -7700
489 834 1411 6885 -12936 -7748
496 849 1430 6942 -12918 -7807
500 860 1445 7021 -12947 -7856
499 853 1438 7143 -13038 -7902
499 852 1436 7175 -13037 -7940
500 859 1440 7129 -13046 -7964
492 838 1412 7177 -13101 -8004
488 828 1400 7156 -13046 -8011
490 835 1403 6966 -12966 -7936
483 822 1386 6932 -12917 -7864
486 833 1401 6874 -12806 -7780
494 856 1425 6681 -12673 -7673
492 852 1420 6697 -12678 -7678
497 858 1433 6809 -12860 -7886
502 868 1448 7009 -13060 -8040
494 838 1414 7281 -13252 -8163
486 818 1386 7319 -13187 -8186
487 817 1389 7369 -13011 -8168
480 802 1368 7425 -12891 -8080
480 806 1376 7295 -12958 -7861
483 816 1384 7308 -13137 -7764
459 762 1302 7544 -13981 -7858
437 715 1231 7995 -13609 -8821
406 651 1129 7919 -12370 -9277
378 599 1046 7836 -12046 -9360
372 593 1024 7934 -12397 -9210
353 561 964 7949 -12940 -9020
327 519 881 8016 -12908 -9140
300 474 785 8138 -12514 -9495
265 427 668 8307 -12213 -9908
241 405 588 8396 -10959 -10318
222 390 528 8030 -9846 -10259
215 386 508 8167 -10013 -10222
211 384 489 8629 -9855 -10681
194 378 433 8379 -9309 -11369
186 378 406 8489 -9262 -12372
183 378 386 8667 -8719 -13380
181 377 375 7897 -7444 -13631
179 377 371 7184 -6687 -12990
179 377 369 6708 -5943 -11896
178 377 368 5469 -3983 -10789
181 377 369 4092 -2011 -9836
180 377 368 4069 -1039 -9050
181 379 368 3923 -804 -7947
180 379 371 3231 -1639 -7076
179 380 370 2549 -4689 -9149
181 381 372 -4746 -10939 -13994
181 380 371 -8075 -10196 -13097
179 379 371 -896 -3593 -8904
179 380 371 2699 -617 -7294
179 381 372 -4695 -2049 -12419
181 380 371 -7651 -1823 -14821
185 379 371 -43 -11 -10161
184 381 372 1895 -2952 -11385
183 383 372 -3500 -6057 -9911
182 381 374 -855 -8266 -10368
181 382 375 5112 -10820 -14854
182 384 373 399 -13459 -13739
182 385 375 -1142 -14576 -12586
183 399 375 2077 -14274 -11356
182 444 375 901 -14655 -7911
182 438 376 132 -15056 -6480
187 519 377 1976 -16802 -7748
192 723 391 1849 -20165 -8551
196 794 403 1228 -21280 -9642
204 796 418 1850 -20945 -11730
203 691 411 1871 -19272 -13556
213 718 429 2671 -15602 -15238
206 765 423 1387 -16317 -13987
196 752 405 1887 -20077 -12014
198 809 418 4819 -18350 -11834
196 782 413 2805 -15475 -9967
194 698 398 3472 -11232 -9132
192 695 400 1908 -9264 -8488
192 632 392 1223 -9075 -8290
188 581 386 1783 -8192 -9486
191 601 389 576 -7899 -10377
190 582 389 546 -8661 -11756
189 575 388 1073 -9315 -13129
190 584 390 290 -9809 -13385
189 565 389 371 -10261 -13608
189 557 389 367 -10360 -13525
189 550 389 -216 -10257 -12940
188 527 387 -231 -10226 -12548
189 517 388 -2530 -11807 -13911
188 539 391 -8389 -15797 -18453
186 496 384 -9070 -15860 -18606
183 413 373 -4657 -9863 -12561
181 385 372 -834 -6730 -9871
184 430 375 385 -7765 -13016
190 536 381 -3873 -9944 -19419
189 518 377 -7434 -11346 -21818
179 396 373 -6177 -9867 -18681
181 379 379 -4593 -6960 -14891
182 380 384 -6973 -3270 -12511
181 381 385 -9038 46 -11569
182 379 390 -7133 2116 -12480
181 378 392 -6922 1680 -14611
182 382 394 -8342 646 -13579
183 385 404 -9451 967 -10932
185 388 416 -10873 1463 -9845
204 439 515 -5887 10099 -10307
201 429 498 -6915 9118 -10996
201 424 494 -7055 9387 -11788
200 424 488 -6571 9877 -11894
202 429 494 -5339 10948 -11063
201 442 479 -5572 12667 -9169
200 471 458 -5638 12723 -9357
198 472 449 -5883 9918 -12221
198 496 444 -7386 7215 -14675
196 477 449 -9532 6199 -14339
208 609 446 -12390 7137 -7794
217 709 441 -13013 7078 -9797
231 781 434 -10384 7030 -12790
216 640 436 -5060 8545 -10176
226 622 499 -4803 11621 -4768
317 1111 920 -6502 13462 -821
455 1780 1663 -4405 14391 -1480
466 1736 1654 -2445 15160 -1410
508 1941 1963 -3631 15461 940
662 2651 2836 -4307 15338 2318
661 2612 2839 -12390 7137 -7794
644 2435 2471 -13013 7078 -9797
343 993 733 -10384 7030 -12790
289 732 683 -5060 8545 -10176
307 836 702 -4803 11621 -4768
332 950 728 -6502 13462 -821
301 786 696 -4405 14391 -1480
308 822 707 -2445 15160 -1410
313 843 713 -3631 15461 940
311 834 714 -4307 15338 2318
319 879 733 -5322 14364 3818
341 969 786 -2808 14252 1123
346 993 810 4145 15779 -2249
352 1012 816 3434 16181 -809
353 1003 819 -1711 15810 398
354 997 834 -176 16395 -1543
354 992 853 166 16408 -1914
348 962 861 -952 16192 -1504
340 929 875 -642 16195 -2555
336 905 890 -1108 16309 -2556
336 905 912 -1346 16548 -1823
343 928 949 -1053 17188 -651
353 971 989 -565 17879 388
366 1021 1037 -460 17371 147
379 1070 1079 -61 16814 13
390 1123 1121 349 17133 937
401 1173 1151 -111 17953 1064
410 1217 1169 -861 18764 483
415 1256 1176 -1797 19171 -137
416 1283 1174 -2726 19170 -941
416 1303 1167 -3000 18346 -1517
418 1323 1164 -2619 17132 -1368
421 1342 1156 -1851 16243 -669
422 1356 1148 -1205 15572 -5
423 1362 1134 -785 15300 602
420 1354 1111 -353 15321 1038
414 1330 1081 -19 15455 1189
404 1294 1043 264 15587 1220
394 1253 1007 705 15497 922
383 1207 970 1319 15223 408
371 1161 938 2538 14848 -163
361 1112 904 3016 14811 -86
351 1065 874 3372 14864 248
338 1017 841 3654 14997 563
323 959 799 3882 15073 826
314 920 778 4205 14902 946
307 888 763 4658 14602 1067
299 850 745 4995 14366 1195
290 807 720 5113 14299 1254
280 758 691 5215 14274 643
267 707 658 5309 14131 367
256 656 627 5189 13999 152
244 605 588 4980 13988 -427
233 561 553 4744 14230 -344
224 524 520 4403 14541 359
215 492 489 4045 14711 1012
204 460 455 3537 14731 1670
194 434 430 2943 14555 1983
194 430 421 2284 14389 1707
192 424 414 1451 14479 1143
189 417 406 717 14342 461
186 412 398 350 13621 -770
182 405 386 55 12690 -2868
180 408 382 -698 11914 -5499
180 412 381 -2088 11443 -9116
181 415 379 -4154 11609 -12868
181 415 377 -6223 12081 -13962
181 415 376 -6772 11691 -13722
181 419 376 -5923 10645 -12705
183 427 379 -4957 9621 -11098
187 436 380 -5734 8581 -11587
192 449 385 -8831 8994 -10984
195 461 390 -11282 10208 -8656
200 472 395 -11361 10602 -7750
201 513 407 -10591 10681 -7635
213 554 438 -10459 10210 -7652
216 585 450 -10857 9862 -7002
223 606 460 -11958 10175 -5839
230 630 474 -13663 10787 -4299
229 653 479 -14945 11233 -2207
230 662 494 -14968 11132 -888
238 713 520 -13760 10932 -661
260 799 579 -13705 10669 -23
273 871 629 -14908 10196 2051
282 947 679 -14710 9831 3684
297 1015 734 -13512 9608 3887
301 1039 742 -13022 9381 4428
308 1056 755 -12702 9470 5526
314 1084 773 -11776 9692 6032
309 1094 776 -10935 8890 6135
342 1303 910 -9124 7975 8373
366 1419 987 -9264 7937 8326
404 1597 1149 -9046 7936 8291
458 1815 1398 -8871 7899 8080
513 1952 1659 -8969 7834 7735
556 2039 1823 -9285 7774 7824
588 2169 1937 -9462 7705 8431
623 2315 2056 -9162 7052 10110
666 2492 2205 -8342 6632 10753
721 2693 2396 -6685 6520 11749
788 2933 2650 -4771 6873 13157
874 3236 2972 -2872 7113 14547
969 3563 3324 -703 6857 14808
1065 3859 3690 -926 6274 14476
1150 4086 4024 -1876 5765 14402
1220 4279 4335 -1043 5791 14526
1294 4531 4651 -668 5602 14965
1329 4555 4811 -84 4975 15559
1378 4672 5024 961 4403 15932
1496 5169 5484 1500 3970 16149
1637 5709 6033 1592 3683 16554
1729 5816 6412 2051 3341 16968
1836 5938 6892 3586 2778 16794
1938 6071 7340 4964 2281 16379
1918 5676 7346 5171 2301 15994
1826 5169 7233 5023 2562 15573
1833 4929 7451 5570 2523 15108
1948 5028 8117 6772 2262 14644
2173 5599 9289 8065 2092 14259
2564 6786 11086 9153 1951 13781
2946 7977 12734 9763 1804 13128
2794 7498 12056 10078 1783 12163
2626 6898 11322 10666 1849 10957
1961 4726 8463 11614 1799 9887
1686 3961 7248 12384 1440 9344
1642 3960 7101 12824 1036 9529
1988 5075 8771 14580 887 10611
2499 6768 11015 14468 1664 10076
2694 7419 11733 14828 2087 8247
2606 7118 11325 14596 2960 6435
2627 7214 11475 14707 3879 4746
2812 7850 12266 14260 4248 4496
2975 8435 12934 14135 4669 5661
3127 9032 13566 13914 5053 7036
3465 10354 14964 13727 5476 7457
3965 12308 16946 13414 5675 7164
4231 13328 17966 13223 5583 7161
4238 13327 17992 13113 5634 7519
4225 13276 17951 12884 5732 7712
4241 13323 18045 12659 5896 7801
4351 13672 18466 12383 6282 8116
4337 13564 18357 11834 7010 8598
4198 13010 17773 11418 7523 8956
4007 12245 16993 11542 7411 8921
3890 11748 16588 11635 7346 8665
3942 11865 16808 11571 7506 8649
3903 11669 16621 11682 7349 8986
3697 10942 15796 11638 7368 8943
3488 10273 14973 11521 7061 8679
3539 10473 15230 11581 6777 8597
3885 11685 16626 11850 6607 8816
4209 12727 17785 12074 6348 8892
4144 12466 17463 12081 6206 8650
3921 11683 16585 11999 6311 8224
3836 11395 16288 12082 6470 8019
3919 11673 16616 12170 6514 8416
4026 12013 17000 12029 6424 9029
4022 11978 16959 11989 6402 9227
3959 11756 16711 12029 6406 8934
3951 11720 16681 11976 6400 8582
3984 11828 16803 11984 6429 8610
4009 11900 16884 11970 6432 8825
3987 11821 16791 12000 6390 8899
3967 11752 16720 12054 6408 8800
3971 11762 16733 12061 6420 8693
3984 11801 16780 12056 6398 8720
3986 11803 16781 12035 6417 8825
3977 11777 16753 12019 6412 8839
3976 11768 16742 12049 6404 8776
3977 11773 16750 12037 6388 8750
3976 11770 16748 12051 6395 8780
3972 11755 16731 12073 6402 8801
3969 11748 16724 12070 6390 8787
3971 11752 16732 12066 6367 8755
3972 11756 16734 12074 6360 8745
3974 11759 16741 12092 6364 8758
3970 11746 16721 12058 6399 8766
3979 11769 16759 12033 6418 8764
3979 11779 16759 12066 6381 8751
3994 11824 16818 12075 6374 8754
3988 11815 16802 12058 6382 8758
3988 11807 16793 12044 6388 8755
3981 11788 16773 12055 6388 8754
3986 11799 16785 12042 6397 8738
3988 11808 16797 12065 6400 8747
3985 11799 16786 12081 6407 8749
3980 11788 16773 12038 6428 8749
3987 11812 16803 12033 6426 8765
3984 11800 16785 12049 6410 8757
3985 11806 16795 12078 6414 8771
3984 11804 16790 12009 6403 8756
3985 11814 16808 12025 6391 8745
3981 11817 16809 12073 6397 8747
3980 11814 16808 12048 6391 8735
3979 11816 16810 12075 6387 8751
3990 11857 16858 12068 6387 8747
3989 11853 16845 12052 6425 8775
3990 11845 16841 12019 6412 8759
3989 11833 16827 12050 6386 8750
4000 11855 16853 12068 6403 8737
4006 11849 16844 12081 6418 8736
4015 11848 16841 12096 6417 8758
4015 11848 16841 12065 6415 8751
4016 11855 16851 12067 6414 8740
4013 11851 16847 12066 6409 8757
4012 11850 16844 12060 6410 8767
4010 11853 16848 12036 6427 8764
4008 11852 16847 12022 6419 8754
4004 11848 16846 12041 6411 8746
3999 11846 16844 12055 6395 8759
3996 11844 16846 12060 6387 8768
3992 11844 16848 12044 6385 8772
3996 11846 16845 12036 6373 8767
3996 11847 16847 12038 6377 8747
3995 11846 16848 12034 6389 8743
3993 11840 16843 12040 6398 8764
3994 11843 16845 12036 6427 8782
3998 11846 16851 12028 6443 8777
3999 11848 16852 12031 6418 8767
4001 11850 16856 12040 6390 8774
4000 11847 16853 12048 6383 8766
3999 11845 16848 12046 6386 8743
3997 11843 16848 12050 6383 8737
3997 11842 16845 12044 6377 8739
3998 11842 16846 12039 6381 8747
3998 11843 16848 12043 6383 8747
3999 11845 16850 12028 6414 8754
3998 11842 16849 12032 6435 8765
3997 11844 16850 12059 6420 8753
3996 11842 16849 12070 6410 8749
3996 11841 16848 12076 6401 8757
3995 11841 16849 12077 6393 8753
3996 11842 16851 12083 6394 8734
3996 11841 16848 12093 6403 8725
3999 11842 16850 12085 6415 8733
3999 11841 16848 12073 6415 8739
4003 11841 16848 12043 6447 8777
4004 11841 16849 12056 6431 8781
4004 11842 16850 12063 6413 8751
4003 11841 16850 12074 6405 8734
4003 11840 16851 12081 6390 8743
4004 11840 16850 12075 6392 8743
4004 11841 16852 12058 6397 8740
4003 11840 16851 12055 6397 8738
4001 11841 16851 12075 6385 8733
4000 11840 16852 12031 6427 8767
3996 11841 16852 12045 6418 8779
4000 11846 16858 12075 6410 8801
4000 11842 16855 12072 6391 8797
3999 11840 16852 12084 6382 8783
3999 11845 16859 12094 6383 8770
3998 11842 16853 12090 6387 8755
3998 11841 16856 12100 6386 8755
3999 11844 16858 12095 6379 8753
4001 11846 16860 12086 6393 8757
4000 11845 16861 12058 6428 8762
3999 11844 16859 12056 6430 8760
4001 11844 16858 12079 6398 8753
4001 11843 16857 12100 6391 8733
4001 11841 16857 12111 6391 8731
4000 11844 16856 12108 6393 8743
4001 11844 16857 12100 6391 8749
4000 11844 16858 12093 6393 8756
4001 11844 16858 12090 6394 8749
4001 11842 16861 12094 6387 8740
4000 11843 16858 12066 6414 8744
4000 11844 16859 12055 6441 8751
4001 11844 16859 12078 6429 8752
4001 11845 16860 12091 6411 8747
4001 11845 16861 12098 6390 8738
4002 11841 16860 12093 6378 8730
4001 11843 16859 12097 6374 8722
4001 11842 16859 12096 6376 8736
4000 11841 16859 12094 6387 8745
4001 11842 16861 12099 6388 8736
4001 11843 16860 12049 6447 8773
4002 11843 16858 12076 6417 8757
4001 11843 16855 12089 6401 8761
4002 11843 16854 12105 6397 8759
4002 11845 16856 12118 6391 8764
4001 11845 16861 12118 6384 8769
4004 11849 16865 12110 6382 8769
4004 11849 16869 12102 6380 8766
4004 11849 16867 12104 6374 8750
4003 11849 16870 12048 6400 8778
4002 11849 16870 12054 6382 8762
4001 11845 16867 12060 6366 8744
4002 11845 16867 12065 6360 8730
4004 11847 16867 12077 6363 8714
4002 11844 16864 12066 6369 8706
4003 11846 16865 12079 6378 8716
4003 11849 16872 12088 6370 8732
4004 11847 16867 12079 6363 8741
4001 11842 16862 12049 6401 8772
4001 11844 16864 12054 6400 8763
4002 11849 16869 12072 6381 8759
4001 11842 16862 12090 6377 8759
4001 11843 16863 12109 6376 8751
4003 11845 16864 12121 6370 8731
3999 11836 16854 12092 6375 8719
4001 11840 16859 12083 6386 8725
4000 11839 16856 12089 6375 8729
3998 11832 16847 12073 6385 8737
3996 11826 16842 12047 6409 8749
3997 11827 16842 12046 6399 8739
3999 11832 16850 12054 6377 8735
3997 11827 16841 12064 6369 8749
3995 11823 16839 12079 6364 8744
3998 11835 16853 12079 6361 8737
3999 11834 16852 12073 6351 8729
3997 11828 16844 12083 6357 8733
4000 11833 16851 12105 6373 8740
3997 11833 16851 12078 6381 8729
3997 11826 16844 12055 6405 8734
3997 11828 16846 12048 6406 8741
3996 11824 16843 12064 6390 8735
3997 11826 16843 12083 6374 8734
3996 11826 16844 12082 6359 8732
3997 11830 16850 12092 6355 8731
3998 11828 16847 12109 6355 8738
3997 11828 16846 12121 6365 8733
3997 11830 16849 12108 6373 8734
3995 11821 16838 12118 6374 8750
3997 11824 16841 12081 6420 8772
3996 11823 16838 12083 6380 8743
3993 11817 16834 12092 6372 8733
3992 11812 16827 12092 6369 8728
3993 11815 16831 12089 6357 8716
3992 11813 16826 12085 6356 8712
3994 11813 16828 12073 6357 8711
3993 11814 16830 12099 6367 8736
3993 11811 16827 12101 6361 8750
3995 11818 16834 12067 6407 8765
3993 11811 16828 12064 6381 8751
3993 11811 16828 12079 6372 8747
3996 11815 16833 12092 6369 8749
3994 11812 16827 12099 6361 8749
3994 11810 16826 12101 6366 8748
3993 11807 16826 12111 6377 8753
3993 11810 16827 12118 6370 8753
3994 11809 16829 12119 6367 8750
3993 11810 16828 12105 6398 8766
3993 11810 16830 12083 6429 8792
3992 11810 16828 12084 6414 8786
3992 11810 16829 12095 6387 8766
3992 11810 16831 12103 6365 8759
3994 11813 16830 12103 6355 8737
3994 11812 16831 12097 6363 8724
3995 11811 16831 12096 6366 8736
3992 11807 16828 12099 6361 8752
3992 11809 16829 12098 6362 8751
3993 11811 16830 12084 6369 8754
3992 11810 16830 12069 6386 8768
3993 11811 16831 12080 6381 8774
3995 11813 16834 12097 6362 8762
3993 11812 16833 12106 6363 8738
3993 11812 16832 12116 6359 8732
3993 11812 16832 12121 6350 8732
3991 11810 16832 12121 6343 8729
3993 11809 16830 12121 6347 8731
3994 11811 16832 12125 6357 8733
3994 11813 16835 12122 6377 8753
3994 11813 16836 12095 6405 8778
3995 11816 16841 12082 6399 8771
3995 11818 16842 12096 6376 8751
3995 11819 16845 12099 6373 8748
3998 11824 16848 12096 6366 8749
4000 11827 16848 12094 6363 8744
4001 11828 16853 12089 6359 8745
4000 11831 16854 12096 6361 8746
3998 11822 16847 12093 6368 8747
4000 11830 16854 12104 6373 8745
3998 11827 16852 12075 6410 8761
3998 11829 16854 12090 6382 8753
4000 11829 16856 12101 6371 8737
4002 11833 16862 12113 6368 8736
3998 11828 16855 12105 6370 8735
4000 11831 16858 12112 6376 8727
3999 11827 16852 12111 6369 8734
3998 11825 16850 12102 6355 8738
3996 11820 16847 12129 6343 8755
3995 11819 16845 12068 6363 8768
3997 11823 16848 12084 6356 8763
3998 11823 16848 12097 6347 8752
3997 11821 16847 12105 6344 8748
3997 11824 16850 12102 6351 8740
3998 11821 16846 12104 6355 8739
4000 11821 16847 12107 6355 8743
4000 11820 16847 12108 6354 8741
3998 11819 16845 12106 6354 8739
3997 11823 16846 12087 6369 8747
3998 11822 16848 12068 6396 8754
3998 11822 16850 12070 6392 8752
3997 11824 16851 12085 6373 8748
3999 11823 16850 12098 6363 8746
3999 11822 16849 12108 6358 8740
3999 11825 16851 12113 6351 8732
3998 11823 16847 12117 6343 8731
3999 11823 16850 12119 6349 8740
3997 11821 16849 12121 6353 8748
3999 11825 16855 12108 6349 8737
4000 11827 16856 12073 6384 8762
3999 11827 16855 12053 6400 8771
4000 11828 16859 12082 6374 8754
4000 11828 16861 12095 6354 8747
4001 11829 16859 12097 6342 8747
4002 11831 16863 12106 6341 8741
4001 11829 16860 12120 6347 8730
4000 11828 16861 12126 6355 8734
4002 11830 16862 12120 6348 8744
4000 11829 16861 12115 6337 8746
4001 11830 16864 12054 6389 8786
4002 11832 16866 12077 6369 8768
4002 11832 16865 12101 6368 8768
4001 11832 16867 12109 6370 8768
4002 11832 16867 12119 6367 8763
4003 11834 16868 12123 6365 8755
4001 11834 16869 12113 6361 8743
4002 11835 16871 12114 6354 8745
4003 11835 16871 12129 6353 8756
4003 11833 16868 12066 6374 8783
4004 11831 16867 12077 6363 8761
4002 11833 16869 12095 6341 8731
4002 11831 16865 12103 6335 8729
4003 11833 16869 12102 6336 8733
4003 11833 16869 12097 6336 8728
4004 11836 16872 12119 6348 8727
4005 11840 16875 12095 6342 8730
4003 11839 16874 12109 6360 8736
4007 11850 16890 12120 6382 8739
4005 11842 16880 12066 6374 8783
4003 11835 16870 12077 6363 8761
4006 11845 16885 12095 6341 8731
4005 11837 16875 12103 6335 8729
4005 11836 16873 12102 6336 8733
4004 11838 16875 12097 6336 8728
4005 11838 16874 12119 6348 8727
4003 11835 16872 12095 6342 8730
4004 11843 16880 12109 6360 8736
4008 11853 16891 12120 6382 8739
4018 11886 16927 12108 6391 8753
4004 11840 16876 12132 6379 8754
4005 11843 16883 12130 6368 8745
4002 11824 16863 12125 6359 8733
4007 11845 16888 12116 6354 8724
4013 11867 16908 12116 6348 8725
4015 11877 16919 12121 6343 8728
4007 11850 16893 12122 6346 8728
4011 11861 16907 12116 6359 8723
4003 11829 16871 12078 6389 8756
4008 11855 16899 12112 6380 8735
4004 11842 16883 12123 6372 8735
4014 11878 16922 12121 6359 8730
4010 11855 16896 12117 6355 8725
4012 11865 16911 12122 6366 8733
4007 11844 16888 12111 6371 8735
4010 11861 16905 12099 6377 8733
4006 11848 16888 12109 6375 8736
4010 11864 16907 12103 6381 8746
4009 11853 16899 12074 6398 8770
4008 11862 16910 12061 6408 8767
4011 11858 16904 12077 6397 8766
4013 11867 16912 12113 6385 8763
4011 11862 16905 12126 6389 8752
4009 11861 16904 12128 6372 8746
4008 11856 16900 12112 6350 8754
4008 11854 16900 12089 6346 8743
4010 11860 16906 12093 6346 8748
4013 11871 16918 12101 6348 8761
4014 11872 16915 12089 6376 8771
4015 11870 16916 12089 6388 8775
4010 11858 16904 12105 6375 8760
4011 11857 16902 12100 6361 8754
4011 11858 16903 12102 6355 8758
4013 11870 16917 12102 6348 8753
4014 11873 16918 12116 6339 8745
4016 11875 16921 12123 6333 8743
4012 11863 16911 12133 6344 8747
4010 11860 16907 12136 6351 8751
4009 11856 16902 12095 6390 8761
4013 11864 16913 12104 6368 8755
4015 11869 16916 12113 6345 8752
4015 11878 16924 12125 6335 8743
4015 11872 16920 12121 6346 8739
4013 11868 16916 12109 6370 8745
4012 11862 16909 12109 6369 8753
4013 11866 16912 12118 6353 8757
4013 11867 16912 12125 6344 8749
4015 11871 16921 12108 6371 8761
4013 11871 16920 12091 6399 8782
4016 11872 16922 12108 6384 8771
4014 11872 16920 12126 6365 8759
4014 11869 16917 12132 6345 8754
4014 11868 16916 12125 6333 8747
4013 11868 16915 12125 6343 8738
4012 11869 16920 12127 6349 8747
4014 11874 16924 12115 6348 8760
4015 11875 16924 12121 6350 8759
4015 11875 16923 12088 6392 8777
4014 11872 16921 12082 6385 8782
4011 11867 16914 12095 6367 8776
4013 11869 16917 12104 6354 8768
4016 11873 16923 12105 6342 8756
4019 11877 16927 12109 6333 8748
4018 11881 16930 12112 6330 8738
4018 11877 16926 12111 6334 8735
4015 11872 16921 12109 6332 8739
4015 11868 16918 12102 6351 8741
4016 11869 16922 12086 6386 8758
4016 11874 16926 12089 6384 8776
4017 11880 16931 12102 6362 8773
4016 11879 16931 12107 6354 8769
4017 11877 16929 12117 6349 8769
4016 11873 16922 12125 6343 8769
4017 11872 16923 12123 6344 8776
4014 11873 16923 12124 6350 8768
4018 11876 16928 12127 6351 8744
4017 11878 16931 12125 6351 8737
4017 11878 16932 12106 6385 8765
4017 11877 16930 12094 6404 8780
4016 11877 16931 12108 6380 8774
4016 11874 16927 12117 6363 8766
4016 11876 16929 12123 6352 8749
4017 11876 16928 12137 6351 8745
4018 11879 16934 12139 6350 8743
4019 11880 16934 12143 6353 8744
4018 11880 16934 12146 6356 8753
4017 11878 16932 12145 6353 8759
4017 11876 16928 12122 6372 8778
4016 11874 16927 12095 6385 8781
4018 11875 16930 12099 6369 8764
4018 11880 16932 12116 6364 8763
4019 11883 16938 12136 6361 8773
4018 11883 16936 12143 6362 8770
4018 11880 16934 12146 6359 8762
4017 11875 16929 12138 6351 8766
4017 11875 16932 12123 6347 8766
4017 11878 16932 12117 6341 8754
4020 11883 16938 12080 6367 8765
4020 11884 16941 12089 6363 8767
4020 11882 16938 12105 6355 8764
4018 11882 16936 12132 6359 8758
4019 11876 16935 12147 6353 8743
4018 11875 16931 12151 6344 8739
4019 11879 16935 12152 6344 8736
4018 11881 16939 12147 6346 8739
4019 11882 16941 12148 6338 8758
4020 11881 16940 12111 6371 8781
4019 11880 16937 12113 6359 8777
4019 11880 16936 12103 6331 8779
4018 11884 16938 12107 6323 8774
4018 11883 16940 12115 6327 8766
4020 11885 16943 12121 6330 8762
4020 11885 16942 12126 6326 8765
4020 11884 16940 12121 6330 8756
4018 11883 16940 12124 6336 8741
4019 11883 16940 12110 6342 8745
4020 11881 16939 12084 6368 8755
4019 11880 16939 12075 6371 8757
4020 11883 16940 12088 6354 8762
4020 11887 16943 12103 6353 8765
4019 11885 16943 12109 6351 8765
4019 11884 16943 12113 6341 8771
4018 11881 16940 12116 6330 8772
4018 11881 16941 12126 6328 8767
4019 11882 16941 12135 6333 8768
4020 11885 16944 12131 6350 8785
4020 11888 16946 12103 6387 8790
4021 11888 16947 12094 6403 8781
4020 11885 16944 12114 6384 8776
4021 11885 16942 12122 6363 8767
4018 11884 16943 12123 6347 8757
4019 11885 16943 12124 6341 8757
4019 11887 16945 12136 6340 8764
4021 11887 16946 12151 6336 8751
4020 11886 16946 12153 6338 8734
4021 11886 16945 12143 6345 8739
4019 11885 16943 12110 6361 8758
4019 11884 16944 12118 6342 8738
4022 11887 16947 12127 6338 8733
4023 11890 16951 12121 6333 8732
4025 11890 16950 12104 6331 8734
4023 11890 16950 12109 6333 8737
4021 11888 16947 12111 6332 8736
4020 11887 16945 12117 6340 8739
4021 11887 16945 12135 6342 8738
4021 11886 16946 12076 6371 8763
4021 11886 16947 12088 6366 8765
4020 11889 16950 12100 6353 8763
4019 11886 16947 12116 6345 8753
4020 11886 16950 12129 6350 8747
4019 11887 16949 12130 6348 8743
4021 11888 16947 12126 6343 8747
4021 11889 16949 12133 6347 8753
4021 11890 16949 12137 6339 8745
4021 11889 16951 12096 6373 8773
4021 11890 16954 12105 6381 8763
4020 11887 16950 12131 6373 8757
4021 11889 16950 12140 6358 8760
4020 11888 16949 12130 6349 8759
4023 11889 16951 12125 6346 8761
4022 11891 16952 12126 6354 8756
4022 11893 16953 12125 6351 8760
4023 11892 16954 12128 6336 8765
4023 11892 16953 12122 6341 8767
4021 11888 16951 12107 6361 8772
4020 11888 16952 12101 6366 8755
4022 11889 16953 12111 6356 8756
4022 11891 16953 12129 6344 8769
4022 11891 16954 12144 6331 8774
4023 11890 16955 12149 6336 8764
4022 11891 16953 12141 6345 8754
4024 11891 16955 12132 6338 8750
4025 11894 16954 12133 6327 8744
4024 11892 16954 12137 6339 8748
4022 11892 16955 12118 6377 8769
4022 11893 16956 12099 6392 8776
4022 11893 16955 12115 6368 8754
4023 11893 16956 12121 6347 8740
4023 11892 16954 12122 6336 8745
4022 11891 16954 12124 6330 8754
4023 11890 16955 12117 6328 8746
4022 11893 16957 12124 6327 8746
4022 11892 16958 12122 6335 8750
4023 11894 16958 12129 6336 8747
4025 11892 16956 12088 6372 8785
4022 11892 16956 12110 6347 8766
4022 11892 16955 12126 6338 8759
4022 11891 16957 12127 6335 8760
4023 11893 16957 12120 6339 8768
4024 11894 16960 12127 6341 8776
4022 11894 16959 12139 6347 8773
4023 11893 16960 12142 6345 8764
4022 11893 16958 12146 6338 8749
4023 11893 16957 12114 6361 8763
4023 11894 16959 12087 6386 8780
4024 11895 16960 12101 6369 8768
4024 11895 16959 12111 6347 8762
4025 11896 16960 12127 6341 8746
4023 11894 16961 12123 6347 8735
4021 11896 16960 12116 6356 8746
4022 11894 16961 12121 6355 8745
4024 11895 16962 12126 6342 8750
4024 11895 16960 12131 6329 8752
4024 11896 16963 12082 6372 8778
4024 11896 16962 12094 6368 8771
4025 11898 16962 12114 6350 8752
4024 11897 16960 12119 6343 8743
4026 11896 16962 12132 6346 8754
4027 11896 16960 12133 6337 8761
4025 11896 16964 12120 6321 8762
4024 11898 16963 12119 6325 8759
4025 11898 16964 12128 6330 8740
4025 11898 16964 12110 6332 8748
4024 11897 16964 12073 6357 8763
4025 11896 16963 12069 6360 8752
4024 11896 16964 12091 6342 8743
4024 11898 16965 12106 6338 8736
4026 11898 16966 12118 6336 8736
4026 11900 16964 12119 6338 8739
4025 11897 16965 12111 6337 8744
4025 11898 16964 12122 6330 8751
4026 11897 16965 12137 6327 8749
4025 11897 16964 12128 6343 8752
4026 11899 16965 12097 6377 8758
4026 11898 16967 12088 6378 8770
4026 11899 16970 12108 6354 8779
4025 11899 16970 12123 6339 8765
4025 11899 16968 12116 6330 8744
4025 11898 16966 12113 6323 8736
4025 11898 16969 12119 6322 8734
4026 11897 16965 12113 6331 8743
4025 11899 16968 12113 6339 8752
4025 11899 16967 12122 6339 8751
4026 11898 16968 12099 6364 8766
4026 11899 16967 12080 6382 8779
4026 11898 16966 12099 6354 8777
4026 11899 16967 12114 6331 8775
4026 11900 16969 12112 6326 8762
4025 11899 16969 12121 6322 8747
4028 11900 16971 12131 6317 8739
4026 11901 16968 12125 6312 8742
4025 11898 16967 12135 6317 8756
4025 11899 16967 12153 6334 8753
4026 11898 16969 12097 6398 8818
4025 11900 16969 12105 6377 8788
4024 11901 16970 12115 6352 8768
4026 11900 16970 12121 6343 8768
4026 11902 16973 12130 6335 8773
4026 11900 16970 12139 6330 8771
4027 11902 16970 12142 6335 8753
4026 11898 16969 12147 6339 8743
4025 11901 16970 12150 6336 8744
4027 11902 16971 12092 6383 8785
4026 11901 16970 12102 6377 8787
4026 11900 16971 12114 6365 8782
4027 11901 16973 12122 6352 8769
4025 11899 16970 12131 6331 8752
4027 11904 16975 12136 6321 8738
4027 11903 16973 12131 6316 8739
4026 11904 16971 12122 6313 8747
4027 11902 16974 12122 6314 8751
4028 11903 16973 12108 6337 8752
4027 11903 16972 12077 6373 8763
4026 11902 16973 12076 6370 8766
4026 11903 16971 12100 6344 8756
4027 11903 16975 12116 6331 8753
4028 11902 16974 12139 6326 8760
4026 11902 16975 12144 6328 8764
4027 11903 16975 12134 6335 8764
4027 11905 16977 12121 6337 8768
4027 11902 16976 12114 6328 8772
4027 11904 16974 12112 6332 8770
4027 11903 16976 12085 6357 8769
4027 11904 16975 12079 6355 8772
4027 11904 16975 12099 6341 8764
4028 11903 16976 12108 6336 8749
4028 11904 16976 12114 6333 8742
4027 11904 16977 12127 6328 8740
4027 11904 16976 12135 6329 8747
4028 11905 16976 12132 6340 8756
4028 11906 16978 12121 6343 8748
4028 11905 16980 12115 6334 8753
4029 11906 16978 12098 6341 8761
4029 11906 16978 12094 6349 8757
4027 11903 16975 12117 6349 8759
4027 11904 16977 12131 6347 8765
4027 11904 16977 12134 6336 8764
4028 11906 16979 12126 6337 8762
4028 11905 16979 12122 6326 8762
4026 11907 16978 12150 6335 8760
4028 11907 16979 12139 6321 8749
4028 11905 16980 12080 6366 8772
4027 11906 16981 12088 6353 8779
4027 11904 16982 12108 6340 8775
4028 11906 16979 12121 6340 8770
4028 11905 16981 12126 6349 8773
4028 11906 16979 12128 6354 8771
4029 11907 16981 12136 6355 8764
4028 11905 16983 12133 6349 8757
4027 11907 16983 12137 6344 8754
4029 11908 16983 12130 6357 8769
4028 11907 16983 12101 6380 8784
4028 11906 16982 12093 6377 8774
4028 11906 16982 12109 6353 8764
4028 11905 16983 12123 6336 8762
4028 11907 16982 12140 6330 8763
4029 11906 16982 12150 6338 8763
4029 11906 16983 12146 6335 8762
4027 11906 16980 12145 6327 8756
4027 11907 16981 12147 6334 8746
4028 11906 16982 12132 6340 8754
4028 11907 16982 12103 6359 8785
4030 11906 16983 12101 6366 8793
4029 11907 16984 12121 6345 8766
4029 11908 16982 12139 6328 8755
4030 11907 16982 12146 6321 8763
4028 11907 16985 12148 6331 8764
4027 11906 16985 12151 6337 8764
4029 11905 16982 12152 6331 8764
4027 11909 16987 12151 6329 8768
4029 11905 16983 12142 6327 8774
4029 11907 16985 12113 6349 8781
4029 11907 16985 12104 6361 8775
4028 11905 16985 12124 6342 8767
4028 11908 16984 12134 6334 8766
4031 11909 16985 12156 6339 8756
4031 11910 16984 12160 6342 8746
4031 11910 16986 12151 6343 8736
4030 11909 16983 12152 6336 8740
4029 11909 16986 12145 6322 8742
4029 11907 16987 12137 6315 8741
4030 11908 16985 12096 6353 8783
4030 11907 16986 12118 6348 8775
4029 11909 16986 12131 6342 8774
4031 11909 16987 12133 6336 8769
4030 11910 16986 12133 6335 8742
4029 11906 16988 12129 6327 8728
4029 11909 16986 12134 6324 8739
4029 11908 16986 12143 6327 8744
4028 11909 16987 12148 6329 8736
4029 11909 16986 12116 6347 8754
4029 11911 16988 12086 6371 8779
4030 11909 16988 12098 6365 8778
4030 11909 16987 12105 6350 8768
4030 11910 16985 12111 6341 8759
4029 11909 16988 12119 6326 8753
4029 11909 16988 12128 6320 8741
4029 11910 16989 12141 6332 8742
4029 11911 16989 12148 6338 8744
4029 11910 16991 12143 6328 8742
4029 11910 16989 12096 6366 8753
4031 11911 16988 12102 6362 8753
4029 11910 16988 12130 6336 8749
4030 11910 16991 12136 6332 8753
4028 11910 16989 12135 6340 8758
4031 11913 16989 12133 6339 8763
4030 11912 16986 12133 6332 8758
4031 11911 16990 12132 6334 8745
4031 11913 16990 12143 6340 8747
4029 11912 16990 12136 6346 8748
4032 11910 16990 12105 6369 8768
4030 11912 16990 12094 6373 8783
4031 11911 16988 12113 6353 8775
4030 11911 16988 12138 6337 8769
4028 11909 16988 12141 6331 8765
4028 11908 16988 12134 6333 8756
4029 11909 16985 12137 6338 8750
4028 11909 16987 12138 6340 8758
4028 11905 16982 12141 6339 8766
4028 11910 16987 12108 6335 8768
4033 11920 16998 12103 6388 8792
4029 11908 16991 12017 6372 8774
4058 12022 17112 12017 6333 8739
4074 12080 17167 12079 6364 8750
4091 12136 17226 12045 6407 8763
4085 12111 17197 12057 6433 8786
4092 12145 17232 12057 6399 8782
4092 12139 17226 12061 6388 8780
4090 12136 17222 12061 6401 8783
4094 12150 17237 12041 6411 8769
4095 12163 17252 12018 6451 8799
4094 12157 17247 12012 6470 8820
4100 12176 17265 12011 6440 8804
4098 12171 17260 12035 6421 8809
4101 12179 17269 12047 6417 8804
4102 12185 17274 12045 6436 8797
4105 12197 17288 12050 6442 8799
4108 12216 17306 12057 6439 8792
4109 12222 17315 12064 6451 8799
4112 12228 17319 12062 6459 8808
4112 12225 17316 12044 6486 8814
4120 12255 17348 12015 6507 8809
4122 12254 17346 12029 6503 8820
4118 12246 17338 12045 6493 8834
4125 12267 17360 12035 6473 8817
4120 12259 17350 12042 6477 8825
4122 12263 17355 12024 6486 8830
4124 12271 17364 12013 6482 8813
4119 12255 17348 12022 6478 8803
4135 12311 17410 12041 6485 8798
4132 12296 17388 11953 6556 8829
4127 12283 17379 11964 6552 8824
4134 12310 17403 11971 6532 8821
4125 12280 17368 11993 6516 8828
4126 12285 17376 11992 6479 8778
4139 12323 17413 11993 6490 8788
4125 12275 17367 12000 6505 8794
4137 12320 17413 11989 6486 8778
4129 12293 17381 11998 6490 8800
4130 12297 17389 11989 6491 8783
4132 12304 17395 11958 6498 8791
4130 12295 17386 11957 6511 8805
4135 12306 17397 11976 6511 8797
4131 12297 17390 11990 6507 8795
4132 12302 17395 11986 6499 8794
4131 12299 17390 11982 6501 8797
4131 12296 17387 11979 6496 8794
4132 12299 17391 12002 6499 8792
4130 12289 17380 12003 6503 8796
4131 12298 17389 11987 6505 8803
4129 12293 17383 11975 6520 8824
4130 12300 17390 11969 6524 8832
4131 12295 17384 11991 6522 8812
4129 12292 17384 11983 6508 8803
4130 12299 17390 11988 6508 8815
4126 12281 17369 11983 6505 8822
4130 12299 17392 11999 6503 8805
4127 12286 17373 12011 6508 8812
4127 12285 17377 11998 6495 8811
4125 12281 17372 12018 6508 8808
4127 12283 17377 11986 6535 8825
4131 12292 17384 11971 6558 8832
4121 12266 17356 11983 6536 8826
4129 12295 17387 11990 6505 8800
4126 12282 17373 11989 6503 8808
4125 12277 17365 11985 6498 8822
4125 12278 17365 11987 6478 8792
4127 12282 17371 12008 6484 8792
4124 12278 17368 12008 6486 8807
4126 12285 17373 11999 6475 8790
4123 12267 17353 11987 6534 8814
4123 12276 17363 12002 6522 8810
4126 12286 17372 12017 6507 8815
4120 12262 17349 11996 6488 8800
4125 12279 17369 12020 6490 8797
4122 12269 17357 12020 6499 8814
4120 12262 17349 12011 6504 8807
4122 12270 17358 12016 6497 8805
4121 12262 17349 12017 6485 8802
4120 12260 17345 11986 6502 8822
4120 12258 17345 11999 6488 8827
4117 12254 17344 12005 6468 8821
4121 12263 17352 12006 6469 8810
4118 12254 17342 12008 6474 8798
4122 12265 17352 12007 6478 8797
4120 12260 17349 12008 6481 8800
4121 12264 17353 12017 6492 8790
4123 12267 17359 12031 6505 8790
4123 12272 17361 12020 6508 8795
4123 12266 17358 11998 6524 8801
4127 12287 17378 11987 6534 8813
4128 12285 17378 11984 6516 8802
4126 12281 17374 11977 6500 8790
4128 12285 17377 11979 6502 8785
4128 12282 17375 11994 6519 8793
4128 12288 17380 12003 6514 8805
4127 12283 17375 12009 6498 8795
4130 12290 17383 12011 6499 8795
4128 12287 17377 12011 6515 8789
4129 12279 17367 11967 6534 8794
4134 12304 17394 11968 6530 8818
4128 12292 17376 11959 6482 8814
4126 12284 17370 11948 6469 8821
4126 12291 17375 11979 6485 8831
4122 12272 17358 11981 6486 8825
4125 12281 17363 11996 6487 8817
4122 12270 17352 11994 6478 8804
4125 12276 17358 11999 6482 8795
4121 12258 17345 12015 6485 8786
4121 12258 17348 11967 6534 8794
4127 12270 17362 11968 6530 8818
4123 12261 17347 11959 6482 8814
4120 12251 17337 11948 6469 8821
4112 12227 17309 11979 6485 8831
4129 12287 17368 11981 6486 8825
4134 12305 17388 11996 6487 8817
4142 12339 17425 11994 6478 8804
4138 12320 17401 11999 6482 8795
4137 12322 17402 12015 6485 8786
4139 12327 17408 11955 6540 8802
4138 12337 17415 11973 6521 8797
4139 12331 17409 11969 6518 8808
4137 12328 17405 11963 6562 8815
4138 12327 17403 11948 6547 8816
4138 12330 17408 11949 6514 8816
4136 12327 17404 11957 6531 8830
4138 12330 17410 11969 6517 8857
4138 12332 17409 11962 6491 8837
4138 12333 17412 11959 6501 8834
4140 12332 17411 11961 6512 8850
4140 12335 17416 11963 6513 8855
4138 12335 17414 11966 6514 8839
4137 12332 17412 11976 6502 8822
4136 12330 17409 11979 6497 8817
4136 12331 17411 11965 6497 8807
4134 12328 17409 11961 6499 8813
4134 12327 17408 11963 6506 8832
4133 12320 17402 11953 6503 8828
4123 12281 17360 11938 6517 8846
4101 12194 17275 11960 6521 8845
4103 12196 17282 11962 6508 8843
4079 12111 17168 11964 6503 8840
4124 12298 17346 11965 6499 8831
4219 12654 17668 11957 6495 8828
4200 12573 17592 11952 6486 8826
4194 12547 17588 11958 6488 8827
4209 12584 17656 11974 6504 8831
4179 12471 17535 11942 6477 8816
4163 12427 17504 11998 6491 8826
4187 12513 17586 12013 6483 8844
4132 12331 17384 11967 6380 8764
4160 12461 17517 11949 6517 8781
4172 12490 17538 11722 6676 8886
4159 12446 17500 11687 6592 8904
4193 12567 17641 11763 6571 8889
4153 12413 17488 11779 6643 8908
4160 12451 17539 11852 6589 8845
4176 12486 17561 11912 6577 8856
4156 12434 17493 11961 6607 8950
4189 12545 17600 11879 6525 8850
4159 12434 17487 11867 6564 8861
4197 12578 17654 11868 6573 8896
4188 12521 17601 11850 6576 8825
4173 12475 17563 11890 6631 8892
4191 12534 17614 11908 6554 8853
4150 12391 17449 11993 6551 8837
4166 12459 17521 11993 6551 8882
4171 12472 17529 11916 6538 8811
4167 12467 17534 11813 6560 8839
4200 12579 17659 11861 6579 8867
4172 12479 17555 11911 6593 8902
4186 12528 17612 11946 6562 8833
4164 12445 17510 11980 6580 8904
4155 12425 17484 11932 6532 8862
4181 12515 17576 11888 6520 8815
4166 12458 17517 11868 6540 8856
4199 12567 17643 11845 6531 8816
4190 12516 17593 11914 6595 8890
4175 12473 17551 11944 6605 8863
4180 12488 17559 11969 6579 8899
4150 12378 17437 11909 6542 8829
4172 12470 17532 11900 6570 8864
4171 12471 17528 11882 6559 8860
4177 12497 17569 11887 6615 8830
4199 12572 17652 11942 6638 8903
4172 12475 17553 11964 6569 8873
4187 12516 17594 11977 6602 8892
4160 12422 17483 11935 6586 8896
4168 12465 17528 11899 6557 8842
4182 12507 17572 11889 6568 8868
4174 12488 17560 11884 6558 8831
4205 12593 17677 11931 6609 8861
4187 12518 17600 11954 6606 8896
4187 12526 17611 11982 6584 8878
4178 12496 17567 11970 6574 8900
4160 12434 17501 11898 6550 8824
4177 12498 17564 11898 6574 8858
4176 12490 17558 11887 6583 8901
4197 12560 17644 11897 6621 8888
4202 12571 17652 11952 6637 8941
4175 12479 17556 11967 6600 8899
4172 12465 17534 11961 6601 8884
4151 12391 17454 11933 6560 8877
4148 12385 17451 11910 6520 8823
4157 12410 17478 11900 6550 8848
4161 12430 17504 11890 6552 8847
4172 12469 17545 11927 6600 8858
4167 12446 17515 11956 6645 8906
4161 12430 17501 11932 6611 8889
4152 12397 17459 11934 6582 8874
4147 12384 17449 11925 6535 8840
4159 12428 17491 11928 6510 8818
4159 12423 17492 11948 6517 8832
4174 12475 17552 11969 6532 8834
4157 12405 17476 12003 6555 8846
4155 12407 17482 12008 6551 8844
4147 12376 17439 12016 6555 8851
4139 12350 17415 11985 6555 8863
4147 12382 17447 11945 6559 8857
4149 12387 17455 11930 6559 8855
4162 12431 17507 11916 6551 8835
4165 12439 17516 11963 6577 8864
4159 12420 17495 11991 6575 8862
4155 12405 17474 11982 6572 8845
4143 12365 17429 11990 6566 8854
4146 12373 17438 11958 6535 8822
4149 12383 17453 11949 6537 8838
4158 12419 17493 11923 6585 8861
4162 12430 17506 11948 6579 8882
4160 12423 17502 11972 6556 8878
4154 12400 17471 11979 6541 8860
4145 12372 17439 11949 6531 8830
4143 12364 17431 11936 6519 8822
4148 12380 17451 11936 6517 8828
4155 12406 17484 11944 6536 8837
4161 12428 17505 11966 6552 8860
4160 12423 17502 11967 6580 8879
4155 12405 17477 11957 6548 8856
4146 12374 17442 11942 6527 8828
4143 12364 17434 11942 6518 8831
4146 12374 17443 11956 6525 8837
4153 12399 17476 11984 6533 8840
4160 12422 17501 12008 6551 8853
4160 12423 17502 12008 6567 8873
4156 12406 17480 12002 6558 8871
4149 12381 17451 11987 6546 8865
4143 12366 17434 11960 6541 8879
4145 12368 17439 11959 6537 8871
4149 12386 17460 11984 6539 8852
4159 12424 17507 12001 6549 8850
4162 12428 17510 12002 6559 8847
4164 12440 17522 11993 6546 8842
4158 12418 17494 11978 6512 8828
4156 12409 17484 11961 6494 8809
4160 12421 17500 11933 6491 8807
4162 12434 17517 11943 6498 8821
4174 12473 17562 11936 6543 8861
4175 12482 17570 11947 6590 8865
4177 12482 17571 11970 6589 8854
4172 12468 17554 11957 6568 8836
4167 12454 17537 11970 6557 8824
4173 12471 17558 11963 6541 8836
4196 12557 17646 11967 6526 8836
4192 12540 17628 11984 6545 8850
4196 12562 17653 11980 6560 8851
4200 12570 17661 11962 6554 8850
4187 12531 17616 11934 6561 8848
4187 12529 17615 11908 6546 8807
4183 12512 17596 11933 6585 8839
4188 12524 17611 11948 6583 8860
4192 12547 17635 11933 6583 8847
4195 12555 17646 11942 6601 8877
4196 12557 17646 11936 6587 8848
4196 12545 17632 11927 6573 8835
4190 12527 17611 11910 6566 8837
4185 12512 17599 11888 6586 8851
4189 12528 17614 11914 6581 8866
4189 12534 17623 11930 6568 8872
4197 12557 17649 11945 6575 8856
4196 12555 17643 11934 6573 8846
4192 12545 17634 11921 6557 8838
4186 12525 17611 11915 6559 8833
4183 12514 17599 11914 6563 8831
4183 12517 17602 11931 6568 8836
4188 12529 17617 11913 6588 8862
4191 12543 17634 11908 6579 8856
4193 12544 17632 11914 6568 8837
4190 12534 17623 11900 6568 8836
4184 12516 17600 11908 6566 8835
4180 12503 17586 11929 6575 8833
4181 12505 17590 11944 6569 8839
4185 12516 17605 11953 6558 8850
4188 12529 17619 11953 6558 8845
4191 12535 17624 11946 6551 8837
4189 12526 17615 11930 6567 8852
4184 12512 17599 11926 6578 8857
4180 12495 17579 11939 6575 8853
4180 12493 17577 11952 6572 8859
4181 12502 17588 11966 6569 8856
4188 12522 17608 11978 6567 8851
4184 12512 17602 11974 6563 8837
4184 12516 17606 11961 6560 8825
4179 12495 17580 11941 6554 8825
4176 12482 17565 11942 6562 8842
4174 12473 17556 11931 6583 8863
4177 12487 17571 11922 6594 8867
4180 12498 17586 11945 6581 8861
4182 12507 17596 11946 6552 8846
4183 12509 17597 11934 6541 8844
4183 12500 17584 11928 6535 8852
4178 12482 17562 11926 6536 8847
4177 12480 17563 11932 6551 8842
4176 12485 17570 11941 6561 8832
4180 12494 17583 11958 6571 8833
4183 12508 17595 11923 6574 8849
4184 12510 17602 11921 6562 8825
4179 12493 17579 11912 6576 8820
4178 12493 17579 11915 6577 8833
4174 12477 17562 11938 6563 8837
4178 12489 17576 11936 6558 8834
4177 12488 17576 11935 6558 8833
4185 12513 17603 11951 6538 8833
4183 12508 17597 11962 6528 8818
4182 12506 17595 11950 6568 8840
4180 12497 17584 11957 6562 8841
4176 12485 17571 11945 6551 8852
4179 12497 17581 11967 6554 8836
4176 12481 17567 11957 6544 8829
4181 12503 17592 11962 6525 8826
4179 12498 17584 11958 6517 8822
4177 12487 17572 11928 6516 8817
4176 12482 17568 11925 6512 8805
4173 12467 17552 11927 6536 8820
4174 12477 17560 11910 6555 8822
4176 12482 17566 11911 6547 8820
4179 12493 17580 11910 6525 8815
4177 12494 17580 11896 6515 8804
4177 12489 17576 11918 6524 8800
4176 12482 17565 11942 6524 8798
4172 12473 17556 11945 6520 8809
4171 12462 17544 11948 6517 8801
4174 12475 17558 11947 6504 8777
4173 12478 17563 11938 6507 8778
4174 12481 17565 11919 6527 8792
4173 12478 17564 11900 6545 8807
4175 12472 17554 11898 6549 8808
4168 12446 17526 11918 6530 8799
4171 12457 17537 11935 6521 8799
4168 12448 17532 11936 6539 8798
4171 12464 17550 11921 6536 8782
4171 12464 17549 11911 6501 8770
4172 12463 17551 11923 6482 8788
4167 12450 17533 11929 6491 8813
4162 12438 17519 11935 6534 8840
4160 12429 17510 11936 6555 8844
4158 12420 17501 11948 6550 8841
4163 12433 17513 11955 6546 8830
4164 12439 17521 11965 6535 8814
4166 12443 17525 11988 6527 8813
4165 12435 17514 11976 6527 8828
4160 12421 17496 11964 6518 8862
4156 12416 17492 11964 6519 8875
4158 12419 17498 11973 6535 8873
4161 12426 17509 11958 6564 8869
4162 12432 17512 11956 6545 8858
4160 12426 17506 11966 6535 8845
4160 12422 17497 11977 6529 8839
4158 12417 17491 11977 6539 8844
4157 12410 17484 11980 6526 8842
4157 12411 17486 11981 6521 8835
4157 12413 17489 11978 6529 8830
4162 12428 17506 11979 6520 8833
4161 12428 17504 11927 6557 8834
4165 12437 17520 11967 6562 8834
4174 12471 17553 11944 6539 8829
4166 12448 17531 11953 6540 8824
4171 12464 17542 11985 6562 8844
4166 12443 17522 11964 6562 8832
4172 12465 17547 11964 6565 8828
4170 12457 17540 11954 6549 8817
4171 12460 17542 11964 6533 8810
4169 12450 17532 11960 6546 8836
4166 12444 17524 11943 6556 8856
4168 12449 17528 11947 6546 8857
4167 12448 17527 11954 6533 8835
4171 12459 17540 11944 6533 8829
4170 12459 17540 11954 6537 8839
4172 12461 17544 11964 6533 8845
4169 12456 17539 11971 6528 8853
4170 12452 17535 11970 6526 8849
4167 12447 17527 11968 6544 8841
4167 12450 17531 11935 6570 8853
4168 12452 17530 11941 6542 8849
4169 12456 17538 11952 6533 8840
4169 12454 17535 11961 6545 8839
4169 12453 17535 11971 6541 8841
4169 12455 17537 11968 6532 8834
4168 12451 17531 11956 6526 8832
4172 12466 17554 11954 6521 8845
4186 12522 17612 11950 6564 8844
4187 12527 17611 11957 6589 8863
4183 12506 17590 11935 6579 8854
4184 12514 17598 11929 6557 8834
4188 12523 17612 11930 6545 8828
4190 12534 17623 11941 6561 8834
4187 12525 17613 11942 6572 8844
4190 12535 17623 11943 6573 8840
4190 12532 17622 11954 6577 8839
4189 12528 17615 11960 6573 8850
4186 12514 17598 11963 6573 8856
4184 12518 17602 11928 6589 8878
4185 12515 17601 11924 6590 8869
4185 12521 17610 11925 6579 8855
4186 12523 17608 11947 6566 8852
4187 12522 17608 11961 6562 8853
4185 12513 17597 11955 6548 8852
4184 12509 17594 11946 6539 8832
4184 12512 17596 11949 6542 8820
4186 12518 17603 11949 6545 8824
4184 12514 17600 11945 6564 8839
4185 12515 17603 11934 6583 8852
4186 12515 17600 11949 6579 8837
4187 12514 17599 11962 6568 8831
4184 12503 17588 11954 6564 8829
4185 12509 17593 11952 6559 8818
4181 12504 17590 11947 6558 8814
4184 12514 17598 11960 6562 8819
4182 12507 17593 11952 6563 8816
4187 12520 17607 11954 6567 8823
4187 12518 17603 11925 6570 8835
4191 12543 17638 11917 6586 8852
4188 12530 17617 11943 6589 8858
4187 12528 17615 11947 6582 8838
4185 12520 17605 11954 6567 8827
4184 12517 17603 11954 6557 8830
4183 12512 17598 11947 6555 8843
4185 12521 17608 11943 6553 8846
4183 12511 17596 11952 6563 8834
4182 12507 17593 11942 6557 8825
4184 12508 17594 11924 6555 8828
4187 12525 17614 11913 6568 8849
4188 12529 17617 11926 6576 8866
4191 12532 17621 11932 6579 8861
4187 12525 17614 11943 6575 8845
4188 12526 17612 11953 6575 8827
4186 12520 17608 11941 6568 8830
4188 12525 17611 11938 6558 8832
4188 12522 17609 11949 6563 8843
4187 12515 17602 11962 6564 8855
4183 12509 17597 11951 6563 8846
4183 12509 17598 11921 6582 8849
4185 12513 17602 11914 6593 8851
4186 12518 17606 11936 6571 8845
4187 12520 17610 11959 6561 8844
4186 12522 17612 11962 6552 8846
4186 12521 17613 11957 6558 8844
4188 12525 17615 11965 6565 8841
4190 12526 17614 11969 6554 8841
4191 12524 17610 11969 6555 8840
4189 12523 17608 11962 6565 8840
4188 12524 17612 11931 6605 8866
4188 12523 17614 11929 6585 8858
4188 12525 17616 11942 6560 8849
4187 12525 17616 11955 6546 8839
4188 12525 17616 11956 6540 8835
4188 12527 17618 11946 6542 8845
4187 12525 17617 11957 6566 8848
4184 12516 17605 11915 6571 8800
4192 12541 17639 11942 6592 8824
4191 12537 17633 11936 6593 8849
4197 12555 17660 11882 6573 8847
4194 12541 17639 11943 6584 8862
4195 12549 17647 11936 6562 8842
4195 12548 17647 11940 6540 8833
4196 12552 17654 11944 6529 8813
4200 12562 17667 11949 6551 8830
4193 12538 17638 11979 6575 8845
4193 12542 17640 11966 6582 8843
4188 12525 17620 11974 6591 8844
4190 12534 17626 11956 6579 8851
4187 12530 17626 11933 6593 8869
4191 12536 17629 11936 6599 8860
4190 12537 17635 11947 6577 8834
4194 12553 17651 11972 6575 8834
4191 12549 17648 11965 6564 8846
4191 12561 17660 11960 6567 8839
4188 12567 17666 11976 6575 8836
4195 12633 17736 11979 6565 8830
4217 12952 17854 11961 6560 8827
4298 13693 18022 11793 6578 8693
6111 21762 26042 10120 5994 6853
9987 40201 40900 8993 6810 7456
15500 67520 63313 9982 8814 9630
38278 177047 147004 6358 10395 9483
49073 224166 175546 785 11301 13116
29473 129279 109733 -351 8829 16575
20040 78368 78922 1482 8243 13936
11243 42469 46654 3383 12129 11368
13497 53029 57707 3915 11959 9921
22933 90454 96685 6129 7579 7629
40300 163821 161680 11939 7025 9616
36008 129746 138887 10848 7381 9402
17915 58909 74292 10680 7244 9474
12440 39761 53004 12474 6781 6914
12001 41857 54899 12486 7396 4350
16574 63909 79851 12373 7324 6260
17624 70767 90514 13575 5811 9020
13124 61860 88182 14598 5075 7936
20594 107970 162293 15148 5079 5115
14417 52167 65745 15429 5450 -2265
30364 105566 142242 15411 4369 -3963
51617 197604 261332 17083 6270 -5959
48928 242068 327510 17918 7609 -6450
50243 270768 372969 17009 7672 -3944
57380 294192 401266 16350 8335 356
62529 306283 409862 16412 10656 432
66706 315650 415826 16012 12815 -4412
70609 322300 420996 15226 13285 -7671
72527 323596 422662 14547 12524 -6104
73444 322515 421545 12873 10970 -3261
74639 322220 421164 10525 10745 -3269
75392 321694 420532 9254 12547 -5099
75969 321679 419824 8093 12999 -5796
76530 322614 420350 5986 11864 -4565
73327 311914 409635 4050 11584 -2587
65616 273172 360755 2693 12266 -1686
53521 220941 292412 1737 13030 -1801
41164 172829 228959 1159 13714 -1345
33021 143574 190363 975 14102 -115
28057 126232 167245 929 14503 974
24246 111301 146949 1065 15162 1163
22529 106469 141715 1189 15875 1324
22955 113321 152872 1213 16137 2343
24556 126309 173130 1075 15500 2806
27879 150168 208776 428 14462 1945
33039 186875 260842 -142 14106 406
38680 222091 307292 -644 14754 -1454
44562 252106 345774 -1353 15608 -3030
50261 271069 368446 -1872 15920 -3587
54647 281695 380642 929 14503 974
59509 292485 392765 1065 15162 1163
62148 295188 394910 1189 15875 1324
63231 295730 395187 1213 16137 2343
63350 294059 392277 1075 15500 2806
60983 285620 380700 428 14462 1945
56509 270350 361078 -142 14106 406
51691 253818 340698 -644 14754 -1454
47789 242423 327564 -1353 15608 -3030
46314 242854 330807 -1872 15920 -3587
47101 253538 346860 -1779 15145 -2195
49023 264237 362708 -1525 15201 -1683
51786 274740 377755 -1403 14876 -1359
55431 284647 393148 -986 14786 -947
61839 296587 410254 -510 15321 -688
66490 300459 412036 18 15984 -370
70831 303803 412997 344 16705 -38
74690 306515 413325 353 16613 228
76846 308026 413568 237 16004 8
77150 307402 412246 207 16343 -784
77594 308147 412914 254 16948 -1293
78664 310013 414681 8 16699 -1509
79338 311075 415479 -647 16037 -2010
81699 315415 419378 -1384 16123 -3111
84465 319007 421406 -1894 16236 -4166
86028 319735 420832 -2104 15811 -4237
87309 320648 421318 -2178 15379 -4120
88784 323045 423885 -2917 14945 -4752
89218 323181 426618 -3885 15015 -5353
87356 318989 423280 -4029 14936 -4470
85294 315102 419801 -3694 14468 -4191
85344 316649 422923 -3350 14393 -4465
87135 321252 428189 -2830 14865 -4817
88948 324437 429929 -2427 15455 -5238
89991 325506 428674 -1846 15650 -5745
90789 325842 427228 -1500 15132 -5836
91511 326075 426477 -2387 14912 -6077
92090 326142 425877 -4067 15354 -6733
92782 326464 425490 -5050 15581 -6540
93557 327068 425512 -4946 15402 -5929
94140 328106 428014 -4474 14968 -5892
94360 328231 429413 -3834 14677 -6268
94938 328691 429849 -3314 14595 -6556
95457 329267 430217 -2892 14551 -6748
95564 329218 429849 -2332 14681 -6914
95300 328662 428919 -1962 14814 -7218
94860 327996 428552 -1639 14596 -7427
94445 327374 427788 -1831 14084 -7875
94109 326593 426182 -1688 14388 -7838
94184 326842 426111 -2112 14866 -8392
94168 326086 425811 -3174 14783 -9320
93484 323395 423442 -3115 15138 -9047
93303 322219 422549 -2927 15596 -8966
93772 322374 422955 -3008 15368 -8967
93654 320936 421120 -3111 14708 -8833
95617 325216 425545 -2864 14799 -8595
97302 327911 427698 -2420 15317 -7550
97831 327831 426904 -2046 14664 -6266
97689 326371 425487 -2103 13458 -5629
97766 325877 425951 -2564 14868 -5192
97446 323932 425801 -3180 14994 -5092
96179 320900 422619 -3415 15795 -4096
92399 312810 412971 -3109 16180 -3592
89698 274081 378232 -3058 15232 -3493
42517 115685 168515 -3233 14896 -2757
1830 4787 4967 -3482 15278 -3067
284 796 651 -3774 15847 -4270
286 792 657 -5023 15466 -5279
293 833 666 -6271 15155 -3820
310 916 679 -7922 15380 -2938
332 1022 700 -7239 14540 -798
463 1613 807 -13186 11217 9125
621 2233 1043 -6150 9946 15225
579 2005 1014 831 14216 13027
520 1837 997 -5870 14263 10054
476 1685 960 -4283 10161 6288
424 1455 874 -6241 9491 3573
376 1236 790 -2081 13232 6355
345 1089 737 -2677 13733 6027
325 997 706 -3308 14634 6405
313 936 686 -4333 15685 7603
299 878 673 -6220 15174 8164
289 827 657 -7487 14964 7959
280 791 639 -7695 14716 6561
273 773 624 -7282 14038 5352
269 758 616 -7239 13574 4904
264 741 606 -7398 13674 4457
258 724 593 -6779 14120 3976
260 736 589 -6634 14621 3889
258 725 574 -7772 15250 3117
251 701 553 -7417 14814 1744
249 692 549 -5453 13709 1355
249 695 553 -4801 13827 54
250 696 558 -4380 14405 -2166
254 714 572 -3848 15774 -1762
256 724 575 -6216 16821 -2557
254 721 577 -7545 15882 -4179
256 723 580 -5771 14646 -3392
256 726 590 -4899 14210 -3566
259 737 597 -5172 15326 -6252
265 752 603 -5303 14552 -6092
263 754 602 -4769 14569 -5431
265 762 616 -3835 14648 -5254
270 774 633 -2950 13847 -3663
267 756 619 -3150 14256 -4478
257 715 588 -3954 14399 -4911
250 694 570 -4247 15759 -4219
246 682 557 -1377 17129 -3346
244 670 545 748 14690 -3458
241 655 543 297 14645 -2078
239 644 555 -3470 18451 -980
241 642 588 -6639 17842 -1949
245 643 640 -5006 14799 -3998
253 660 703 -3896 12926 -5713
256 689 724 -3003 13259 -5864
259 735 669 -2307 13674 -6630
269 772 647 -2258 13927 -7644
275 795 636 -1706 14899 -8619
277 808 641 -1150 15023 -8655
278 822 648 -809 15704 -8427
277 824 648 -552 16013 -8309
275 823 644 -911 15831 -7203
276 825 642 -2244 15400 -5239
277 834 646 -3597 16138 -4910
279 848 646 -4792 16691 -5527
281 864 643 -5304 16375 -4126
285 882 638 -5251 15923 -4117
284 877 623 -3980 15165 -6092
278 846 597 -2677 15305 -8191
273 819 573 -2330 16262 -8613
268 794 554 -2149 16839 -6554
262 773 539 -2453 16393 -3524
259 751 532 -4031 16272 -2054
256 735 532 -4635 15903 -2298
255 728 536 -3876 14720 -2559
254 726 541 -3651 14388 -1470
253 720 544 -3427 14911 1235
257 732 557 -2384 15154 2903
260 755 580 -1119 15051 1277
266 779 603 -30 14941 -2489
272 818 630 930 14646 -6066
283 882 675 1843 14489 -7917
299 964 734 2147 15119 -8176
317 1058 811 2969 15312 -9221
345 1188 917 4140 14579 -10443
380 1368 1048 4700 14020 -9850
421 1557 1175 5027 13670 -8974
467 1760 1304 4323 13829 -8471
512 1965 1429 3119 14400 -7923
560 2183 1576 2184 14318 -7016
607 2393 1724 581 14554 -5739
653 2583 1884 -1635 16040 -4022
697 2781 2071 -3016 16739 -2371
743 3004 2296 -3455 16429 -1248
796 3265 2563 -3520 16399 -388
880 3676 3011 -3785 16400 33
1001 4248 3638 -3964 16674 153
1178 5067 4539 -3891 17143 -181
1440 6270 5973 -3648 17021 -790
1693 7402 7307 -3092 16805 -975
1734 7515 7375 -1836 16059 -794
1602 6844 6637 -197 14663 -28
1413 5897 5569 587 13712 1235
1235 5033 4585 109 13606 2235
1100 4395 3854 -953 13924 2821
1047 4167 3501 -1889 13891 3465
1049 4144 3347 -2296 14283 3935
1060 4154 3132 -1642 14599 3187
934 3635 2487 -1539 15336 1887
714 2807 2098 -1644 16159 437
694 2740 2166 -1448 16775 -646
722 2854 2239 -931 17022 -1115
764 3037 2330 -513 17108 -1230
809 3243 2416 -310 17223 -1339
838 3371 2457 -188 17159 -1616
857 3461 2479 -135 17016 -1665
866 3496 2478 -194 16693 -1555
862 3468 2455 -322 16414 -1127
847 3406 2422 -539 16248 -566
831 3336 2413 -776 15727 245
816 3263 2427 -1048 15408 999
822 3252 2461 -1363 15596 1237
851 3329 2517 -1411 15575 1272
888 3463 2611 -1294 15493 1353
948 3701 2777 -1035 15500 1792
1031 4047 3046 -935 15817 1683
1169 4574 3463 -832 16173 1119
1348 5240 3945 -713 16500 316
1496 5768 4294 -732 16764 -307
1539 5921 4339 -961 16819 -543
1503 5808 4247 -1289 16648 -413
1394 5443 3963 -1544 16390 -57
1229 4873 3510 -1754 16191 413
1080 4320 3056 -1968 16044 861
967 3865 2688 -2091 15924 1130
860 3427 2370 -2076 15894 1240
772 3072 2130 -2007 15914 1222
706 2792 1963 -1966 15953 1024
654 2551 1838 -1976 16018 814
613 2361 1745 -2016 16051 752
581 2220 1683 -1958 16033 804
556 2109 1631 -1695 15920 1012
539 2025 1593 -1372 15758 1299
526 1968 1564 -1298 15719 1479
520 1939 1545 -1332 15802 1530
519 1934 1542 -1179 15916 1381
524 1959 1562 -931 16043 1026
539 2017 1605 -757 16211 640
561 2117 1683 -697 16458 266
594 2253 1799 -766 16693 -69
635 2424 1949 -960 16828 -220
687 2625 2122 -1197 16741 -109
738 2836 2303 -1443 16480 72
794 3071 2499 -1714 16281 333
869 3396 2780 -2659 16243 1176
982 3894 3201 -3008 16308 1331
1076 4325 3614 -2864 16418 1316
1077 4421 3798 -2516 16535 789
1060 4473 3938 -2344 16695 509
1054 4567 4115 -2499 16877 507
1097 4845 4470 -2579 16858 422
1219 5435 5162 -2295 16517 669
1392 6200 6068 -1737 15887 1169
1639 7301 7336 -709 14256 2479
1993 8857 9157 -1490 14388 2432
2506 11080 11763 -2102 14802 1999
3268 14306 15557 -2536 15061 1483
4402 18984 21310 -2984 15178 1260
6071 25491 29418 -3104 15216 1260
8730 35193 40674 -3272 15367 803
11701 45442 52269 -3735 15517 420
13762 52688 60108 -3695 15716 638
15675 58795 66772 -4413 14771 2162
16723 61442 71561 -4518 15211 1912
18944 66796 80933 -4667 15314 2092
23808 80301 97703 -5916 15858 2367
29656 98463 118524 -7007 16218 2405
34055 113045 134599 -6563 16000 2152
35427 117834 139494 -5544 15845 1924
35327 118013 139359 -4591 15674 1493
34244 115228 135452 -4140 15368 811
29300 100031 119751 -3429 14456 416
29350 100884 121897 -3322 14345 270
32879 115250 137881 -4295 15364 173
36960 132075 155488 -5240 15988 277
37393 135808 156670 -5532 16212 1003
35914 132586 150667 -4883 16086 1759
35339 133907 151044 -4309 16133 1571
39003 157186 177718 -3814 16318 975
41398 175647 196552 -3197 16344 659
34968 279933 285317 -3774 15629 -1466
35429 282156 284854 -3737 15683 -1703
35721 283799 284699 -3432 15816 -1538
36891 284335 285586 -2968 15963 -1123
39920 283624 288420 -2663 16040 -1021
43278 269955 282903 -2654 16161 -928
47580 250587 274585 -2995 16355 -445
47075 223816 249698 -3298 16366 172
40088 169788 190186 -3551 16232 1059
29331 112191 125109 -4101 16167 1584
20017 74173 80966 -4290 15938 654
13291 50299 53195 -3327 15510 -777
9393 36486 37798 -1891 15314 -2419
7967 31451 32628 -893 15435 -4661
8695 34324 36009 -730 15684 -5870
11554 44767 47739 -1197 15850 -5110
16952 63725 69509 -1789 15891 -3585
25552 93067 103753 -2132 15729 -2194
35343 127126 143224 -2345 15530 -1079
43326 159110 179033 -3051 15710 -1127
50190 196549 217232 -3558 16024 -1503
51911 227420 244048 -3196 16103 -1540
50090 249837 259560 -3053 16113 -1831
48248 258379 264538 -3190 16097 -2098
48557 260420 267400 -3076 16024 -2328
50519 258168 269125 -2964 15956 -2575
51638 252206 267475 -2713 16003 -2804
51626 248151 266113 -2298 15985 -3027
51265 245934 264955 -2111 15934 -3025
50392 243903 263474 -2311 16046 -2993
49289 242382 262004 -2465 16071 -2860
48820 237171 257283 -2223 15962 -2336
48767 227086 248201 -1987 15909 -1842
48380 211429 233861 -2199 15878 -1498
47688 198256 222163 -3035 15893 -1563
43031 165496 186628 -3594 15971 -1057
32105 122516 136401 -4600 16689 -125
25788 98840 108209 -3877 16210 -905
24979 96219 106087 -1526 15116 -3014
30373 118904 133061 -1395 15409 -4235
36778 152735 170157 -2461 15596 -3374
38951 175229 192743 -3598 15542 -1349
39163 190570 206534 -3675 15653 -1791
37843 211148 222033 -3421 15625 -1830
35807 238088 242289 -3437 15638 -1841
34185 258555 256693 -3891 15694 -1992
33086 264979 259399 -4089 15704 -2098
33798 257786 251486 -3830 15606 -3070
34157 266052 263322 -2626 15182 -3797
35686 281908 280878 -1849 15038 -4005
39881 292469 291452 -2461 15596 -3374
43351 298055 297564 -3598 15542 -1349
45520 300388 300375 -3675 15653 -1791
47170 303998 302868 -3421 15625 -1830
48546 307557 305391 -3437 15638 -1841
49936 309676 308662 -3891 15694 -1992
51688 310718 313601 -4089 15704 -2098
53176 312193 319037 -3830 15606 -3070
54005 314390 322060 -2626 15182 -3797
54203 316121 322439 -1849 15038 -4005
54257 316900 322252 -1485 15436 -5556
54328 317140 321976 -1266 15193 -6441
54519 317640 321515 -1025 15011 -6884
54666 318067 321739 -881 14915 -7062
54729 318803 322870 -797 14768 -7171
54671 317930 322812 -904 14632 -7701
54539 317081 322432 -991 14318 -8560
54467 316605 322158 -888 14016 -9099
54524 316658 322373 -621 13745 -9460
54693 316985 322999 -413 13548 -9774
54729 316769 323087 -551 13420 -10095
54766 316668 323248 400 14691 -8767
54110 314425 321657 894 14091 -9731
46698 278172 295208 123 12894 -11621
41984 253353 254041 -503 13487 -10604
57913 284231 297060 -1069 13372 -9897
52641 283773 300418 -940 13463 -9069
48313 281078 299971 -382 13633 -8167
45905 281972 301058 333 14694 -7894
44170 285672 304339 -57 15395 -8137
44005 287313 306476 -725 14557 -7897
44546 289716 309650 -689 13924 -7422
45313 293958 312995 -546 14333 -7356
46277 296474 315608 -491 15057 -7501
46939 296475 316413 -662 15292 -7481
47415 296619 316797 -906 15117 -7145
47809 296994 317162 -1150 14747 -6857
48137 297614 317724 -1295 14271 -7057
48401 297765 318069 -1364 14082 -7268
48611 296542 317363 -1539 14570 -7115
49222 295303 316552 -1896 14934 -7036
50257 294586 316133 -2461 14631 -7131
51367 294564 315851 -2788 14729 -7045
52281 294429 316048 -2687 14693 -6819
53012 294045 316403 -2691 14264 -6850
53599 293758 316735 -2682 14358 -6976
54005 293512 317097 -2783 14574 -7065
54216 293122 317375 -2807 14696 -7207
54325 292758 317489 -2968 14766 -7284
54447 292700 317555 -4022 14437 -7300
54628 292911 317643 -5391 13899 -7218
54784 293142 317487 -5886 13428 -7119
54877 293395 317102 -5552 13442 -7194
54909 293570 316655 -5552 13584 -7369
55039 293383 316259 -6229 13448 -7483
55241 292973 315846 -6613 13478 -7435
55600 291493 314865 -6511 13418 -7517
55889 290285 313921 -6270 13150 -7710
56129 289764 313401 -5926 13074 -7740
56277 289821 313426 -5589 13254 -7666
56216 290663 314975 -5111 13456 -7756
56143 289453 315825 -5094 13606 -7689
56042 288719 314627 -5526 13610 -7338
56123 288453 313960 -6303 13447 -7129
56192 287809 313513 -6256 13405 -7327
56238 287245 313199 -5108 13873 -7463
56313 287298 312879 -4289 14193 -7413
56417 287681 312642 -4189 14083 -7431
56479 288320 312538 -3797 14346 -7487
56481 289272 312590 -3810 13648 -8546
56487 290492 312929 -8003 12119 -7721
56538 291388 313181 -6080 13124 -7456
56753 291866 313586 -5511 13463 -7619
57263 292154 314211 -5634 13566 -7929
57817 292523 314404 -5356 13661 -8052
58288 292876 314497 -4979 13670 -7971
58605 292706 314418 -4854 13504 -7951
58850 292736 314557 -5015 13185 -7866
59044 292828 314690 -4761 13183 -7608
59150 292498 314297 -3971 13880 -7585
59104 291373 313246 -3509 14401 -7731
59058 289447 312342 -3000 14355 -7698
59054 287905 311290 -2885 14265 -7363
59071 287049 310499 -3283 14518 -6909
59071 286727 309820 -2265 14989 -6500
59073 287149 309836 -1741 15326 -5991
59228 288517 310892 -2654 15180 -5897
59389 289744 312155 -3626 14862 -6283
59464 290225 313138 -4093 14580 -6536
59471 289910 313534 -3628 14656 -6638
59479 289671 313516 -3336 14765 -6524
59501 290010 313500 -3856 14490 -6449
59604 290863 313767 -5058 14937 -6770
59769 291484 313762 -4532 15437 -6743
59902 292668 313917 -3505 14330 -6387
59990 293956 314392 -4026 13878 -6382
59998 294325 314585 -5397 14906 -6140
59956 293984 314220 -6049 14964 -5988
59904 293517 313718 -5386 14160 -6335
60006 295423 315544 -4736 13540 -6511
60158 299812 319916 -4691 13551 -6767
59920 299709 319514 -4793 13902 -7075
59838 299778 319264 -4381 14252 -6806
59785 299924 319166 -4346 14594 -6160
59740 300161 319076 -4971 14682 -5626
59665 300436 318933 -5559 14497 -5632
59559 300404 318399 -5659 14359 -5971
59394 299072 316890 -4059 15200 -5416
59390 298683 316458 -1144 15932 -5313
59365 298477 316234 -3208 14698 -6421
59318 298231 315878 -6320 13773 -6587
59260 297644 315230 -5413 14117 -5954
59210 296776 314457 -4457 14410 -5727
59194 296124 313976 -3877 14555 -5808
59200 295659 313748 -3339 14832 -5872
59212 295127 313515 -3614 15659 -5972
59259 294941 313476 -4677 15527 -5275
59356 295590 314023 -4792 14471 -4723
59393 296491 314762 -4516 14142 -4997
59321 296516 314720 -5235 14536 -4948
60244 297134 315298 -4943 16181 -6769
60298 299236 317195 -5427 15643 -6168
60453 301823 320028 -6220 14823 -5354
60385 301217 319771 -6885 13780 -5005
60439 302013 320121 -7166 12687 -5081
60263 299818 318396 -7086 12858 -5124
60305 300194 318856 -5620 13709 -5136
60355 300870 319192 -3113 14439 -4724
60089 299230 317652 -3761 14501 -5739
59801 297132 315910 -3535 13934 -6284
59682 296246 314931 -4047 14419 -6402
59715 296512 314865 -6035 15063 -7242
59813 297261 315256 -3636 14778 -7227
59885 297903 315681 -2220 15097 -6893
59930 298417 316066 -2712 15478 -5688
59922 298592 316140 -2999 15173 -5551
59855 298362 315783 -2829 14988 -6368
59763 298339 315582 -2340 14934 -6084
59641 298218 315273 -1867 14819 -5288
59500 297862 314837 -1327 14740 -4878
59361 297353 314298 -964 14707 -4979
59201 296667 313548 -905 14740 -5292
59083 296125 312894 -1208 14921 -5623
59030 295907 312475 -1631 15055 -6316
59039 295937 312311 -2035 14755 -7187
59076 296064 312333 -1874 14628 -7594
59128 296157 312399 -1670 15110 -7739
59169 296153 312471 -2006 15520 -8007
59215 296130 312581 -2322 15578 -8288
59238 296271 312720 -3148 14878 -8661
59201 296751 312865 -3386 14697 -8385
59093 297495 313050 -3602 14367 -8211
58947 298433 313286 -3710 14079 -8176
58791 299277 313519 -3821 14030 -8163
58659 299552 313450 -4103 14012 -8200
58493 299020 312743 -4284 13861 -8259
58331 298789 312306 -4176 13772 -8343
58341 299971 313733 -4137 13914 -8518
58352 300793 314841 -3771 14673 -8590
58199 300850 314741 -3550 14810 -8584
58055 301051 314775 -3451 14878 -8624
57949 302028 314939 -3731 14681 -8748
57805 303202 315200 -3854 14196 -8798
57625 303830 315461 -3333 13883 -8362
57455 304479 315851 -2465 14016 -8498
57354 305810 317112 -2973 12376 -9516
57441 307831 319840 -3888 10804 -9737
57466 307822 321107 -3761 11785 -9334
57378 306384 320607 -3570 12040 -9546
57240 304871 319674 -3486 12149 -9634
57108 304265 319346 -3633 12188 -9493
56872 303294 318602 -3717 12069 -9421
56587 302405 317985 -3379 12126 -10181
56435 303131 318747 -3550 12850 -10725
56377 305026 320093 -4238 13529 -10283
56245 306394 320807 -4678 13445 -9533
56106 307440 321173 -5249 13135 -8991
55946 307880 320892 -5719 13050 -9069
55847 308693 320859 -5662 13187 -9121
55894 311159 321502 -5490 13823 -9026
55942 315202 321996 -5621 14055 -9052
55266 318681 318978 -5769 13300 -9065
53935 319447 312928 -5852 12823 -8907
52077 318813 304274 -5748 12702 -8697
50412 318399 298176 -3942 14376 -7659
47670 314011 285379 -3308 14094 -7587
42582 301181 262789 -3696 12266 -8209
37445 283096 244444 -4387 11210 -8590
34654 271469 238543 -5926 10875 -8548
35166 270372 242562 -5956 12267 -7680
37255 299571 263740 -5892 14318 -6020
36972 299301 264374 -5742 14195 -5941
36749 298277 264638 -5764 13866 -5887
36442 296907 264230 -5722 13523 -5814
35929 295624 263156 -5494 13390 -5834
35326 294826 262144 -5304 13343 -5957
35074 294746 261791 -5180 13372 -6052
35558 295465 263528 -5256 13431 -6412
36592 295938 266978 -5532 13677 -6471
37463 295894 269321 -5752 14064 -6603
38013 295771 270496 -5815 14248 -6868
38421 295746 271171 -5759 14244 -6977
38706 295805 271491 -5836 14139 -6913
38905 295933 271779 -6010 13905 -6901
39052 296069 272036 -6102 13763 -6959
39171 296150 272209 -6160 13851 -7074
39275 296281 272382 -6071 14122 -7011
39359 296333 272525 -6011 13989 -7017
39439 296312 272641 -6112 13811 -7092
39515 296401 272820 -6191 13776 -7157
39591 296568 273042 -6165 13762 -7202
39657 296696 273222 -6151 13663 -7277
39723 296795 273371 -6166 13569 -7309
39772 296849 273492 -6158 13599 -7299
39828 296951 273619 -6137 13694 -7347
39883 297085 273771 -6158 13669 -7396
39935 297186 273909 -6222 13519 -7416
39988 297316 274087 -6313 13394 -7497
40034 297392 274248 -6391 13373 -7582
40070 297443 274421 -6402 13383 -7602
40075 297395 274550 -6392 13420 -7628
40055 297410 274731 -6384 13517 -7647
40022 297464 274922 -6363 13698 -7597
39982 297549 275095 -6375 13841 -7533
39938 297574 275220 -6470 13831 -7528
39901 297676 275329 -6461 13769 -7497
39871 297818 275433 -6287 13723 -7381
39843 298033 275537 -6175 13594 -7277
39801 298315 275643 -6151 13425 -7233
39751 298553 275713 -6149 13374 -7100
39687 298692 275744 -6153 13274 -6920
39625 298802 275789 -6156 13158 -6817
39563 298854 275850 -6148 13153 -6771
39501 298803 275974 -6146 13247 -6825
39453 298793 276245 -6173 13463 -6930
39429 298998 276549 -6214 13719 -6993
39316 299372 275942 -6235 14081 -7004
38209 297194 266588 -6160 14389 -7006
32316 277623 234913 -6057 14711 -6925
26308 242433 211116 -6111 15087 -6730
36912 243306 236149 -6265 15329 -6528
48790 263215 266690 -6374 15371 -6337
52597 276938 284143 -6204 14595 -6152
52570 282953 291184 -5956 13462 -6021
52019 284780 293221 -6004 12993 -5968
51985 286071 294453 -6126 13061 -5937
51107 285953 293487 -6142 13554 -5924
49592 284688 290690 -6026 13328 -5913
48015 282875 287492 -6028 13097 -5840
45145 280284 282001 -6004 12960 -5887
43006 278227 278059 -5691 13294 -5853
41274 276861 274948 -5398 14046 -5735
40045 276053 272901 -5568 14472 -5761
38900 275335 271105 -5887 14401 -6131
37542 274687 269031 -6040 14295 -6473
36959 273044 267872 -5982 14316 -6642
37114 273329 268414 -6010 14340 -6805
37039 273755 268728 -6082 14277 -6808
36888 274108 268927 -6019 14167 -6794
37171 273824 269218 -5989 14111 -6571
37473 272967 268633 -6012 14002 -6613
37142 271994 266835 -5982 13944 -6616
36242 271626 264433 -5867 13903 -6298
34917 271686 261455 -5866 13703 -6034
33219 271599 257901 -6017 13588 -6070
31884 271839 255371 -6151 13893 -6576
31155 272730 253841 -5959 13978 -6887
30867 275367 253648 -5914 14002 -6798
31292 278551 255274 -6061 13995 -6726
32503 282061 258794 -6225 13981 -6917
33536 284287 262029 -6320 13995 -7000
34746 286142 266320 -6233 13954 -6971
35521 287375 268908 -6101 13933 -6989
36068 288216 270714 -6060 13957 -6935
36544 288739 272037 -6075 13967 -6895
36950 289179 273081 -6084 13959 -6832
37341 289472 274024 -6081 14004 -6711
37777 289780 275092 -6081 14060 -6565
38125 290013 275887 -6123 14109 -6418
38365 290124 276356 -6187 14192 -6317
38527 290193 276659 -6204 14206 -6173
38640 290289 276932 -6189 14160 -6017
38714 290389 277160 -6208 14089 -5945
38772 290510 277386 -6237 14067 -5890
38814 290611 277582 -6261 14099 -5820
38855 290726 277762 -6363 14057 -5792
38895 290841 277930 -6387 14012 -5849
38935 290997 278104 -6296 14031 -5949
38972 291126 278252 -6244 13998 -6014
39011 291273 278374 -6287 13959 -6067
39048 291322 278456 -6371 13990 -6093
39081 291373 278517 -6364 14064 -6106
39096 291399 278553 -6301 14136 -6062
39109 291398 278578 -6279 14190 -5988
39113 291384 278556 -6319 14241 -5870
39119 291348 278551 -6491 14081 -5618
39130 291357 278561 -6708 14063 -5508
39143 291370 278544 -6959 14078 -5413
39160 291367 278502 -7055 14107 -5320
39182 291368 278442 -7056 14160 -5265
39203 291351 278394 -7024 14260 -5247
39242 291312 278355 -7003 14370 -5165
39291 291352 278380 -6989 14463 -5037
39338 291393 278404 -6942 14550 -4842
39387 291394 278424 -6794 14683 -4599
39428 291349 278419 -6596 14764 -4384
39465 291291 278396 -6550 14709 -4236
39488 291152 278345 -6552 14625 -4109
39478 290985 278287 -6483 14551 -3960
39448 290875 278278 -6446 14466 -3813
39404 290829 278270 -6450 14393 -3732
39345 290755 278231 -6388 14403 -3688
39288 290686 278198 -6239 14429 -3676
39237 290685 278222 -6147 14452 -3719
39184 290627 278200 -5908 14568 -3749
39143 290524 278145 -5711 14532 -3804
39126 290489 278142 -5574 14510 -3908
39118 290530 278181 -5512 14523 -3919
39122 290552 278216 -5441 14464 -3920
39127 290538 278232 -5267 14401 -3940
39131 290552 278276 -5131 14503 -3961
39132 290562 278302 -5132 14691 -4016
39133 290586 278334 -4980 14807 -4127
39135 290642 278396 -4647 14902 -4228
39136 290693 278463 -4506 14991 -4225
39138 290729 278530 -4613 14947 -4199
39146 290806 278598 -4779 14865 -4220
39154 290921 278704 -4879 14922 -4248
39166 290973 278739 -4856 15093 -4265
39173 291002 278751 -4730 15182 -4345
39182 291029 278795 -4778 15131 -4482
39195 291081 278844 -5144 15008 -4581
39213 291133 278875 -5494 14822 -4682
39236 291081 278845 -5631 14698 -4828
39270 291058 278832 -5823 14653 -4918
39291 291091 278843 -6271 14547 -4993
39280 291050 278844 -6573 14428 -5010
39234 290935 278807 -6513 14377 -4901
39161 290802 278775 -6501 14332 -4932
39089 290734 278766 -6678 14285 -5065
39025 290739 278809 -6874 14260 -5093
38959 290709 278797 -6970 14227 -5119
38902 290643 278772 -6766 14235 -5234
38865 290602 278793 -6419 14272 -5430
38844 290521 278798 -6360 14309 -5560
38854 290448 278774 -6538 14235 -5614
38880 290492 278808 -6570 14073 -5721
38911 290503 278841 -6371 14145 -5759
38942 290442 278803 -5935 14395 -5708
38970 290393 278808 -5497 14516 -5654
38995 290306 278801 -5530 14493 -5605
39030 290218 278765 -5840 14448 -5543
39069 290149 278744 -6034 14401 -5460
39110 290067 278720 -6013 14460 -5436
39160 289980 278706 -5739 14578 -5412
39214 289944 278720 -5822 14488 -5395
39275 289935 278744 -5934 14392 -5380
39337 289902 278750 -5985 14320 -5339
39401 289849 278742 -5983 14274 -5388
39484 289802 278763 -6006 14241 -5493
39573 289808 278802 -6072 14204 -5602
39664 289822 278834 -6040 14214 -5716
39753 289825 278850 -5839 14273 -5825
39844 289849 278868 -5640 14335 -6009
39916 289802 278851 -5786 14215 -6057
39944 289695 278828 -5946 14154 -6120
39944 289617 278827 -6007 14105 -6233
39922 289576 278841 -5983 14107 -6324
39901 289518 278840 -5975 14131 -6397
39884 289442 278829 -5997 14138 -6467
