2025-07-20 19:16:12    绿光---红外光---红光---X轴---Y轴---Z轴
51590 198738 252399 5455 10573 10276
51603 198777 252422 5417 10572 10277
51614 198798 252451 5430 10572 10279
51621 198814 252455 5450 10618 10315
51629 198820 252461 5455 10651 10353
51636 198820 252449 5462 10623 10364
51645 198840 252454 5451 10597 10369
51656 198841 252457 5412 10587 10377
51663 198850 252456 5363 10589 10406
51672 198856 252465 5316 10574 10409
51684 198868 252482 5274 10537 10364
51682 198874 252504 5230 10529 10336
51674 198858 252505 5187 10555 10375
51653 198828 252485 5237 10680 10438
51636 198804 252467 5277 10707 10410
51617 198786 252455 5293 10701 10403
51609 198788 252455 5300 10678 10377
51603 198794 252457 5311 10665 10334
51602 198801 252458 5322 10664 10311
51599 198798 252450 5334 10670 10302
51606 198807 252462 5328 10679 10306
51615 198828 252477 5320 10686 10303
51625 198838 252489 5315 10712 10319
51628 198845 252485 5315 10742 10341
51628 198835 252483 5337 10755 10324
51624 198830 252462 5361 10756 10305
51623 198828 252464 5375 10756 10304
51629 198842 252471 5396 10730 10289
51632 198853 252481 5416 10686 10258
51638 198860 252490 5411 10667 10246
51716 198960 252515 5519 10606 10248
51717 198951 252523 5496 10600 10225
51707 198934 252503 5485 10625 10254
51690 198904 252483 5480 10722 10326
51672 198875 252467 5500 10699 10327
51658 198872 252467 5508 10654 10318
51652 198884 252463 5482 10614 10299
51645 198886 252465 5460 10596 10303
51643 198887 252459 5477 10590 10294
51639 198878 252457 5504 10583 10258
51644 198902 252461 5526 10579 10249
51655 198924 252481 5539 10587 10256
51664 198948 252503 5527 10644 10291
51668 198955 252505 5522 10686 10332
51675 198944 252490 5536 10679 10311
51675 198939 252484 5550 10674 10274
51680 198945 252495 5546 10662 10274
51682 198953 252499 5518 10641 10281
51686 198963 252503 5504 10634 10271
51686 198959 252499 5498 10636 10274
51690 198969 252486 5483 10632 10282
51696 198990 252504 5472 10631 10281
51707 199004 252508 5460 10654 10286
51714 199011 252512 5452 10681 10307
51721 199010 252509 5461 10675 10316
51730 199014 252498 5473 10647 10317
51738 199020 252500 5477 10628 10321
51753 199048 252516 5476 10631 10294
51764 199072 252533 5470 10629 10272
51774 199086 252536 5465 10635 10283
51782 199079 252523 5465 10638 10282
51789 199071 252532 5464 10623 10260
51789 199063 252535 5461 10642 10271
51775 199043 252529 5459 10682 10313
51757 199016 252513 5478 10688 10320
51735 198990 252490 5497 10675 10302
51717 198976 252464 5489 10667 10307
51708 198970 252468 5487 10646 10311
51706 198980 252478 5501 10609 10291
51700 198983 252474 5515 10584 10263
51702 198976 252471 5520 10583 10253
51697 198968 252461 5528 10593 10255
51696 198969 252444 5538 10595 10260
51701 198974 252453 5423 10652 10337
51710 198982 252454 5359 10625 10364
51711 198979 252459 5331 10594 10363
51713 198981 252447 5346 10582 10345
51716 198984 252448 5404 10585 10325
51718 198996 252460 5464 10586 10315
51716 198990 252442 5508 10584 10319
51721 198996 252441 5529 10596 10330
51729 198999 252448 5550 10613 10318
51733 199018 252452 5543 10708 10339
51738 199018 252454 5533 10726 10352
51744 199022 252455 5498 10724 10347
51747 199018 252433 5447 10714 10321
51756 199021 252431 5424 10721 10282
51766 199048 252445 5439 10723 10253
51784 199088 252470 5465 10713 10249
51798 199102 252489 5502 10709 10271
51801 199099 252486 5528 10705 10272
51811 199092 252469 5516 10694 10233
51815 199088 252465 5493 10693 10239
51822 199095 252481 5486 10693 10284
51821 199077 252478 5474 10695 10319
51799 199039 252458 5448 10709 10320
51775 198999 252426 5442 10712 10298
51757 198983 252413 5470 10704 10286
51748 198989 252426 5514 10690 10277
51743 199006 252437 5554 10667 10270
51734 198997 252440 5576 10651 10257
51730 198995 252417 5554 10675 10260
51727 198984 252402 5504 10722 10306
51730 198998 252419 5489 10734 10311
51736 199026 252437 5499 10700 10278
51743 199036 252450 5511 10668 10280
51749 199038 252445 5513 10667 10295
51747 199033 252440 5491 10678 10310
51747 199024 252433 5480 10672 10305
51746 199026 252431 5479 10665 10290
51755 199034 252442 5480 10653 10281
51758 199045 252440 5494 10646 10263
51760 199046 252438 5491 10661 10270
51764 199043 252426 5485 10661 10286
51767 199047 252433 5488 10644 10287
51770 199058 252434 5477 10647 10304
51774 199053 252422 5452 10643 10310
51776 199043 252407 5437 10637 10288
51783 199044 252399 5452 10637 10261
51795 199057 252417 5486 10630 10246
51811 199093 252425 5524 10633 10249
51823 199109 252439 5553 10642 10245
51831 199105 252441 5561 10743 10295
51829 199083 252401 5570 10744 10259
51835 199076 252397 5547 10724 10235
51846 199088 252408 5540 10713 10255
51850 199086 252429 5559 10738 10292
51836 199056 252421 5559 10749 10310
51817 199015 252393 5535 10738 10298
51792 198993 252367 5518 10717 10285
51763 198989 252344 5426 10754 10313
51763 198980 252346 5393 10756 10320
51763 198990 252347 5403 10749 10335
51766 198994 252351 5428 10726 10333
51771 199009 252362 5444 10729 10327
51775 199018 252365 5473 10729 10332
51777 199015 252363 5489 10719 10325
51778 199014 252352 5498 10703 10317
51781 199011 252340 5486 10679 10305
51788 199023 252334 5462 10647 10286
51797 199026 252338 5469 10626 10283
51809 199040 252349 5490 10651 10287
51818 199059 252363 5521 10670 10281
51822 199067 252361 5530 10663 10270
51836 199083 252370 5505 10669 10273
51842 199082 252372 5503 10661 10257
51852 199085 252365 5513 10646 10235
51863 199097 252367 5531 10652 10232
51874 199109 252376 5548 10685 10255
51877 199115 252400 5565 10722 10290
51869 199090 252396 5598 10742 10287
51855 199057 252385 5559 10768 10281
51830 199024 252360 5538 10725 10278
51810 199005 252332 5523 10667 10257
51797 198992 252333 5517 10626 10234
51786 198991 252325 5522 10607 10225
51782 198999 252324 5533 10607 10243
51782 199013 252332 5535 10618 10253
51786 199027 252338 5527 10639 10259
51791 199038 252339 5517 10654 10296
51798 199043 252362 5456 10721 10352
51802 199047 252355 5453 10713 10354
51801 199044 252350 5454 10688 10345
51804 199050 252362 5456 10669 10329
51810 199046 252363 5454 10652 10313
51804 199051 252363 5456 10643 10303
51807 199056 252371 5454 10647 10305
51811 199061 252367 5463 10663 10305
51813 199070 252382 5491 10673 10279
51822 199092 252398 5483 10691 10275
51829 199092 252397 5441 10714 10307
51830 199089 252380 5430 10715 10313
51834 199099 252382 5450 10710 10277
51843 199105 252384 5467 10719 10261
51854 199132 252402 5475 10730 10271
51866 199153 252422 5486 10729 10266
51880 199173 252431 5507 10719 10253
51884 199186 252423 5516 10699 10233
51891 199181 252405 5510 10693 10226
51899 199180 252415 5509 10728 10279
51911 199199 252435 5516 10787 10341
51920 199209 252454 5535 10811 10334
51913 199183 252450 5552 10781 10301
51890 199140 252422 5549 10745 10294
51867 199108 252392 5537 10714 10274
51850 199096 252382 5520 10674 10234
51839 199098 252382 5498 10647 10212
51832 199099 252387 5473 10653 10221
51823 199090 252367 5451 10663 10236
51817 199079 252357 5459 10658 10229
51817 199077 252355 5468 10703 10254
51828 199109 252381 5485 10742 10304
51840 199140 252403 5513 10732 10323
51843 199142 252405 5490 10730 10335
51840 199125 252395 5442 10720 10346
51836 199102 252362 5391 10704 10343
51834 199090 252358 5360 10680 10334
51836 199105 252364 5362 10673 10339
51841 199124 252392 5391 10672 10343
51845 199137 252390 5440 10670 10341
51845 199127 252383 5468 10703 10254
51846 199123 252368 5485 10742 10304
51852 199137 252375 5513 10732 10323
51857 199144 252381 5490 10730 10335
51863 199157 252384 5442 10720 10346
51869 199172 252388 5391 10704 10343
51877 199177 252387 5360 10680 10334
51885 199189 252391 5362 10673 10339
51900 199210 252408 5391 10672 10343
51911 199239 252425 5440 10670 10341
51919 199248 252429 5409 10685 10337
51927 199245 252419 5386 10678 10344
51931 199228 252406 5391 10666 10331
51939 199237 252422 5430 10674 10314
51942 199241 252437 5451 10678 10305
51933 199230 252444 5448 10678 10295
51912 199189 252423 5444 10681 10282
51888 199152 252406 5441 10685 10284
51869 199136 252390 5456 10697 10309
51857 199140 252390 5426 10732 10307
51847 199140 252380 5424 10712 10286
51836 199125 252381 5425 10713 10322
51827 199115 252353 5433 10725 10354
51820 199102 252338 5438 10737 10349
51822 199111 252348 5438 10732 10331
51828 199127 252357 5451 10713 10299
51830 199133 252353 5474 10688 10272
51827 199110 252337 5489 10669 10267
51817 199077 252298 5473 10671 10273
51809 199053 252275 5426 10709 10306
51811 199053 252273 5384 10717 10332
51810 199054 252280 5358 10690 10315
51810 199074 252292 5340 10700 10317
51811 199073 252291 5365 10716 10331
51816 199083 252295 5408 10724 10328
51821 199089 252304 5419 10730 10333
51826 199097 252302 5397 10722 10332
51832 199105 252313 5371 10701 10316
51831 199106 252296 5357 10671 10298
51834 199105 252293 5366 10694 10342
51843 199122 252299 5401 10688 10330
51852 199137 252324 5422 10692 10328
51862 199158 252335 5421 10690 10335
51871 199181 252343 5418 10680 10323
51881 199184 252336 5413 10663 10321
51888 199184 252348 5400 10658 10332
51896 199203 252354 5397 10665 10312
51906 199207 252382 5405 10657 10296
51896 199194 252374 5389 10675 10309
51874 199156 252364 5365 10707 10325
51847 199122 252339 5384 10709 10331
51824 199102 252321 5416 10701 10304
51806 199092 252322 5426 10683 10274
51790 199088 252327 5433 10676 10285
51776 199079 252310 5443 10694 10319
51763 199058 252297 5458 10712 10325
51761 199074 252287 5465 10729 10296
51760 199083 252306 5452 10729 10288
51761 199087 252312 5396 10749 10321
51763 199096 252311 5411 10718 10302
51764 199089 252317 5434 10661 10268
51761 199089 252305 5430 10644 10257
51757 199075 252312 5416 10658 10272
51753 199080 252303 5405 10669 10267
51752 199082 252310 5399 10682 10264
51747 199075 252294 5405 10694 10286
51748 199077 252294 5413 10710 10298
51742 199071 252278 5404 10742 10306
51743 199074 252278 5383 10776 10317
51744 199071 252271 5394 10758 10306
51746 199071 252262 5411 10710 10290
51752 199074 252262 5418 10693 10291
51755 199076 252255 5424 10690 10293
51766 199084 252265 5423 10684 10301
51769 199098 252265 5424 10681 10305
51774 199104 252261 5416 10684 10312
51779 199112 252260 5413 10685 10319
51789 199116 252259 5417 10684 10302
51798 199128 252275 5393 10716 10302
51808 199145 252279 5379 10736 10311
51818 199145 252287 5407 10724 10298
51819 199147 252294 5431 10722 10288
51811 199121 252287 5437 10712 10266
51796 199082 252272 5436 10692 10240
51772 199052 252258 5435 10688 10257
51745 199028 252234 5447 10713 10277
51723 199005 252227 5467 10730 10268
51701 198997 252213 5478 10735 10256
51687 198991 252204 5435 10805 10347
51673 198989 252206 5429 10793 10339
51671 198993 252200 5428 10767 10309
51665 199001 252205 5424 10736 10300
51666 199000 252208 5412 10699 10296
51667 198999 252207 5423 10671 10281
51665 198997 252201 5439 10660 10250
51665 198999 252200 5431 10650 10242
51663 198997 252208 5421 10651 10266
51656 198991 252205 5375 10708 10291
51652 198986 252196 5377 10707 10308
51651 198983 252198 5396 10702 10327
51648 198991 252203 5398 10714 10322
51647 199001 252210 5410 10720 10309
51651 199009 252214 5430 10707 10305
51655 199023 252219 5426 10688 10300
51662 199038 252222 5416 10678 10295
51668 199058 252241 5420 10669 10293
51678 199087 252260 5418 10679 10309
51683 199106 252275 5417 10701 10317
51693 199124 252289 5433 10682 10309
51698 199136 252299 5449 10660 10315
51712 199157 252309 5441 10650 10322
51717 199179 252325 5443 10647 10316
51728 199191 252335 5464 10656 10295
51736 199202 252346 5469 10673 10273
51751 199211 252356 5462 10688 10260
51754 199222 252378 5446 10694 10257
51746 199216 252384 5437 10701 10282
51724 199168 252363 5429 10731 10307
51697 199135 252339 5419 10739 10289
51671 199097 252317 5417 10722 10263
51651 199087 252309 5413 10724 10302
51641 199095 252308 5423 10735 10344
51628 199095 252307 5456 10747 10327
51621 199090 252311 5450 10747 10302
51619 199094 252300 5405 10733 10299
51621 199108 252306 5365 10707 10303
51625 199116 252330 5345 10684 10299
51629 199130 252342 5332 10697 10335
51628 199130 252340 5354 10685 10335
51627 199116 252329 5387 10686 10301
51623 199100 252311 5412 10694 10286
51618 199099 252316 5431 10706 10321
51622 199116 252328 5442 10714 10326
51622 199132 252342 5435 10725 10320
51622 199142 252352 5420 10712 10332
51619 199134 252337 5394 10681 10335
51616 199129 252322 5362 10705 10347
51617 199120 252319 5382 10697 10344
51620 199129 252320 5402 10702 10340
51629 199138 252328 5423 10709 10341
51637 199150 252329 5445 10698 10332
51641 199157 252340 5439 10683 10313
51652 199173 252353 5420 10667 10314
51663 199198 252374 5399 10645 10319
51672 199218 252400 5393 10640 10322
51685 199242 252428 5406 10676 10336
51687 199233 252412 5421 10710 10333
51697 199256 252435 5446 10711 10327
51694 199256 252460 5457 10700 10332
51691 199261 252483 5373 10711 10379
51663 199228 252452 5393 10690 10349
51635 199196 252420 5417 10674 10306
51623 199213 252448 5402 10699 10331
51616 199234 252459 5476 10710 10346
51594 199205 252431 5508 10721 10353
51577 199196 252406 5507 10730 10335
51578 199227 252437 5507 10761 10333
51582 199267 252466 5605 10732 10324
51585 199282 252476 5563 10675 10360
51591 199289 252492 5305 10705 10377
51591 199283 252485 5263 10770 10342
51584 199253 252466 5461 10776 10354
51592 199290 252498 5619 10697 10339
51605 199357 252558 5652 10597 10297
51612 199395 252587 5528 10520 10355
51608 199391 252585 5290 10464 10457
51597 199361 252562 5339 10482 10398
51587 199334 252521 5429 10498 10375
51587 199329 252510 5520 10515 10422
51597 199367 252548 5479 10550 10481
51611 199404 252580 5361 10571 10475
51608 199388 252551 5271 10578 10469
51603 199357 252514 5265 10579 10487
51606 199359 252507 5335 10571 10486
51622 199389 252532 5434 10590 10469
51635 199417 252564 5495 10635 10447
51650 199445 252574 5497 10636 10426
51648 199421 252547 5492 10597 10408
51646 199396 252509 5433 10578 10413
51648 199382 252505 5341 10579 10429
51650 199387 252519 5280 10586 10439
51637 199370 252519 5284 10586 10456
51621 199344 252506 5301 10602 10463
51592 199319 252489 5291 10612 10478
51570 199286 252468 5284 10603 10485
51548 199272 252454 5291 10632 10465
51535 199253 252447 5323 10651 10441
51523 199250 252446 5369 10646 10431
51521 199260 252448 5394 10644 10417
51521 199267 252452 5399 10625 10381
51536 199321 252496 5369 10670 10388
51536 199323 252483 5371 10648 10378
51542 199322 252483 5371 10648 10374
51546 199319 252483 5383 10653 10377
51553 199322 252489 5388 10666 10390
51558 199342 252493 5403 10679 10394
51571 199367 252519 5423 10667 10392
51587 199409 252553 5393 10638 10388
51594 199410 252572 5387 10627 10364
51592 199388 252550 5384 10631 10340
51598 199380 252558 5403 10625 10336
51594 199377 252588 5454 10615 10360
51582 199361 252610 5450 10617 10358
51552 199326 252590 5420 10620 10347
51521 199270 252548 5395 10649 10381
51485 199216 252502 5406 10691 10439
51464 199184 252473 5487 10678 10424
51452 199168 252459 5515 10648 10389
51441 199176 252465 5432 10624 10387
51430 199170 252458 5353 10583 10379
51439 199170 252488 5469 10652 10381
51455 199222 252567 5472 10627 10386
51479 199294 252695 5490 10604 10364
51485 199321 252756 5520 10610 10378
51480 199313 252754 5493 10604 10452
51469 199282 252728 5532 10611 10497
51471 199295 252742 5615 10561 10510
51474 199285 252727 5606 10530 10483
51476 199301 252719 5554 10502 10433
51478 199294 252701 5548 10444 10418
51463 199222 252632 5550 10389 10421
51437 199163 252529 5541 10354 10384
51417 199148 252479 5531 10335 10409
51399 199157 252473 5442 10342 10531
51377 199177 252466 5286 10382 10616
51353 199153 252434 5303 10455 10566
51329 199123 252391 5523 10511 10481
51300 199071 252340 5728 10535 10460
51292 199059 252325 5791 10541 10481
51295 199106 252365 5707 10530 10484
51305 199140 252392 5615 10524 10442
51302 199127 252369 5569 10523 10417
51303 199106 252347 5482 10538 10422
51306 199115 252348 5417 10548 10443
51313 199139 252372 5405 10560 10469
51317 199138 252375 5397 10588 10479
51319 199136 252380 5404 10588 10486
51313 199118 252365 5433 10547 10479
51310 199106 252336 5456 10526 10457
51307 199085 252325 5450 10537 10437
51316 199114 252360 5430 10550 10458
51325 199143 252375 5453 10549 10482
51328 199145 252372 5485 10537 10453
51328 199120 252355 5465 10541 10422
51329 199109 252332 5427 10568 10437
51337 199113 252334 5394 10624 10480
51356 199158 252371 5396 10639 10485
51374 199200 252404 5399 10604 10460
51383 199203 252406 5381 10587 10433
51386 199191 252397 5377 10581 10413
51391 199189 252403 5396 10601 10430
51386 199177 252409 5452 10613 10423
51373 199157 252418 5469 10594 10398
51349 199132 252403 5445 10583 10396
51323 199103 252391 5408 10592 10419
51305 199083 252377 5326 10693 10458
51297 199090 252400 5300 10714 10449
51294 199102 252423 5309 10727 10442
51292 199115 252435 5329 10712 10422
51290 199115 252442 5306 10671 10396
51291 199119 252462 5304 10625 10345
51293 199109 252442 5300 10621 10328
51295 199098 252441 5275 10651 10367
51297 199102 252439 5285 10678 10404
51304 199114 252454 5292 10740 10455
51303 199117 252473 5260 10723 10452
51301 199115 252458 5215 10697 10457
51301 199110 252455 5197 10665 10473
51303 199121 252464 5216 10644 10472
51306 199129 252472 5223 10627 10439
51313 199152 252495 5195 10629 10422
51322 199178 252524 5193 10646 10443
51333 199189 252539 5197 10653 10454
51336 199191 252530 5200 10671 10462
51346 199205 252554 5215 10702 10483
51356 199224 252570 5220 10690 10490
51364 199229 252570 5198 10640 10482
51371 199223 252572 5190 10607 10495
51390 199238 252594 5224 10590 10489
51396 199239 252615 5238 10559 10446
51396 199236 252613 5240 10527 10423
51381 199203 252595 5253 10521 10455
51356 199155 252547 5281 10541 10504
51339 199134 252539 5346 10566 10500
51336 199150 252564 5387 10596 10470
51327 199150 252558 5398 10587 10418
51320 199133 252547 5422 10547 10426
51314 199108 252520 5465 10535 10479
51315 199109 252517 5466 10544 10477
51329 199136 252548 5396 10554 10460
51346 199190 252620 5345 10556 10456
51365 199234 252703 5342 10547 10445
51374 199249 252792 5349 10533 10429
51355 199180 252778 5328 10537 10443
51314 199056 252665 5410 10634 10625
51277 198964 252579 5379 10638 10739
51272 198971 252590 5207 10604 10643
51279 199018 252620 5133 10537 10472
51277 199013 252613 5255 10474 10457
51252 198943 252513 5387 10429 10532
51229 198854 252380 5383 10405 10569
51218 198831 252319 5322 10396 10578
51238 198900 252373 5322 10377 10532
51274 199022 252460 5358 10403 10463
51295 199096 252500 5325 10435 10464
51301 199100 252492 5343 10498 10503
51307 199113 252488 5421 10546 10512
51321 199135 252506 5457 10575 10475
51341 199208 252588 5428 10624 10422
51347 199259 252654 5372 10689 10428
51339 199264 252672 5340 10740 10485
51311 199217 252624 5384 10761 10477
51289 199169 252580 5447 10768 10448
51279 199165 252576 5442 10752 10452
51282 199196 252618 5380 10689 10432
51290 199227 252650 5322 10611 10389
51289 199230 252638 5278 10550 10362
51288 199219 252628 5244 10515 10388
51294 199232 252633 5203 10519 10413
51312 199262 252668 5186 10541 10397
51324 199287 252709 5230 10557 10408
51328 199302 252716 5278 10589 10433
51329 199281 252702 5285 10639 10444
51324 199260 252681 5257 10708 10454
51325 199246 252669 5227 10738 10442
51329 199255 252669 5210 10711 10434
51331 199247 252658 5204 10683 10407
51336 199241 252654 5198 10668 10368
51341 199246 252647 5186 10664 10367
51346 199237 252643 5202 10661 10370
51353 199246 252636 5235 10652 10372
51366 199257 252638 5259 10644 10385
51374 199257 252645 5289 10637 10398
51382 199240 252626 5297 10665 10420
51388 199233 252623 5312 10679 10422
51401 199250 252654 5324 10641 10376
51412 199273 252688 5337 10620 10311
51406 199271 252702 5391 10628 10282
51387 199242 252688 5455 10652 10311
51363 199189 252648 5497 10677 10357
51341 199146 252611 5474 10706 10382
51328 199134 252598 5432 10736 10378
51325 199144 252616 5391 10738 10354
51325 199145 252619 5272 10723 10357
51319 199137 252603 5246 10676 10320
51316 199127 252597 5239 10652 10290
51328 199143 252609 5246 10654 10296
51339 199158 252628 5234 10651 10318
51347 199167 252642 5231 10659 10359
51347 199157 252631 5254 10670 10390
51431 199190 252687 5303 10613 10370
51450 199190 252703 5309 10607 10374
51465 199202 252699 5321 10606 10400
51483 199201 252704 5323 10620 10415
51487 199178 252719 5341 10607 10413
51484 199154 252690 5370 10586 10432
51470 199112 252672 5389 10594 10466
51464 199094 252638 5402 10604 10482
51457 199064 252621 5411 10591 10465
51459 199064 252625 5411 10581 10452
51460 199055 252618 5427 10562 10444
51461 199044 252612 5435 10542 10456
51468 199044 252609 5419 10538 10448
51478 199067 252629 5390 10549 10411
51492 199087 252664 5371 10549 10405
51503 199108 252696 5388 10531 10411
51516 199130 252721 5389 10535 10445
51524 199150 252779 5386 10557 10485
51547 199214 252893 5447 10572 10485
51570 199312 253046 5530 10548 10478
51492 199328 252842 5284 10457 10514
51513 199377 252885 5369 10546 10504
51504 199315 252825 5445 10658 10460
51476 199220 252743 5437 10729 10456
51460 199194 252719 5335 10752 10468
51459 199214 252754 5259 10780 10484
51455 199241 252777 5298 10772 10471
51440 199201 252749 5361 10706 10432
51419 199146 252680 5407 10625 10383
51406 199105 252643 5445 10557 10347
51483 199204 252742 5539 10681 10276
51492 199226 252756 5539 10711 10250
51509 199261 252800 5525 10727 10233
51522 199285 252815 5490 10812 10242
51529 199271 252809 5487 10891 10233
51531 199245 252770 5517 10894 10209
51541 199257 252774 5499 10887 10171
51564 199303 252821 5444 10888 10136
51583 199342 252857 5405 10910 10132
51592 199350 252866 5394 10966 10149
51589 199297 252824 5405 10995 10164
51579 199247 252792 5396 10978 10169
51575 199236 252785 5308 10962 10187
51568 199243 252812 5135 10956 10259
51561 199252 252833 5133 10921 10251
51549 199234 252817 5158 10897 10230
51535 199217 252792 5201 10904 10201
51530 199206 252785 5265 10906 10175
51536 199223 252793 5319 10872 10143
51545 199248 252818 5347 10861 10128
51552 199255 252834 5370 10873 10121
51554 199233 252818 5374 10919 10126
51557 199211 252800 5240 10975 10227
51559 199209 252796 5111 10957 10265
51572 199243 252836 5049 10926 10291
51580 199266 252858 5113 10915 10318
51586 199263 252846 5216 10904 10316
51581 199230 252819 5273 10848 10307
51578 199209 252805 5295 10745 10340
51588 199220 252810 5314 10651 10377
51597 199242 252827 5392 10617 10363
51608 199245 252833 5473 10634 10335
51610 199230 252804 5448 10633 10340
51611 199202 252778 5377 10590 10369
51614 199193 252762 5348 10550 10400
51625 199206 252773 5351 10520 10386
51644 199226 252810 5350 10499 10342
51659 199248 252827 5320 10520 10332
51665 199249 252848 5303 10568 10373
51657 199219 252847 5324 10619 10419
51649 199202 252854 5356 10665 10428
51633 199188 252843 5394 10699 10424
51620 199155 252827 5412 10734 10415
51605 199135 252811 5420 10726 10393
51598 199120 252808 5425 10675 10361
51593 199104 252795 5395 10621 10351
51592 199090 252783 5337 10565 10386
51599 199071 252766 5290 10514 10417
51611 199065 252780 5225 10473 10414
51624 199072 252782 5142 10462 10443
51634 199067 252786 5085 10471 10528
51643 199060 252784 5042 10486 10606
51647 199032 252748 5056 10535 10628
51652 199018 252732 5110 10555 10603
51660 199014 252722 5150 10534 10568
51671 199025 252722 5227 10519 10542
51676 199012 252715 5313 10505 10522
51683 198999 252696 5363 10493 10507
51686 198990 252696 5364 10486 10503
51698 199000 252728 5347 10468 10537
51727 199061 252825 5332 10425 10562
51765 199176 252994 5344 10388 10577
51782 199221 253078 5409 10430 10803
51758 199165 253022 5379 10432 10769
51728 199079 252915 5359 10380 10632
51711 199040 252851 5442 10318 10543
51712 199071 252865 5527 10289 10556
51713 199104 252895 5562 10298 10640
51687 199061 252833 5528 10336 10711
51643 198963 252703 5448 10371 10698
51599 198890 252592 5396 10390 10638
51592 198907 252600 5479 10489 10590
51592 198961 252620 5545 10521 10508
51594 198999 252650 5583 10561 10413
51597 199009 252655 5594 10612 10363
51591 198990 252625 5578 10654 10319
51586 198963 252601 5539 10698 10292
51598 198993 252621 5521 10745 10303
51625 199051 252677 5513 10795 10321
51637 199063 252701 5499 10842 10296
51635 199041 252682 5472 10879 10274
51630 199016 252654 5440 10895 10282
51631 199006 252647 5413 10867 10294
51633 199008 252646 5386 10802 10275
51646 199032 252667 5384 10743 10230
51651 199037 252674 5425 10705 10216
51659 199028 252651 5474 10688 10237
51658 199009 252642 5507 10668 10235
51667 199022 252639 5513 10651 10228
51679 199039 252656 5504 10630 10223
51691 199069 252674 5512 10635 10259
51707 199095 252696 5511 10690 10327
51715 199092 252680 5514 10696 10320
51722 199073 252674 5533 10668 10276
51727 199064 252666 5532 10673 10292
51727 199063 252678 5521 10694 10341
51721 199038 252675 5514 10726 10342
51712 199030 252685 5516 10740 10333
51702 199017 252672 5525 10735 10357
51683 198993 252652 5516 10721 10370
51676 198977 252648 5495 10679 10355
51671 198970 252635 5455 10671 10358
51660 198950 252618 5467 10620 10348
51657 198945 252607 5462 10588 10326
51654 198924 252586 5412 10580 10345
51660 198921 252578 5392 10607 10402
51664 198926 252567 5422 10659 10421
51662 198907 252539 5442 10674 10399
51658 198875 252494 5445 10662 10390
51649 198823 252436 5454 10663 10413
51795 199052 252745 5438 10542 10395
51810 199089 252773 5423 10576 10405
51822 199110 252792 5381 10592 10433
51819 199120 252816 5258 10604 10519
51819 199129 252861 5324 10607 10518
51805 199090 252851 5498 10578 10444
51787 199052 252841 5431 10573 10476
51769 198998 252790 5322 10579 10513
51766 198984 252784 5298 10555 10510
51761 198973 252773 5338 10534 10503
51730 198701 252474 5282 10449 10593
51728 198668 252437 5340 10507 10570
51725 198639 252422 5356 10489 10587
51726 198620 252438 5434 10496 10606
51733 198634 252496 5527 10497 10643
51732 198622 252521 5561 10491 10584
51714 198569 252468 5545 10465 10460
51686 198507 252391 5534 10425 10387
51672 198491 252348 5533 10387 10429
51682 198556 252400 5451 10374 10563
51689 198591 252419 5285 10456 10548
51677 198578 252389 5426 10510 10491
51657 198544 252341 5526 10539 10503
51639 198541 252320 5519 10528 10487
51627 198560 252328 5500 10514 10433
51620 198604 252381 5543 10528 10416
51615 198645 252420 5634 10540 10415
51599 198628 252395 5691 10550 10397
51577 198580 252361 5689 10559 10379
51567 198583 252356 5642 10564 10379
51567 198584 252348 5618 10578 10397
51567 198599 252358 5649 10563 10417
51574 198612 252376 5668 10527 10422
51583 198633 252400 5668 10506 10422
51582 198629 252391 5652 10493 10416
51577 198614 252397 5626 10469 10403
51579 198622 252400 5588 10442 10394
51578 198617 252397 5558 10439 10391
51582 198636 252407 5562 10449 10386
51587 198651 252418 5561 10478 10399
51592 198667 252446 5520 10539 10441
51600 198683 252444 5496 10557 10448
51602 198691 252451 5512 10540 10423
51605 198693 252463 5534 10529 10396
51609 198703 252462 5545 10525 10395
51615 198705 252462 5567 10522 10419
51627 198733 252487 5609 10510 10413
51641 198743 252491 5619 10502 10372
51642 198733 252475 5596 10511 10359
51641 198722 252465 5584 10530 10396
51647 198720 252472 5520 10539 10441
51638 198713 252489 5496 10557 10448
51625 198688 252490 5512 10540 10423
51603 198664 252478 5534 10529 10396
51579 198627 252453 5545 10525 10395
51553 198595 252421 5567 10522 10419
51540 198586 252417 5609 10510 10413
51533 198597 252423 5619 10502 10372
51533 198616 252443 5596 10511 10359
51529 198612 252450 5584 10530 10396
