2025-10-08 21:15:48    绿光---红外光---红光---X轴---Y轴---Z轴
226 610 479 -12240 4187 -10311
228 613 504 -12233 4187 -10297
226 616 516 -12241 4190 -10282
228 616 519 -12240 4190 -10278
228 615 521 -12238 4191 -10271
227 617 507 -12244 4192 -10272
227 608 466 -12233 4190 -10267
227 603 431 -12227 4187 -10270
229 599 413 -12236 4186 -10294
227 598 406 -12246 4187 -10290
227 597 405 -12253 4184 -10276
226 597 402 -12250 4181 -10274
227 598 411 -12248 4182 -10281
227 601 423 -12244 4183 -10292
227 601 432 -12239 4188 -10288
226 602 439 -12242 4193 -10274
227 604 442 -12233 4195 -10255
227 603 442 -12223 4196 -10247
227 604 441 -12228 4197 -10252
227 605 442 -12233 4197 -10264
226 605 444 -12229 4198 -10253
226 604 443 -12231 4202 -10247
226 605 440 -12236 4204 -10273
226 605 438 -12230 4196 -10297
228 604 438 -12227 4187 -10299
227 606 438 -12230 4188 -10279
226 605 439 -12222 4201 -10247
227 605 439 -12224 4200 -10258
226 605 436 -12231 4194 -10269
228 606 443 -12244 4192 -10271
228 603 449 -12240 4193 -10274
227 605 454 -12231 4194 -10281
227 605 454 -12234 4193 -10284
227 605 456 -12239 4192 -10284
226 605 456 -12237 4195 -10284
227 605 450 -12233 4202 -10282
228 605 442 -12226 4190 -10278
223 604 439 -12231 4178 -10289
218 605 437 -12233 4178 -10304
213 604 437 -12225 4185 -10301
254 606 444 -12246 4197 -10281
235 605 444 -12248 4196 -10275
220 605 443 -12246 4194 -10281
211 605 444 -12241 4192 -10277
207 605 445 -12239 4193 -10271
208 605 443 -12239 4191 -10292
209 605 443 -12221 4196 -10272
216 606 444 -12239 4196 -10264
220 605 443 -12242 4194 -10254
223 604 445 -12246 4193 -10255
225 606 444 -12245 4193 -10259
227 604 444 -12233 4190 -10277
225 603 443 -12222 4186 -10297
226 603 443 -12228 4197 -10291
226 603 444 -12239 4204 -10272
226 603 443 -12230 4195 -10263
228 604 445 -12223 4191 -10268
218 599 443 -12228 4189 -10275
205 592 443 -12239 4183 -10284
197 589 443 -12247 4187 -10286
192 587 444 -12240 4193 -10284
191 588 442 -12238 4194 -10289
191 587 444 -12243 4190 -10294
189 583 442 -12247 4190 -10289
200 590 443 -12242 4193 -10281
253 617 443 -12231 4190 -10277
279 630 443 -12224 4191 -10265
295 638 442 -12227 4192 -10268
300 640 444 -12230 4195 -10281
304 642 441 -12232 4198 -10286
303 641 441 -12241 4195 -10284
306 641 443 -12247 4188 -10280
302 639 444 -12244 4181 -10278
254 618 443 -12240 4185 -10284
215 598 443 -12236 4192 -10293
201 591 445 -12236 4190 -10289
194 588 443 -12232 4186 -10281
190 585 443 -12229 4184 -10281
187 585 444 -12237 4193 -10280
190 586 444 -12239 4199 -10271
205 592 443 -12234 4194 -10263
210 596 444 -12234 4185 -10264
217 599 442 -12241 4175 -10285
223 602 443 -12247 4169 -10300
226 603 443 -12250 4174 -10300
227 604 442 -12247 4179 -10297
227 604 442 -12221 4182 -10274
226 602 441 -12230 4189 -10277
225 603 440 -12228 4191 -10271
225 603 439 -12233 4193 -10269
226 602 443 -12244 4198 -10280
228 604 443 -12250 4205 -10283
225 594 437 -12257 4205 -10276
224 581 431 -12255 4201 -10273
221 574 427 -12252 4198 -10278
222 571 426 -12227 4195 -10249
224 568 426 -12234 4190 -10254
222 566 424 -12238 4194 -10265
220 570 425 -12247 4192 -10273
226 607 444 -12255 4189 -10283
231 638 456 -12252 4187 -10287
236 660 470 -12250 4187 -10282
238 675 477 -12257 4186 -10276
239 680 480 -12258 4193 -10281
238 680 481 -12220 4197 -10266
240 682 483 -12213 4190 -10271
240 674 478 -12229 4187 -10269
234 643 464 -12246 4189 -10275
229 618 451 -12255 4191 -10276
227 600 441 -12260 4192 -10267
222 581 432 -12252 4188 -10266
222 573 427 -12246 4193 -10279
219 566 424 -12246 4196 -10289
221 566 423 -12237 4200 -10280
220 565 424 -12212 4198 -10269
222 579 430 -12218 4190 -10273
224 591 436 -12240 4197 -10283
224 598 439 -12243 4204 -10287
226 600 442 -12248 4199 -10290
226 602 441 -12248 4191 -10301
228 601 411 -12228 4201 -10269
229 600 408 -12238 4197 -10259
228 603 442 -12246 4190 -10259
229 611 485 -12232 4188 -10264
228 617 512 -12229 4191 -10270
229 620 529 -12235 4189 -10267
229 621 535 -12232 4188 -10274
230 623 534 -12231 4184 -10282
231 617 488 -12232 4185 -10283
231 612 451 -12235 4189 -10283
233 609 438 -12243 4190 -10278
232 607 447 -12247 4193 -10280
237 608 476 -12236 4199 -10281
245 611 548 -12225 4192 -10274
257 621 635 -12227 4189 -10282
267 638 705 -12239 4183 -10285
275 664 757 -12256 4186 -10282
278 693 780 -12265 4183 -10277
279 706 780 -12265 4174 -10268
276 698 762 -12264 4177 -10270
274 676 738 -12262 4182 -10274
272 661 738 -12259 4199 -10266
281 669 804 -12251 4211 -10251
306 701 971 -12252 4200 -10258
354 790 1315 -12258 4193 -10281
473 1042 2161 -12255 4191 -10287
841 1871 4754 -12260 4187 -10295
2622 6395 16887 -12260 4190 -10297
17155 64230 100044 -12249 4196 -10295
34421 143903 197969 -12093 4254 -10205
31139 128840 180449 -12128 4009 -10333
27856 110091 159429 -12208 4108 -10371
21910 75571 118816 -11785 4448 -10629
11714 32782 61889 -11004 3564 -11673
5702 13920 31349 -10938 3608 -11723
2511 5609 14090 -12144 4375 -10168
1127 2290 6128 -12342 4274 -9948
676 1373 3413 -11797 4260 -10643
482 996 2202 -12063 4200 -10359
396 857 1677 -12120 4163 -10323
365 819 1473 -12085 4163 -10391
352 809 1403 -12166 4167 -10342
368 850 1513 -12128 4176 -10370
423 919 1761 -12138 4183 -10370
545 1163 2474 -12149 4181 -10372
963 2207 5236 -12156 4184 -10370
4254 12407 26550 -12156 4177 -10378
27554 115645 161410 -11978 4606 -9851
29415 121015 171435 -11823 4040 -10380
24125 91332 134485 -12295 3495 -10738
10143 28815 51482 -10950 4567 -11055
1885 3692 10070 -11324 3694 -11393
772 1355 4083 -12682 3910 -9640
552 1035 2728 -12385 3996 -10000
438 869 1987 -11699 4186 -10804
377 781 1571 -11936 4187 -10480
351 729 1359 -12168 4164 -10214
325 682 1145 -12031 4169 -10430
302 651 976 -12095 4163 -10399
297 644 942 -12137 4173 -10358
299 648 960 -12098 4179 -10390
315 665 1078 -12130 4182 -10353
349 705 1310 -12115 4179 -10388
430 822 1881 -12121 4176 -10404
716 1324 4001 -12133 4177 -10397
3201 7739 20522 -12133 4172 -10399
19008 68277 106037 -12258 4122 -10057
17832 59813 94046 -11636 3943 -10642
13961 41511 72103 -11307 3471 -11185
3663 7369 18244 -10249 3431 -12277
555 860 2861 -10474 4064 -11710
362 695 1666 -12682 3998 -9281
361 663 1299 -12551 3915 -9655
364 671 1112 -11688 4108 -10779
368 682 1006 -11887 3981 -10622
375 674 972 -12192 4036 -10247
366 669 893 -12023 4091 -10482
364 668 871 -12101 4109 -10421
351 662 892 -12126 4126 -10394
316 655 991 -12095 4128 -10426
312 671 1158 -12130 4135 -10394
332 710 1400 -12130 4144 -10387
396 814 1898 -12143 4150 -10404
608 1171 3438 -12148 4146 -10414
2203 4882 14071 -12094 5599 -9363
15600 53228 85561 -11508 4603 -10402
15720 50073 80876 -11682 2742 -11522
10942 30588 55162 -11082 3284 -11774
2715 4961 13585 -10751 3535 -11798
772 1106 3984 -12394 3807 -9860
576 949 2765 -11689 4027 -10867
440 792 1856 -12000 4098 -10480
356 700 1327 -12084 4101 -10379
326 660 1129 -12018 4105 -10523
308 634 1008 -12118 4103 -10427
298 618 956 -12075 4106 -10465
296 611 942 -12088 4109 -10451
295 610 921 -12087 4116 -10460
295 609 927 -12090 4120 -10469
300 612 953 -12109 4138 -10451
298 613 958 -12103 4138 -10452
297 623 960 -12106 4129 -10439
305 668 975 -12109 4133 -10446
309 693 987 -12118 4139 -10437
311 709 991 -12123 4138 -10432
313 715 996 -12129 4131 -10440
314 721 1016 -12127 4124 -10446
318 724 1032 -12126 4121 -10445
313 695 1002 -12125 4122 -10445
302 653 962 -12127 4125 -10442
294 628 924 -12120 4118 -10436
285 602 871 -12110 4110 -10442
276 589 819 -12113 4119 -10446
268 581 759 -12131 4128 -10435
258 575 701 -12134 4137 -10438
252 580 651 -12133 4144 -10455
247 586 597 -12135 4136 -10454
241 592 564 -12128 4130 -10448
241 596 556 -12127 4128 -10449
242 599 566 -12128 4126 -10436
247 602 597 -12120 4118 -10436
257 612 664 -12110 4110 -10442
283 646 853 -12113 4119 -10446
401 851 1735 -12131 4128 -10435
1807 4621 12144 -12134 4137 -10438
34509 111975 157535 -12133 4144 -10455
41774 164949 233011 -12135 4136 -10454
22718 72373 117589 -12128 4130 -10448
5381 12080 27593 -12127 4128 -10449
1393 2420 7621 -12128 4126 -10436
698 1167 3527 -12118 4141 -10416
500 880 2262 -12113 4142 -10419
401 758 1672 -12117 4141 -10429
344 687 1309 -12125 4143 -10432
314 658 1122 -11629 4052 -10910
298 646 1017 -11638 4072 -10703
289 640 955 -11843 4154 -10433
283 634 893 -11857 4144 -10482
279 624 827 -11980 4160 -10383
279 619 803 -11937 4154 -10500
1470 2680 7990 -12052 4149 -10456
655 1097 3235 -12059 4156 -10460
446 797 1932 -12069 4156 -10463
368 700 1411 -12746 3597 -9892
332 662 1176 -12192 3725 -10438
315 645 1062 -11461 4613 -10871
305 633 986 -11086 4567 -11176
298 627 941 -11231 4301 -11086
293 624 905 -11949 4230 -10434
292 625 908 -11842 4182 -10643
298 630 953 -11965 4184 -10512
310 641 1028 -11972 4173 -10532
318 653 1100 -12020 4166 -10497
334 670 1207 -12026 4162 -10509
359 701 1387 -12043 4163 -10499
415 769 1773 -12031 4161 -10505
567 987 2833 -12028 4163 -10496
1042 1867 6019 -12030 4165 -10499
3056 6733 18135 -12037 4154 -10508
8956 24300 48487 -12028 4165 -10473
9430 24856 47982 -12043 4169 -10471
4621 9942 24130 -12042 4165 -10491
2311 4253 12616 -12043 4162 -10496
1308 2249 7129 -12048 4165 -10492
767 1273 3838 -12046 4165 -10493
519 865 2224 -12047 4165 -10487
431 736 1594 -12064 4172 -10481
386 679 1266 -12048 4141 -10514
352 646 1044 -11882 4181 -10637
324 638 955 -11880 4212 -10586
291 630 895 -11996 4170 -10489
270 623 842 -11984 4162 -10528
262 623 816 -12032 4159 -10493
261 623 813 -12051 4164 -10482
268 625 827 -12058 4165 -10481
283 635 885 -12066 4170 -10480
306 654 1012 -12057 4168 -10487
351 704 1325 -12051 4161 -10472
518 943 2522 -12040 4151 -10472
1890 4033 11674 -12044 4153 -10479
18059 61043 98688 -12059 4161 -10477
20956 69105 104901 -12058 4164 -10481
15376 45624 75985 -12057 4159 -10477
4998 10767 24142 -12047 4154 -10483
1100 1646 5849 -12044 4153 -10491
502 827 2456 -12048 4160 -10479
330 654 1397 -12050 4163 -10478
276 611 1050 -12252 3764 -10352
270 604 911 -11834 3863 -10634
305 623 853 -11224 4372 -11010
204 572 557 -12032 4167 -10526
206 575 554 -12043 4159 -10514
223 585 572 -12043 4158 -10511
240 595 618 -12039 4160 -10513
265 621 766 -12036 4157 -10511
379 771 1577 -12041 4156 -10505
2330 5921 15145 -12036 4149 -10509
30739 107355 158542 -12034 4150 -10508
28458 100607 146591 -12025 4165 -10493
21290 68617 107079 -12035 4163 -10497
6982 16670 33284 -12039 4160 -10498
2070 3874 10824 -12031 4160 -10496
1056 1895 5344 -12030 4166 -10496
614 1054 2847 -11261 6226 -9363
486 871 2096 -10824 4931 -10688
443 823 1844 -12399 2576 -11102
441 844 1796 -11644 3324 -11153
436 838 1759 -12129 4018 -10171
420 805 1661 -11847 4068 -10569
377 747 1402 -11826 4094 -10624
319 695 1059 -11959 4118 -10507
280 677 799 -11939 4141 -10568
248 639 595 -11992 4147 -10538
229 588 473 -12003 4152 -10535
222 561 439 -12003 4154 -10542
219 550 429 -12023 4156 -10521
219 546 427 -12008 4154 -10515
218 544 425 -12007 4148 -10539
218 547 426 -12016 4143 -10530
219 558 431 -12012 4151 -10516
223 573 437 -12017 4158 -10504
228 594 447 -12023 4158 -10505
241 644 490 -12020 4159 -10503
277 805 662 -12014 4163 -10501
373 1222 1112 -12012 4167 -10506
578 2154 2054 -12018 4168 -10499
1024 4130 3928 -12028 4171 -10493
1925 7999 7358 -12027 4169 -10499
3280 13642 11571 -12029 4168 -10513
4510 18604 13996 -12036 4159 -10513
13911 55982 66595 -12032 4148 -10498
54099 221576 287131 -12040 4149 -10495
67943 306001 429405 -12047 4152 -10504
72640 323283 444486 -12034 4152 -10517
75921 331020 445662 -10290 4272 -12630
81256 330661 444232 -8073 4878 -13338
84480 326450 442359 -11759 2815 -5758
82670 329437 439206 -16082 656 39
82567 330754 437333 -16455 1758 -884
83460 330351 436300 -16784 2746 -950
83795 324845 431815 -18627 1980 778
85020 310281 421634 -20766 407 3038
87840 274173 395035 -20818 -210 3882
86023 238316 368283 -19981 -355 3187
82100 230323 363108 -19044 -630 2268
81088 236182 369632 -18930 -915 2277
81125 240111 375539 -19666 -411 3725
83372 248854 389566 -19925 -412 4481
83007 254168 397109 -18814 -118 4216
81727 251426 395551 -17464 -961 3778
80656 248760 393854 -16528 -2994 2796
81702 262184 402604 -16112 -3495 1990
83333 271015 407099 -16065 -3568 1188
83748 269479 403435 -15601 -3393 349
82275 258935 392157 -14822 -3184 -367
76115 240098 367981 -14848 -3141 -766
71937 231667 356385 -15484 -3374 -1218
69150 218111 347678 -15901 -3162 -1607
66283 203590 338118 -16357 -2348 -1409
61940 193728 323563 -16758 -1278 -1164
58220 188685 313574 -16567 153 -1089
57927 191662 313709 -15999 2134 -781
59850 198280 316726 -15744 2994 -330
61610 208022 325539 -15339 2448 -373
62769 217477 336751 -14741 1960 -728
64375 225042 346726 -13251 2190 -753
67290 236320 363936 -12984 2876 -151
71537 252524 387043 -12829 3492 487
74489 258813 396760 -12939 3949 1037
75405 256048 396608 -13296 4085 1353
78077 260464 404978 -13063 3885 1455
80911 271022 414663 -12775 3591 1298
80928 278557 420268 -12506 3636 1059
80737 284039 422899 -12765 3448 1210
79200 284565 422769 -13478 2923 1474
76809 289141 425019 -13828 2409 1178
72904 297225 424639 -14083 2279 623
67961 302809 420046 -14190 2275 -54
65988 304914 417087 -14287 1958 -1142
67053 305002 416498 -15260 1668 -2036
68958 302639 415789 -16426 1646 -2471
70349 300091 415557 -16849 1587 -2932
69385 299341 414425 -17174 1260 -4156
68784 299100 413693 -17331 1151 -5398
69031 297825 413047 -17210 1559 -5679
69386 295063 412492 -17094 1724 -5421
71777 290723 414412 -17387 1733 -4935
74349 285585 415971 -18190 2073 -4152
74905 281266 415277 -18825 2429 -3285
74788 277096 413473 -18546 2662 -2754
76362 270307 410685 -17774 2553 -2216
77802 259207 403008 -16951 2270 -1408
76988 245772 389328 -16356 2043 -755
73871 228718 368674 -16200 1786 -275
69146 209543 341749 -16128 1768 243
59673 176859 291117 -16152 1715 714
48031 140494 235378 -16084 1381 1085
39172 113945 195099 -15537 756 1274
33226 96154 167770 -15002 -20 1834
29332 84692 150239 -14812 9 3277
27193 78199 140292 -14445 223 4326
24325 69149 125915 -14403 -299 4797
21533 60536 112444 -15196 -1478 5132
19934 55842 105024 -15779 -2550 5068
18896 52811 100190 -15959 -2956 4813
18426 51466 98109 -16528 -1705 5621
18326 51169 97596 -17031 -1553 5430
18058 50342 96133 -17276 -1657 4645
16909 46863 90285 -17299 -1593 3928
15656 43180 84263 -17229 -1523 3496
14917 41050 80664 -16945 -1024 3645
14391 39591 78045 -16630 -428 4118
14087 38661 76566 -16616 -186 4167
14116 38679 76659 -16625 -467 3612
13941 38119 75710 -16323 -1180 2864
13803 37670 74951 -16112 -1654 2514
13579 36971 73794 -15971 -2062 2457
13407 36463 72997 -15679 -2342 2471
13385 36370 72857 -15565 -2484 2482
13374 36281 72793 -15711 -2693 2593
13802 37524 75030 -15847 -2843 2695
13935 37920 75637 -15922 -3011 2635
14106 38447 76633 -15870 -3259 2700
14392 39306 78029 -15542 -3733 2751
14374 39347 78000 -15112 -4376 2537
14237 39046 77334 -14597 -4897 2436
13964 38443 76025 -13795 -5512 2237
13182 36490 72052 -13190 -5903 2271
12169 34295 67150 -13111 -5846 2616
11450 33339 63951 -13678 -5609 2747
2201 5530 11820 -13926 -12167 3157
1658 4032 7752 -12466 -11464 1538
2203 8010 6685 -9261 -10924 -2322
4023 15866 13295 -9657 -10414 -3167
2835 10742 9419 -10914 -9911 -3629
3840 15036 15144 -10260 -10396 -7162
4838 18669 19856 -10259 -11545 -3544
5704 22379 23871 -10193 -10851 2640
8215 32271 34428 -9372 -11547 -1054
14033 52253 63298 -7575 -17131 -5179
17833 65630 89119 -3514 -20331 -796
17751 59652 81930 -887 -20395 1276
20247 66739 91387 -2111 -19522 -606
24372 78386 112284 -3941 -16753 -1674
25241 81159 117160 -2657 -17254 -1198
22441 77057 110941 -5530 -12336 3425
22523 77365 112526 -4875 -13229 7639
23579 80632 117496 -714 -18448 8401
23532 79347 115506 2095 -19269 6652
24159 80277 117156 4544 -17905 5270
25824 86045 125269 4834 -17024 3424
25471 86294 124779 4454 -16613 1480
23547 81656 117674 3444 -16577 -142
21170 74244 106517 2062 -17503 -1213
20083 70786 101805 1801 -19367 -1802
20011 70481 101825 1826 -20983 -3502
20689 72380 104956 1497 -21173 -5789
21713 76046 110625 1325 -19849 -7103
22271 78272 114057 1757 -18358 -7196
23633 84267 122585 2721 -17014 -6593
25452 93564 134692 3305 -15998 -6435
26956 100481 144668 3526 -15521 -6388
25397 93426 134882 3220 -14964 -6620
19454 71203 103803 2645 -14919 -7156
13632 48865 69561 3738 -14939 -7073
7574 27522 33606 4086 -15188 -6513
8219 18618 21738 1371 -16651 -6246
9253 27554 35347 -1645 -17481 -3769
8528 28155 36988 -3332 -20337 -685
13185 46545 63608 -2216 -21823 -4876
17702 66645 94602 2613 -17266 -9878
19794 73406 105609 2905 -14165 -7727
17665 65947 91147 -1124 -16085 -3872
17278 65459 90707 -2146 -17655 -1685
15016 57411 77114 -4746 -14261 813
10197 40480 51172 -7485 -11904 1777
8253 33802 42211 -8453 -11355 2793
9378 37326 46779 -8267 -11611 4282
3846 15213 16656 -9153 -13163 4460
1049 3387 4164 -7140 -16143 4622
1458 2303 7847 -5462 -15720 9080
859 1686 3705 -2335 -8544 11896
362 922 1114 -5819 -3819 9027
389 1073 1305 -11807 -3563 2863
449 1365 1669 -14116 425 3196
513 1611 1937 -15494 3340 2765
397 1090 1203 -16622 7492 -467
267 661 592 -14119 9804 -5257
258 714 585 -11098 4393 -9816
260 684 582 -9676 -4205 -10749
251 604 548 -3982 -9313 -7790
245 556 527 -895 -9472 -3838
239 526 518 -2858 -6456 -166
237 521 514 -2508 -3483 2230
231 528 487 -2339 -2233 3434
221 530 441 -3371 -2010 4030
209 458 436 -4868 -4701 1550
212 462 435 -3663 -1530 8003
211 473 436 -2277 663 13680
209 461 436 1894 -3971 6565
226 577 450 4201 -4224 3299
223 563 444 2277 -2335 3437
218 483 443 4462 -2991 1429
227 592 453 3397 -5451 -1491
309 1321 471 3637 -1543 207
229 625 446 8534 -3008 469
214 479 440 5053 -6052 -2174
216 476 439 -4905 -1841 -363
217 491 440 -8725 -2774 -3136
221 532 443 -8316 -610 -11312
1085 4087 2337 -6192 -15924 -7594
1248 5549 2036 -4441 -16937 -3166
723 2726 1231 -3597 -17546 6309
1154 4049 2606 -5194 -13440 15110
1659 5638 3983 -7934 -13207 9757
2149 7999 5842 -9848 -9955 8332
4624 15038 12682 -11672 -12060 8402
5429 18319 14963 -9295 -14533 5996
15086 37336 37251 2648 -17202 2026
26284 103330 74004 7912 -19829 7396
4391 10253 11548 8573 -23574 11239
379 656 1049 16506 -28481 1772
283 531 701 18539 -28114 -4784
237 528 458 11388 -22743 -5069
227 507 454 5860 -14930 -4836
238 484 535 2894 -10249 -3484
524 1248 1451 -951 -10665 -2920
20240 33910 36180 -474 -16220 -5143
222 2448 443 5620 -24175 -8975
210 452 437 11061 -28762 -13088
241 496 639 10056 -29067 -13227
376 917 1273 4911 -27927 -11918
613 1960 2312 2742 -26710 -12774
896 3117 3181 5548 -23943 -11933
1882 7085 6239 8074 -20277 -10721
9125 33492 33745 8888 -20219 -10848
35674 126088 140759 9675 -18973 -10064
32433 105923 114987 9872 -14661 -8671
7784 21769 28123 9757 -13404 -7803
3149 9037 12631 3825 -14912 -3569
214 464 445 137 -13406 -9307
215 460 442 305 -13745 -9064
215 461 445 953 -13499 -8633
216 462 444 313 -13275 -8118
215 462 444 736 -15292 -8400
215 461 443 2198 -14955 -8092
216 460 445 2598 -11125 -6314
215 462 443 630 -8927 -4626
213 459 443 -49 -6890 -3827
214 460 444 540 -3895 -3128
215 462 445 163 -2908 -2707
215 465 444 4777 -15060 -8423
214 461 440 8617 -24198 -12563
213 460 438 9037 -23559 -11487
214 464 445 12783 -21928 -11378
217 482 453 11852 -13727 -5468
217 482 449 7216 2985 -4760
218 490 455 3789 6763 -14669
219 486 455 -1729 2575 -18697
221 493 461 94 2335 -17082
227 540 487 4789 5236 -11053
248 792 581 8969 6247 -7549
297 1378 782 11293 5878 -5875
328 1913 887 13597 7080 -2639
250 792 558 17373 7228 161
225 527 477 17045 5548 204
228 536 488 12954 6462 -2935
230 549 497 8925 7965 -7697
233 552 505 6179 6898 -11629
239 578 543 4082 7009 -12789
241 590 562 283 8295 -11706
240 592 563 -4929 5753 -13128
239 582 532 -8198 2434 -15027
236 566 504 -8497 3222 -14789
225 530 464 -7556 5202 -13879
222 522 466 -4657 5826 -13557
223 528 475 1528 6787 -12857
224 526 476 6767 8568 -10219
224 523 473 9589 8829 -8859
224 522 472 9969 9214 -9120
225 524 472 8110 9339 -10502
224 523 470 4457 8961 -12641
225 522 473 4530 8975 -12667
227 523 473 5864 8966 -12087
225 526 479 6915 9316 -11338
224 526 479 6915 9547 -11313
224 528 479 6429 9412 -11718
225 526 478 6233 9417 -11757
225 524 479 6545 9372 -11611
224 522 479 6625 9398 -11564
223 522 479 6441 9330 -11732
227 521 480 6693 9467 -11420
225 521 480 6776 9317 -11521
225 521 481 6582 9261 -11694
226 521 479 6708 9269 -11513
225 521 480 6639 9599 -11266
223 517 475 6852 9497 -11315
222 508 467 6403 9438 -11441
221 502 461 6444 9237 -11889
219 491 454 6656 9099 -11687
219 490 451 5778 9440 -11837
220 490 452 5871 9290 -12390
220 490 452 6563 9450 -11554
219 490 453 6996 9509 -11230
220 491 452 6648 9437 -11520
221 493 451 5996 9350 -11873
219 497 450 5295 9245 -12267
221 500 452 5098 9187 -12441
222 501 454 5654 9262 -12210
222 503 456 6330 9424 -11802
226 511 458 6280 9445 -11800
226 517 462 5326 9247 -12289
228 526 468 4266 9047 -12771
229 526 468 3793 8968 -12986
225 521 463 4035 8997 -12907
226 515 458 5227 8978 -12607
223 502 453 6345 9447 -11665
225 518 457 4796 9155 -12359
224 509 453 3485 8546 -13194
222 502 454 5587 9098 -11950
225 498 455 6280 9445 -11800
223 500 454 5326 9247 -12289
225 516 469 4266 9047 -12771
230 535 520 3793 8968 -12986
229 537 539 4035 8997 -12907
229 528 536 5227 8978 -12607
226 516 528 6345 9447 -11665
216 459 484 4796 9155 -12359
223 476 520 3485 8546 -13194
466 736 1294 5587 9098 -11950
1304 1909 3259 8310 10135 -9514
406 777 1231 8009 9954 -10149
280 594 710 5961 8628 -11832
231 466 532 3406 8809 -11989
224 467 508 243 9016 -13113
225 474 514 -835 8834 -14181
223 486 486 -3087 3283 -15120
239 510 576 -6232 -7571 -19762
291 555 850 1827 -15661 -22119
231 494 527 9739 -22339 -19270
226 487 499 11623 -27535 -15072
227 488 532 13028 -25724 -9981
240 496 624 10887 -17223 -4743
228 489 517 7941 -10272 -879
226 493 485 7162 -9072 -321
226 510 480 7280 -10051 -1032
221 510 474 10110 -8435 -5348
224 514 496 13061 -9287 -9650
233 532 536 10013 -11129 -6926
236 510 548 3570 -9992 -3856
239 515 559 347 -9003 -4538
235 501 541 4468 -11178 -9410
228 487 505 11876 -7843 -10631
226 485 491 8975 -9639 -8100
225 481 478 5536 -20975 -9313
223 479 475 10437 -25889 -11230
222 482 480 12583 -22952 -11006
226 494 492 12226 -18061 -9526
227 509 510 9504 -17551 -9092
228 508 513 6344 -14949 -8059
226 500 511 6232 -11983 -7047
229 505 516 6144 -10615 -6139
243 550 577 4275 -9500 -5185
256 553 645 2763 -8252 -4662
230 496 519 1863 -6700 -4091
238 500 576 1665 -5809 -4106
245 489 606 2309 -6380 -5330
253 495 646 3467 -8056 -7263
283 579 762 4884 -9999 -9178
270 573 698 5717 -11235 -10150
282 648 721 5015 -11892 -9708
262 585 620 8614 -13042 -6415
226 478 500 12845 -14040 -3635
229 482 525 11182 -11822 -3137
235 488 538 11294 -10707 -2653
237 492 545 14967 -9286 -4893
246 508 576 12308 -9335 -7199
236 475 525 8200 -15192 -9250
230 472 515 7246 -19288 -11310
234 481 524 10509 -17785 -11250
234 477 508 9067 -14069 -8249
222 460 470 5824 -10407 -5664
215 449 445 4333 -9697 -5697
212 451 441 4228 -9937 -6730
213 454 443 5258 -11000 -8019
210 449 438 5987 -12120 -8734
209 446 432 4898 -11308 -8259
209 445 431 4544 -11731 -8659
208 445 431 5692 -14517 -10394
209 447 432 6470 -18326 -12152
210 447 436 6409 -21469 -12737
209 448 436 6763 -21869 -11763
211 450 436 8334 -19536 -10425
208 444 432 9261 -16642 -9283
208 443 426 7831 -14663 -8139
207 444 427 5444 -13369 -7759
208 445 425 4285 -13542 -8381
208 445 426 4299 -13511 -8649
207 444 426 4966 -15287 -9101
207 451 426 6497 -16875 -9334
207 454 427 7277 -13933 -7954
209 459 427 8282 -13183 -7604
212 477 427 8549 -14954 -8184
212 480 425 6037 -14934 -8105
216 496 427 3923 -13506 -8008
213 490 430 3752 -11820 -7918
230 560 467 4519 -11163 -8015
257 662 565 4847 -11315 -8120
249 626 517 4477 -10065 -7611
237 576 462 4365 -12054 -8465
232 554 447 3781 -11809 -8401
226 531 442 4197 -12624 -8846
224 516 439 4463 -15615 -10371
225 515 442 6168 -20597 -12781
223 515 445 4997 -17726 -10863
218 498 439 85 -10958 -6732
216 466 442 -1376 -8401 -5533
216 466 453 -447 -6577 -5103
218 473 465 3089 -8652 -6126
248 535 579 4404 -10082 -6836
313 607 830 5354 -10830 -7379
1460 3619 4824 4990 -9465 -7343
11973 69761 33139 3540 -9970 -7689
29946 98855 74301 6628 -9436 -10050
13281 24491 26941 6718 -3775 -7029
3615 8140 10185 5458 905 -4707
1839 3907 4825 8451 4366 -6281
1383 2974 3641 8592 6365 -3668
1339 3533 3799 8510 4893 -454
1588 5420 5109 9018 4903 7209
2360 8901 8009 7373 2585 14139
2708 9620 9541 3853 -2204 17083
2267 5695 7933 2553 -4510 17709
2253 6332 9359 2194 -5600 15144
5706 18846 28531 2344 -7072 11603
42008 158247 170797 3073 -9255 8957
43440 185976 180537 3588 -10898 9153
35976 155458 146633 5943 -10756 10185
30903 132917 129157 6213 -8166 9874
30092 124555 126820 950 -4804 10692
25584 95665 107948 -2482 707 12935
20107 70976 86511 3491 -2852 11275
22439 82514 97175 6850 -8157 9240
28747 111858 123243 6824 -5858 9740
32955 130319 138796 6306 -6686 11425
30180 117626 126589 4897 -8166 13268
27364 105529 115948 7714 -7528 12529
27380 105390 116182 11444 -3510 8680
27130 103882 115048 12403 -2692 8015
26628 101321 113026 12308 -3332 9126
26337 99963 111819 12155 -3059 10513
25934 98059 110142 12056 -3086 10723
26231 100113 111785 12008 -3799 10080
28486 113590 121055 12052 -3850 9861
31613 131633 132925 12109 -3711 9920
32202 132311 133664 12156 -3643 9791
24329 91589 101492 12259 -3546 9727
19978 71212 85304 12330 -3249 9452
20064 71589 85917 12178 -3377 9217
19685 70151 83651 11266 -4967 9997
18361 64950 78149 10455 -6254 11558
17536 60839 74564 10747 -5875 11417
15523 51537 66229 11496 -4981 9555
14764 48908 63881 12164 -4225 8640
16452 56130 70847 12574 -3898 8927
16727 56547 71257 12356 -5636 8881
13723 44198 58301 12645 -5140 8955
13354 43654 57534 12692 -4343 8322
14380 47806 61220 12753 -4998 7588
13046 42104 55786 13157 -5256 8238
10938 34421 48693 13284 -4556 8700
18628 69429 81802 12655 -5210 7901
18422 68756 79009 12340 -6567 7739
19188 79173 84608 12620 -7072 8372
20769 87155 90680 12195 -6078 8788
28980 127283 124140 12479 -4728 9022
30439 130876 127837 12868 -5443 8575
26390 111314 111434 12572 -6477 7978
24478 103363 104385 12287 -5908 8609
24588 104670 105335 11067 -7126 9228
26567 115445 113993 10269 -7670 10321
28040 123140 120093 10212 -6771 11026
27780 120641 118476 10152 -6864 10458
30124 130909 128368 10068 -7149 10107
37901 168239 158663 9934 -7421 10020
40993 181909 169706 9913 -7306 10323
41947 183626 171912 9914 -7063 10740
40077 176215 162968 9956 -6839 10573
45278 204039 185148 9818 -7007 10314
47063 209819 193091 9489 -6888 11043
44623 191983 184182 9344 -6298 11710
45759 199675 190075 9403 -6616 11652
45330 199440 186582 8664 -7067 11609
44725 195651 183614 7710 -7411 11915
47893 212953 196894 7659 -6974 12638
49152 217021 201225 9479 -4834 11711
46975 204720 192974 9534 -4763 11972
45435 198015 187769 9065 -5695 11833
46175 202240 190599 8633 -6149 12037
46905 206288 193334 8497 -5949 12432
46167 201939 190215 8757 -5661 12329
45680 199511 188679 9266 -5198 11965
46154 202098 190464 9375 -5208 11860
46133 201794 190156 9204 -5420 12028
46326 202904 190995 9284 -5331 11972
46614 204699 192222 9367 -5263 11930
45770 199795 188780 9344 -5325 11995
46462 203789 191638 9304 -5393 11981
46878 205783 192767 9212 -5435 12046
46412 203715 190630 9301 -5317 12006
46619 205097 191411 9374 -5294 11932
47219 208454 193629 9266 -5380 12050
47061 207369 192799 9150 -5483 12098
47283 209071 194287 9025 -5675 12060
45843 200949 188637 8872 -5833 12099
45018 197023 186322 8754 -5891 12172
45598 199924 188179 8633 -6026 12177
45661 199971 188040 8660 -5925 12265
45477 199356 186862 9029 -5565 12020
45538 200530 186479 9298 -5392 11785
45108 198191 184415 9288 -5363 11940
43402 190587 177989 9232 -5467 11961
42609 186738 175056 9196 -5632 11987
42737 187519 175627 8823 -6063 12091
42819 188100 176039 8562 -6346 12131
41116 180772 168920 8738 -6240 12040
34609 152452 143640 8751 -6315 11931
29656 130438 124893 8721 -6399 11920
28615 129197 122766 8691 -6431 12013
27228 125501 119017 8770 -6393 12137
25463 116936 112638 8979 -6464 11875
24534 112012 109123 8797 -7150 11238
24639 113435 110055 8838 -7626 10962
24951 115562 111510 9318 -7369 11034
25043 115978 111894 10079 -6753 10408
25263 117369 113059 10344 -6515 10285
25523 118765 114425 10471 -6363 10382
24831 115682 111111 10398 -6494 10433
21536 98347 96343 10402 -6512 10440
19280 87404 87139 10443 -6444 10501
17711 77939 79899 10647 -6007 10776
17448 76880 78807 10614 -6267 10610
27614 124508 119409 10576 -6813 10170
33773 143767 136699 10195 -6236 9786
32701 141588 132086 9743 -6302 10621
34644 154212 139423 9738 -8054 10849
31240 135646 126434 8549 -9475 10610
30307 130055 126156 7381 -9352 11231
35449 156301 146464 6869 -9090 11784
42620 197570 172533 7344 -8893 10944
9744 31325 45692 12438 -6142 9750
5190 13868 24708 12859 -4764 8559
3024 6847 14799 13693 -2808 7956
1615 2950 7944 14387 -720 7513
913 1442 4449 14458 1792 6826
750 1180 3734 14266 4036 5538
740 1169 3659 14322 4888 3281
633 1003 3043 14109 5173 535
564 907 2590 13985 5919 -1418
483 795 2072 14419 6216 -2449
436 731 1755 14610 6387 -3021
396 687 1502 14328 6831 -3368
388 685 1452 13830 7390 -3902
415 730 1626 13070 7390 -6003
466 819 1952 12407 7753 -6601
503 882 2165 12492 7635 -6792
519 909 2316 12930 7618 -6414
563 1018 2660 13270 7829 -5749
648 1222 3179 13448 7542 -5124
661 1283 3313 13260 7935 -4115
643 1251 3266 13329 8451 -3104
620 1120 3118 13789 8105 -2680
786 1460 3981 14207 6542 -3189
975 1917 4861 14475 6216 -3230
950 1797 4523 14596 6917 -2162
734 1301 3178 14736 7586 -1120
463 812 1593 15046 7432 -484
371 759 1138 14476 8297 -603
331 768 1000 12020 10974 -1637
362 783 1362 10111 10861 -4101
630 1092 3241 9730 9077 -6472
1581 3699 8867 11886 5874 -7237
1992 4889 10241 14548 2065 -3499
764 1183 3620 15538 3819 3786
471 483 2043 15536 6568 7196
406 459 1624 14306 5310 4392
486 730 2176 14080 2007 -2317
764 1500 3838 13538 -1844 -7431
1087 2528 5619 13318 -4453 -7407
1266 3262 6425 14725 -4908 -4179
1254 3551 6155 15818 -4093 -1050
1301 4506 6354 16285 -4685 1037
1718 6870 8779 16472 -5270 2521
2234 9549 12260 16085 -5580 2218
2457 10872 13664 15740 -7148 -594
2649 12182 14921 15359 -4956 -2820
2718 12629 15341 14205 321 -3681
2914 11979 15251 13510 1528 -6097
3134 12653 15778 13927 897 -6655
3471 14546 18665 15691 -37 -5289
3443 14564 20111 16454 -3060 -4763
2813 11060 15932 16240 -3809 -2652
2170 7093 10557 17914 -2783 -267
2798 9821 15030 19615 -2250 -136
2338 6441 12004 17335 726 -1557
1092 5923 4086 10065 -3124 -9794
1161 4938 5750 3476 -7867 -10472
1150 4636 5742 -5851 -7151 -1548
991 3957 5130 -12778 -10000 -1031
1215 4074 6594 -13237 -8520 -3539
1110 3716 5901 -14407 -679 -4604
1019 3468 5575 -13055 1169 -7164
1132 3845 6179 -12831 3197 -9229
1136 3942 6165 -12767 2783 -9722
1157 3979 6363 -13060 1810 -9605
1436 4578 7869 -13598 3478 -8860
1451 4678 7894 -12466 3349 -9952
1502 4969 8214 -11334 1992 -11380
1627 5267 8868 -11968 2547 -11063
1625 5259 8910 -12126 1366 -11105
1800 5689 9845 -12098 845 -11334
1711 5524 9418 -11347 609 -12370
1838 6147 10111 -11373 2040 -12109
1853 6314 10196 -11244 259 -12110
1875 6416 10375 -10896 -2005 -12333
1918 6403 10583 -9713 -4919 -12713
1817 5898 10079 -9144 -6646 -12505
1728 5496 9661 -9513 -8812 -11229
1730 5413 9686 -9615 -10955 -9615
1649 4856 9215 -9661 -12198 -7995
7602 19651 39316 -9169 -13436 -8647
7180 19451 36303 -8686 -14394 -10551
7112 20532 35918 -7297 -13825 -9936
7635 24513 37455 -5784 -14452 -8012
9353 34192 45116 -6579 -13667 -5354
7742 28181 35799 -4639 -12894 -5058
7955 32477 41096 -3774 -13450 -5444
6990 29348 36102 -6143 -13472 -5000
5753 23856 28384 -7169 -11700 -9040
7087 29139 34057 -8501 -13606 -12220
6165 25721 30810 -5397 -16985 -9940
8610 35543 42603 -7041 -15283 -8108
14317 55462 66003 -8981 -12037 -5686
9727 36633 37266 -7676 -10127 -4945
6095 24517 24516 -4063 -10338 -5925
5105 21622 23633 -2668 -10828 -6057
5581 23206 25484 -5235 -10772 -5057
6328 25437 26877 -6200 -11442 -6209
7083 27906 29743 -6668 -11262 -7503
7245 28319 30259 -7592 -10999 -7531
6394 25616 27055 -7800 -10764 -7730
6350 25347 27173 -8407 -10772 -7988
6324 25114 27246 -9295 -11025 -7858
6116 24277 26458 -9565 -10879 -7468
5808 23180 25153 -9295 -10724 -7323
5917 23488 25667 -9434 -11095 -7783
6123 24155 26473 -10002 -11342 -8517
5934 23484 25423 -10049 -11289 -8950
5702 22717 24451 -10177 -11588 -9220
5758 22832 24688 -10459 -11809 -9909
5604 22209 24053 -10364 -11770 -10124
5126 20610 22847 -9806 -11480 -9267
4806 19722 22947 -8620 -10814 -8321
4795 19795 23485 -8095 -10402 -7924
5035 20458 23728 -8912 -10666 -8370
5333 21289 24298 -9989 -10988 -9297
5315 21265 24610 -10138 -10831 -9612
5118 20907 25214 -9086 -10098 -9044
5101 21061 26065 -7871 -9184 -8402
5243 21388 25850 -7634 -8692 -8497
5225 21481 27390 -8917 -8863 -10388
5210 21402 27238 -9073 -8631 -10538
5199 21297 27063 -8647 -8247 -10193
5175 21174 26946 -8338 -8082 -9975
5151 21098 27049 -8441 -8350 -10136
5153 21133 27365 -8861 -8913 -10279
5144 21108 27476 -9164 -9328 -10035
5126 21019 27167 -8925 -9540 -9603
5038 20737 26850 -8428 -9513 -9342
4864 20450 26656 -8085 -9399 -9401
3618 15349 18613 -8840 -7448 -7050
3961 16766 20580 -9656 -7361 -7038
3990 16141 21916 -11752 -8384 -7827
4479 18173 25330 -12614 -9369 -9030
4658 18820 26051 -13178 -10200 -9393
4206 16866 22637 -12437 -10012 -8025
3759 14707 19019 -11825 -7972 -4805
4057 16142 21080 -12457 -5921 -2044
5139 20780 27768 -12162 -6147 -2553
6231 24890 33180 -14194 -10385 -4536
6812 26730 34525 -18342 -13003 -4126
7156 27983 35716 -16900 -9750 -3224
7555 29345 36973 -13501 -9225 -4727
8217 31707 39878 -15901 -10231 -4269
9097 34507 42102 -18639 -8481 -2851
9090 34140 40829 -17450 -6989 -5802
9365 35005 42160 -15175 -5718 -10327
9753 36245 44154 -13766 -5351 -11529
9462 35049 43162 -13853 -5953 -9366
10328 38019 48810 -14233 -6315 -7048
12550 43656 61622 -13668 -6272 -6923
11129 35793 55888 -12755 -6254 -6561
8305 27283 42805 -13205 -6221 -6808
4798 15559 25539 -12895 -5528 -6469
2479 7845 14589 -12386 -4207 -6565
2145 6423 12595 -12674 -2999 -7422
1684 4361 10116 -12662 -1796 -8481
1288 3099 7109 -11821 57 -10897
926 2314 4880 -10254 569 -14517
836 2006 4531 -11660 -1538 -13071
713 1604 3801 -12808 -1346 -10350
496 1387 1941 -11245 -1912 -7777
495 1244 2242 -11073 -4868 -9002
511 1302 2311 -8089 -3168 -15497
493 1517 1856 -2733 -1931 -21893
519 1637 1805 -1718 -5244 -21062
548 1562 2324 -4159 -5376 -14801
628 1649 3034 -7252 -4441 -11817
664 1742 2992 -8339 -3794 -12388
665 1930 2537 -9111 -3665 -12734
666 1993 2414 -9197 -3896 -14280
662 1768 2865 -6301 -3539 -16386
836 2048 4375 -5975 -3003 -15806
3044 7448 19907 -8810 -2733 -13510
38754 155026 204673 -10263 -2096 -12421
62377 311506 408682 -9188 -1304 -14605
73731 350302 445781 -7891 -927 -16355
78691 353979 447780 -6737 -1680 -14429
81016 329284 431881 -7919 -2459 -11715
76290 255756 345283 -9884 -1896 -10769
481 2019 1262 -8160 -494 -12111
534 2116 1602 -4163 -431 -15761
998 3528 5345 -1388 954 -15527
29528 85517 112534 -4670 436 -14944
50791 299449 362733 -7958 -211 -13916
56471 334256 444476 -8347 -153 -13337
63281 331047 447349 -7197 -82 -14344
69230 245572 380747 -6786 -45 -14382
8508 37038 131072 -8641 -262 -13935
1534 4428 6432 -8161 110 -14561
862 3003 3731 -5320 -855 -16738
634 2506 2679 -1150 -4257 -20830
610 2515 2130 -804 -5689 -22446
575 2429 1795 -2122 -4983 -21041
575 2399 1609 -2084 -4835 -19228
584 2399 1489 -3069 -3203 -14532
580 2363 1393 -7607 -2490 -10842
568 2303 1316 -7733 -895 -14999
560 2268 1278 -7300 -610 -15165
567 2295 1282 -8195 -864 -14418
576 2334 1311 -8238 -957 -14246
602 2440 1390 -8465 -1097 -14145
624 2524 1512 -8699 -1193 -14042
648 2608 1751 -8788 -1228 -13975
759 2886 2620 -8783 -1103 -14074
1915 5577 12199 -8778 -963 -14134
42162 139522 172624 -8727 -940 -14056
60962 289329 378462 -8765 -1025 -13968
66107 289299 396029 -8987 -1127 -13861
66128 256083 354874 -9129 -1061 -13798
588 2399 1464 -8626 -2410 -14595
587 2399 1430 -8684 -2188 -14464
585 2401 1409 -8257 -2228 -14496
588 2407 1403 -8606 -2536 -14075
598 2453 1439 -8691 -2442 -13938
620 2549 1536 -8600 -2269 -14019
647 2682 1698 -8538 -2263 -14063
700 2930 2064 -8589 -2386 -13890
895 3632 3663 -8590 -2417 -13806
13526 28198 45636 -8634 -2454 -13787
62480 237569 270964 -8626 -2434 -13853
69737 344636 444400 -8650 -2418 -13879
71540 336307 441075 -8679 -2336 -13829
74656 277004 387823 -8666 -2265 -13782
22199 79182 163840 -8657 -2236 -13697
2661 7732 14267 -9680 -4833 -12555
1344 4414 6037 389 1257 -20469
1043 3754 3895 -488 -1166 -18238
930 3523 3074 -1260 -662 -18909
864 3362 2690 -2343 -1250 -16814
792 3147 2471 -6348 -3504 -13102
784 3152 2400 -9023 -4211 -12506
774 3149 2322 -9372 -3854 -13151
767 3144 2263 -9572 -3670 -13381
766 3154 2260 -9710 -3563 -13391
772 3200 2317 -9431 -3234 -13512
787 3289 2438 -9082 -2855 -13618
819 3439 2672 -9049 -2717 -13582
882 3711 3183 -8933 -2686 -13571
1136 4497 5342 -8864 -2756 -13473
15421 40416 62324 -8797 -2755 -13398
56999 266619 303694 -8767 -2730 -13295
63617 350635 443966 -8760 -2752 -13212
69251 320468 423095 -8785 -2865 -13204
39323 145791 245760 -8839 -3029 -13192
3338 9615 32379 -8806 -3092 -13252
1409 4951 6158 -7227 -1664 -16839
998 3876 3837 -3251 -776 -20588
956 3829 3296 -1697 -1476 -21211
914 3712 3086 -2715 -369 -19394
900 3679 3039 -5749 -1403 -14462
910 3727 3205 -9409 -3845 -11429
980 3932 3839 -9710 -3607 -12489
1374 4836 7390 -9581 -3239 -13646
24933 61798 87540 -9828 -3264 -13306
57058 274732 330127 -9793 -3397 -13013
61512 258638 359368 -9414 -3128 -12947
40482 126554 191656 -9439 -3022 -12766
5736 15829 29871 -9377 -3071 -12700
1153 3736 5547 -9250 -2576 -14516
637 2338 2716 -6881 -1532 -18103
514 1919 2215 -4932 -2732 -18794
544 1978 2575 -5976 -3963 -15501
649 2282 3366 -7440 -4337 -11459
814 2837 4532 -9200 -5960 -10439
967 3428 5536 -9777 -7061 -11611
1035 3739 6013 -10313 -6677 -12802
1039 3765 6110 -10467 -6203 -13878
1065 3840 6165 -9469 -6269 -13513
982 3632 5499 -8456 -6802 -12648
1021 4143 5841 -8496 -7205 -11334
1165 4599 6784 -8599 -7436 -9329
1369 5502 7919 -7357 -7755 -7556
1525 6416 8922 -9193 -12430 -8021
1639 6881 9257 -14672 -12006 -11727
1933 8446 11355 -14653 -6665 -14129
2548 11488 15773 -10595 -7502 -13701
3364 15199 20731 -11328 -7702 -12193
4480 20199 26762 -12692 -5544 -11272
6472 28922 36745 -12044 -3484 -10956
10878 47514 61293 -13581 -2377 -9170
24378 98808 139257 -15253 -2699 -7650
64930 229176 338870 -15143 -2835 -7606
57347 267857 386159 -13621 -1821 -8036
51829 272244 390751 -13046 -1287 -8743
49650 267941 391426 -14502 -607 -10065
52209 263978 397041 -16428 605 -11241
54802 267170 404492 -19932 2054 -8406
58683 273429 409794 -18726 2831 -6761
60943 277444 412035 -13356 2641 -8773
59370 276356 409125 -10954 1600 -9594
68411 282675 421668 -10351 211 -9910
83785 300467 442596 -11265 -607 -9901
82614 293961 431779 -12727 -1179 -9575
80992 274341 406157 -13392 -1153 -8718
52622 173264 271247 -13658 -2906 -6693
12971 45664 74286 -13921 -3230 -7185
5150 20451 32483 -13449 -3582 -8309
4700 20078 30173 -13132 -3971 -7598
7200 27919 47793 -14333 -4273 -4519
14317 50048 89754 -16001 -7870 -2680
26518 87707 154569 -14946 -10402 -4922
43715 142728 240584 -12191 -9624 -8025
52165 167539 278905 -12095 -6562 -5970
55784 178002 295499 -15129 -7009 3451
52714 167975 275165 -15184 -7780 2953
36688 121690 199309 -14448 -7707 983
29457 102608 170181 -14034 -7393 334
55727 182716 305356 -13419 -7385 91
58777 185307 306767 -12345 -8337 -1071
44684 139823 233629 -15820 -10186 -3859
45122 141097 240184 -17514 -10287 -3645
55361 168544 284641 -14230 -8913 -1389
48155 146548 245027 -12503 -8450 -5987
31889 97425 167885 -13073 -8589 -5166
22038 66337 118794 -12777 -8253 -4568
19252 58025 103177 -12069 -8677 -5609
33412 106572 176832 -12456 -9200 -3523
59600 193809 302759 -13010 -9082 -1291
56454 180372 279418 -14751 -9342 -666
34791 107664 162309 -14793 -7552 3
20537 62901 93217 -14488 -5760 607
14483 44577 60805 -14727 -5493 1576
23681 71650 96004 -14157 -4855 3849
30972 90081 121795 -13704 -4739 5044
27689 79907 107845 -12445 -5470 5425
24309 69864 93316 -14106 -7749 7357
22467 64662 85825 -15226 -8789 8063
21763 62329 82750 -13579 -7937 7407
16070 45685 57318 -12684 -8134 7163
9508 27304 36571 -12969 -9072 7099
9520 26534 41411 -14186 -9346 7220
10810 29565 51120 -14482 -9774 7133
11259 30599 56026 -12162 -9367 7128
11888 32561 59328 -12104 -7661 6560
12207 33463 62299 -12885 -4878 5262
15142 42141 78673 -13575 -2425 5532
23295 68035 117341 -13864 -1761 5491
25164 73783 124887 -13731 -1756 4313
25814 79790 131784 -12792 -625 3729
26795 88081 140198 -12761 -244 3974
25570 86459 135675 -12733 -279 3892
23507 79379 125381 -12357 665 4541
24287 83844 130538 -12935 1806 5585
24509 85165 131128 -13544 3189 6228
23264 80154 123702 -14289 4106 6921
22410 76272 117803 -14298 4835 7479
21927 73146 114176 -13511 5058 7989
23179 71915 119432 -12201 5625 8469
17988 49693 91135 -11088 5963 9244
16985 47534 88849 -12206 4886 9478
25464 77915 136255 -15594 3847 9097
49907 172696 277463 -13487 3417 8032
59841 222741 350243 -11702 4192 7716
63468 252811 385662 -12233 4611 7711
65897 270346 401700 -12574 4291 7144
67893 281329 406707 -12488 4144 5578
68675 289457 407977 -11680 4863 4024
68961 292800 406731 -11981 6116 3621
71639 294901 403910 -13685 7339 3415
74927 292056 391773 -12206 4886 9478
76381 286786 381085 -15594 3847 9097
73333 271146 356673 -13487 3417 8032
72620 267367 352634 -11702 4192 7716
69105 258462 339079 -12233 4611 7711
64686 241743 318111 -12574 4291 7144
63229 236373 310535 -12488 4144 5578
61657 232906 304350 -11680 4863 4024
61560 237336 310023 -11981 6116 3621
61921 245263 320820 -13685 7339 3415
5587 20022 13154 -12859 9414 -4948
6422 22559 15647 -9767 8350 -2896
7283 24830 18327 -3779 2664 -2087
7568 25659 18860 -1905 -1794 -2448
7594 25852 18947 -6589 -4826 -6154
7609 25846 19069 -5309 -9102 -4259
7609 25894 19024 -3149 -8123 -2688
7615 25896 19075 -7487 -7585 -3273
7621 25913 19094 -9978 -9514 41
7623 25931 19096 -11487 -9945 1097
7629 25942 19126 -12773 -9754 2797
7634 25955 19133 -12116 -9496 3671
7638 25964 19153 -11977 -10342 4746
7644 25977 19166 -12031 -11382 5443
7648 25990 19186 -11485 -11426 5702
7650 26002 19192 -11085 -11320 5843
7653 26014 19202 -10853 -11203 5912
7656 26027 19213 -10736 -11160 5938
7659 26038 19221 -10673 -11144 5954
7663 26049 19226 -10648 -11138 5967
7666 26057 19233 -10651 -11124 5979
7667 26066 19237 -10649 -11125 5989
7671 26074 19248 -10632 -11121 5998
7673 26083 19253 -10616 -11109 6008
7675 26092 19260 -10605 -11114 6027
7677 26103 19268 -10601 -11130 6035
7681 26112 19275 -10592 -11140 6034
7682 26119 19282 -10585 -11146 6037
7686 26130 19293 -10580 -11138 6035
7688 26138 19302 -10575 -11132 6030
7688 26149 19310 -10583 -11132 6024
7691 26154 19316 -10586 -11119 6026
7694 26169 19322 -10575 -11112 6029
7695 26173 19329 -10569 -11126 6027
7697 26183 19336 -10564 -11134 6038
7698 26191 19343 -10555 -11129 6037
7700 26199 19349 -10555 -11128 6034
7701 26207 19355 -10560 -11137 6039
7703 26217 19363 -10559 -11139 6045
7704 26222 19367 -10555 -11144 6052
7706 26230 19374 -10544 -11142 6054
7706 26239 19383 -10551 -11155 6056
7709 26247 19386 -10555 -11165 6062
7710 26250 19398 -10552 -11176 6059
7710 26274 19375 -10545 -11177 6051
7713 26292 19360 -10540 -11169 6049
7705 26139 19609 -10550 -11169 6058
7630 25659 19720 -10554 -11177 6058
7500 25138 19700 -10553 -11184 6059
7493 25108 19699 -10559 -11154 6068
7507 25169 19724 -10548 -11161 6074
7517 25215 19742 -10539 -11159 6075
7516 25204 19738 -10539 -11177 6059
7523 25233 19751 -10547 -11201 6040
7525 25232 19754 -10499 -11136 6083
7526 25247 19760 -10428 -11003 6311
7529 25259 19766 -10384 -10889 6705
7527 25257 19768 -10322 -10760 7082
7530 25274 19777 -10234 -10583 7357
7528 25273 19779 -10170 -10493 7470
7525 25284 19786 -10149 -10467 7502
7521 25290 19793 -10141 -10433 7533
7543 25295 19798 -10126 -10419 7553
7575 25304 19803 -10124 -10413 7568
7601 25309 19809 -10132 -10422 7568
7615 25316 19815 -10126 -10425 7574
7615 25320 19821 -10119 -10426 7573
7612 25327 19824 -10118 -10420 7579
7589 25333 19828 -10111 -10411 7587
7564 25338 19832 -10080 -10453 7589
7556 25352 19837 -10072 -10440 7588
7593 25565 19878 -10076 -10435 7585
7558 25338 19838 -10078 -10434 7588
7481 24935 19732 -10071 -10437 7596
7637 25796 19853 -10059 -10441 7602
7769 26296 19784 -10050 -10437 7600
6551 22757 16803 -10057 -10438 7605
5580 20580 13915 -10059 -10436 7607
5738 21212 14337 -10056 -10504 7587
5829 21485 14582 -10004 -10486 7595
5714 21140 14258 -10001 -10440 7655
5817 21456 14544 -10085 -10578 7600
5763 21304 14397 -9654 -10078 7547
5788 21385 14470 -8946 -9754 7953
5753 21288 14364 -8930 -10822 8556
5920 21842 14905 -8808 -11332 9387
6301 23100 16111 -8224 -10839 10105
7179 25739 18341 -7696 -10506 10132
7071 25355 17992 -7613 -10423 10200
6945 24997 17723 -7586 -10462 10085
5069 21387 13912 -7925 -11620 8526
5478 14316 22702 -7877 -11469 8754
5562 14134 22683 -7719 -11217 9247
5560 14153 22731 -7393 -10745 9618
5558 14164 22750 -5026 -7043 7921
5556 14187 22801 -1133 -5872 3447
5577 14242 23057 -1479 -9936 4165
5675 14203 23385 -2878 -17354 11277
5721 14173 23412 -1880 -20608 14028
5749 14157 23405 -1539 -17343 11655
5863 14124 23698 -1593 -15854 9476
5797 14147 23348 -1657 -15095 8498
5765 14174 23003 -1671 -14862 8004
5818 14172 23007 -1759 -14761 7820
6030 14095 23774 -1870 -14588 7705
6100 14069 23975 -1960 -14435 7642
6143 14059 24131 -2080 -14628 7586
6162 14072 24286 -2290 -14177 7857
6313 14047 24887 -2402 -14280 7929
6437 14015 25293 -2473 -14136 7936
6442 14012 25306 -2538 -13966 7975
6430 14017 25273 -2622 -13913 8113
6476 13985 25413 -2682 -13981 8164
6543 13960 25589 -2726 -14029 8183
6601 13945 25753 -2751 -13994 8166
6630 13941 25833 -2752 -13882 8188
6658 13938 25924 -2774 -13819 8249
6660 13940 25917 -2797 -13874 8242
6653 13942 25898 -2795 -13915 8215
6662 13940 25932 -2799 -13922 8216
6691 13937 26023 -2812 -13929 8217
6715 13928 26109 -2803 -13975 8166
6717 13919 26115 -2790 -14009 8119
6704 13920 26075 -2780 -14032 8080
6637 13950 25918 -2773 -14046 8063
6571 13980 25786 -2769 -14063 8050
6536 14002 25732 -2763 -14065 8051
6502 14026 25686 -2761 -14048 8058
6519 14024 25784 -2766 -14035 8052
6537 14024 25865 -2776 -14048 8042
6555 14022 25945 -2784 -14077 8037
6567 14020 26015 -2793 -14054 8062
6596 14013 26126 -2808 -13988 8113
6625 14005 26244 -2829 -13955 8172
6677 13988 26436 -2845 -13922 8218
6748 13965 26661 -2848 -13883 8242
6797 13951 26805 -2864 -13846 8272
6892 13918 27110 -2905 -13819 8304
7056 13866 27552 -2923 -13840 8292
7114 13853 27750 -2920 -13856 8268
7618 13776 29019 -2921 -13867 8279
8392 13685 30068 -2922 -13883 8278
8404 13673 30137 -2938 -13888 8250
8414 13668 30167 -2951 -13921 8223
8410 13671 30163 -2951 -13930 8217
8404 13669 30168 -2926 -13955 8167
8405 13669 30166 -2901 -14021 8072
8412 13671 30168 -2836 -14352 7619
8419 13670 30177 -2798 -14409 7438
8428 13666 30185 -2766 -14521 7291
