2025-10-08 21:15:48    绿光---红外光---红光---X轴---Y轴---Z轴
5063 25948 12041 -11391 -9562 6617
5094 25949 12039 -11417 -9548 6617
5122 25951 12039 -11434 -9546 6623
5124 25950 12038 -11429 -9540 6629
5121 25951 12039 -11419 -9539 6640
5112 25948 12038 -11417 -9558 6636
5092 25946 12038 -11421 -9567 6624
5063 25942 12036 -11434 -9558 6623
5026 25935 12037 -11438 -9544 6615
5018 25939 12038 -11421 -9536 6622
5019 25936 12036 -11417 -9532 6624
5019 25938 12036 -11419 -9538 6610
5021 25935 12035 -11417 -9549 6603
5028 25936 12035 -11425 -9565 6601
5037 25935 12034 -11432 -9568 6610
5049 25937 12034 -11437 -9553 6617
5051 25937 12034 -11435 -9552 6613
5050 25934 12034 -11430 -9557 6616
5050 25934 12034 -11422 -9551 6624
5050 25936 12033 -11406 -9554 6627
5053 25934 12030 -11420 -9558 6630
5051 25933 12032 -11423 -9568 6619
5049 25935 12033 -11429 -9563 6616
5051 25934 12033 -11438 -9556 6616
5051 25931 12030 -11435 -9557 6623
5047 25931 12030 -11438 -9557 6627
5048 25934 12030 -11440 -9562 6625
5047 25930 12030 -11427 -9559 6622
5046 25929 12030 -11414 -9553 6613
5050 25931 12029 -11398 -9548 6607
5055 25931 12030 -11393 -9549 6606
5058 25928 12028 -11418 -9556 6612
5056 25930 12030 -11440 -9553 6613
5056 25927 12026 -11447 -9550 6616
5056 25928 12028 -11446 -9553 6616
5054 25927 12026 -11446 -9556 6602
5052 25925 12025 -11452 -9562 6601
5048 25924 12025 -11450 -9569 6612
5045 25926 12024 -11449 -9565 6618
5048 25923 12022 -11430 -9555 6617
5050 25916 12027 -11412 -9566 6620
5049 25918 12024 -11424 -9555 6619
5049 25917 12020 -11432 -9561 6619
5049 25919 12017 -11438 -9564 6620
5048 25918 12017 -11437 -9558 6617
5048 25914 12016 -11427 -9555 6611
5049 25915 12017 -11421 -9556 6611
5048 25915 12015 -11429 -9571 6613
5049 25914 12016 -11401 -9563 6624
5047 25915 12018 -11413 -9550 6611
5047 25913 12018 -11429 -9544 6614
5048 25911 12017 -11436 -9553 6617
5048 25915 12017 -11435 -9555 6604
5048 25912 12015 -11444 -9542 6601
5047 25913 12014 -11445 -9537 6602
5047 25912 12014 -11447 -9535 6601
5047 25911 12014 -11453 -9536 6600
5047 25910 12010 -11420 -9548 6608
5047 25908 12003 -11425 -9561 6607
5047 25907 11992 -11432 -9562 6596
5046 25906 11981 -11433 -9562 6591
5046 25904 11979 -11438 -9564 6598
5047 25907 11980 -11440 -9567 6609
5046 25903 11983 -11441 -9565 6611
5047 25907 11994 -11444 -9566 6593
5045 25907 12013 -11447 -9576 6579
5044 25910 12029 -11445 -9583 6580
5045 25915 12060 -11434 -9584 6582
5047 25921 12086 -11433 -9577 6576
5045 25918 12085 -11447 -9579 6570
5042 25919 12083 -11452 -9583 6575
5048 25916 12081 -11459 -9586 6586
5047 25913 12071 -11464 -9588 6595
5047 25912 12060 -11462 -9573 6590
5046 25909 12042 -11462 -9569 6569
5046 25906 12015 -11461 -9581 6565
5045 25902 11980 -11461 -9580 6562
5045 25902 11981 -11452 -9562 6574
5045 25903 11980 -11452 -9560 6597
5045 25902 11980 -11453 -9578 6588
5045 25901 11978 -11453 -9581 6577
5045 25902 11983 -11458 -9567 6579
5045 25901 11987 -11459 -9568 6580
5044 25901 11994 -11464 -9575 6571
5045 25900 11999 -11469 -9579 6572
5045 25902 12010 -11465 -9578 6582
5046 25903 12009 -11444 -9559 6590
5045 25898 12006 -11405 -9544 6596
5045 25899 12006 -11405 -9545 6595
5044 25901 12007 -11444 -9561 6591
5044 25894 12007 -11462 -9566 6599
5044 25899 12007 -11458 -9561 6594
5044 25895 12007 -11453 -9568 6578
5042 25886 12004 -11463 -9573 6580
5042 25872 12004 -11463 -9568 6593
5039 25861 12004 -11455 -9559 6600
5039 25860 12003 -11457 -9559 6604
5038 25861 12002 -11436 -9563 6628
5040 25867 12005 -11421 -9555 6633
5042 25877 12003 -11432 -9549 6606
5044 25898 12007 -11437 -9547 6607
5047 25926 12009 -11442 -9535 6610
5052 25961 12012 -11449 -9525 6596
5052 25966 12012 -11451 -9530 6595
5051 25967 12011 -11442 -9534 6603
5051 25961 12011 -11441 -9539 6603
5052 25963 12010 -11443 -9544 6587
5049 25954 12009 -11430 -9525 6603
5049 25940 12008 -11429 -9530 6602
5046 25920 12004 -11432 -9536 6601
5041 25885 12000 -11438 -9541 6604
5036 25849 11993 -11441 -9548 6602
5038 25848 11995 -11435 -9544 6597
5038 25846 11994 -11435 -9538 6603
5035 25840 11991 -11439 -9547 6598
5035 25839 11988 -11442 -9558 6597
5034 25837 11983 -11429 -9576 6592
5036 25850 11989 -11441 -9569 6587
5034 25841 11979 -11440 -9569 6602
5037 25858 11985 -11428 -9568 6592
5037 25855 11978 -11429 -9561 6578
5035 25851 11978 -11437 -9552 6589
5034 25850 11975 -11429 -9547 6595
5036 25850 11976 -11419 -9565 6592
5035 25851 11978 -11422 -9561 6585
5033 25849 11979 -11432 -9547 6586
5024 25847 11980 -11429 -9550 6602
5015 25845 11978 -11427 -9562 6611
5002 25844 11977 -11443 -9557 6611
4998 25841 11977 -11450 -9539 6615
5000 25841 11977 -11452 -9550 6619
5005 25842 11975 -11453 -9564 6617
5020 25846 11978 -11452 -9562 6611
5058 25849 11977 -11455 -9557 6600
5101 25854 11976 -11462 -9559 6598
5105 25852 11976 -11452 -9564 6594
5103 25854 11977 -11426 -9555 6591
5089 25851 11974 -11426 -9562 6589
5056 25847 11974 -11442 -9577 6597
5005 25840 11975 -11441 -9581 6589
4999 25841 11973 -11442 -9583 6572
5002 25842 11974 -11448 -9575 6574
5001 25839 11974 -11455 -9567 6585
5002 25841 11975 -11457 -9559 6588
5006 25838 11973 -11459 -9557 6580
5016 25843 11975 -11457 -9563 6587
5030 25844 11974 -11429 -9560 6613
5034 25846 11976 -11440 -9554 6607
5034 25845 11975 -11450 -9550 6595
5034 25844 11976 -11453 -9553 6588
5033 25845 11974 -11451 -9560 6582
5033 25845 11974 -11450 -9564 6583
5035 25846 11973 -11446 -9564 6598
5029 25845 11975 -11438 -9564 6605
5026 25845 11975 -11435 -9559 6600
5025 25845 11975 -11402 -9542 6586
5026 25845 11974 -11415 -9546 6585
5030 25844 11976 -11422 -9541 6594
5034 25835 11971 -11434 -9546 6604
5043 25839 11973 -11444 -9551 6617
5049 25828 11964 -11442 -9545 6611
5050 25829 11965 -11442 -9545 6598
5048 25839 11971 -11453 -9552 6590
5044 25829 11965 -11449 -9557 6586
5040 25826 11962 -11428 -9557 6592
5034 25824 11962 -11421 -9547 6596
5028 25837 11969 -11428 -9546 6602
5025 25818 11958 -11439 -9542 6611
5029 25826 11960 -11438 -9534 6596
5028 25825 11956 -11439 -9533 6591
5026 25828 11961 -11442 -9537 6607
5025 25822 11956 -11443 -9542 6602
5028 25828 11957 -11451 -9535 6588
5030 25822 11960 -11446 -9535 6593
5028 25824 11968 -11433 -9543 6606
5028 25820 11968 -11432 -9549 6619
5028 25818 11965 -11426 -9551 6607
5026 25810 11959 -11423 -9554 6591
5025 25792 11945 -11428 -9550 6593
5014 25744 11920 -11434 -9546 6586
5018 25759 11928 -11435 -9545 6585
5011 25722 11900 -11441 -9545 6586
5015 25747 11915 -11447 -9554 6602
5013 25739 11911 -11454 -9549 6598
5014 25735 11908 -11459 -9546 6578
5013 25726 11903 -11437 -9542 6597
5013 25735 11910 -11433 -9521 6590
5014 25732 11908 -11433 -9527 6578
5012 25730 11907 -11436 -9537 6588
5012 25726 11905 -11443 -9535 6587
5011 25728 11906 -11444 -9544 6570
5012 25728 11906 -11450 -9547 6564
5012 25723 11904 -11443 -9544 6571
5011 25725 11902 -11455 -9547 6576
5012 25725 11901 -11456 -9560 6576
5010 25710 11890 -11430 -9570 6574
5006 25690 11872 -11418 -9566 6571
5007 25701 11865 -11429 -9558 6572
5006 25696 11851 -11444 -9554 6569
5009 25706 11864 -11442 -9546 6563
5003 25678 11850 -11441 -9541 6561
5006 25698 11867 -11445 -9541 6540
5007 25702 11883 -11442 -9547 6547
5007 25706 11905 -11450 -9556 6561
5004 25692 11928 -11456 -9564 6578
5005 25707 11959 -11421 -9545 6568
5006 25707 11955 -11422 -9561 6566
5005 25700 11946 -11436 -9558 6575
5005 25696 11934 -11444 -9548 6562
5006 25700 11919 -11452 -9553 6546
5006 25690 11878 -11455 -9561 6549
5004 25687 11851 -11452 -9557 6549
5005 25687 11849 -11461 -9558 6556
5006 25690 11858 -11462 -9557 6570
5005 25692 11858 -11425 -9558 6562
5001 25670 11853 -11445 -9557 6546
5005 25690 11867 -11469 -9556 6561
5003 25688 11877 -11467 -9559 6580
5005 25690 11883 -11458 -9566 6564
5002 25674 11874 -11465 -9559 6558
5002 25683 11879 -11466 -9545 6553
5004 25687 11881 -11470 -9543 6550
5004 25683 11879 -11477 -9550 6558
5001 25672 11875 -11449 -9569 6569
5003 25682 11879 -11447 -9571 6562
5002 25673 11879 -11459 -9557 6568
5000 25663 11875 -11464 -9540 6562
4999 25647 11871 -11447 -9543 6550
4999 25651 11874 -11448 -9552 6547
4998 25646 11872 -11469 -9553 6555
4998 25652 11872 -11477 -9548 6563
4999 25658 11874 -11469 -9554 6576
5003 25677 11876 -11454 -9554 6580
5006 25707 11881 -11444 -9543 6574
5010 25743 11887 -11449 -9542 6554
5009 25741 11884 -11461 -9559 6554
5009 25741 11882 -11470 -9567 6549
5009 25737 11882 -11474 -9562 6531
5009 25729 11881 -11469 -9565 6527
5005 25713 11879 -11461 -9572 6529
5000 25671 11874 -11455 -9571 6532
4997 25642 11868 -11458 -9572 6542
4998 25641 11870 -11463 -9584 6550
5000 25641 11871 -11450 -9566 6555
4998 25646 11870 -11444 -9549 6552
4998 25644 11870 -11459 -9548 6560
4998 25650 11869 -11465 -9541 6569
5000 25656 11868 -11463 -9537 6567
5001 25667 11871 -11459 -9530 6564
5002 25671 11870 -11464 -9542 6561
4999 25671 11869 -11473 -9552 6554
5000 25668 11867 -11475 -9549 6544
5000 25667 11869 -11481 -9556 6548
5000 25671 11869 -11450 -9550 6558
4999 25671 11871 -11455 -9552 6552
4994 25665 11869 -11462 -9568 6566
4988 25671 11873 -11457 -9572 6575
4977 25659 11867 -11452 -9565 6562
4967 25663 11870 -11466 -9542 6562
4967 25659 11867 -11476 -9530 6558
4975 25663 11868 -11471 -9537 6559
4985 25662 11866 -11469 -9537 6570
5002 25670 11869 -11451 -9554 6576
5036 25670 11867 -11454 -9558 6558
5065 25679 11868 -11460 -9555 6547
5062 25672 11867 -11461 -9566 6548
5060 25673 11867 -11454 -9570 6548
5052 25671 11867 -11465 -9559 6544
5034 25668 11866 -11478 -9565 6546
5002 25662 11866 -11476 -9569 6537
4969 25659 11867 -11472 -9553 6529
4966 25657 11866 -11439 -9553 6547
4965 25658 11866 -11447 -9556 6554
4965 25653 11866 -11458 -9555 6553
4967 25658 11867 -11461 -9537 6555
4973 25650 11861 -11460 -9531 6557
4985 25671 11873 -11453 -9541 6565
4994 25651 11858 -11452 -9548 6563
4999 25665 11866 -11461 -9556 6554
4997 25658 11861 -11464 -9551 6558
5004 25660 11864 -11453 -9570 6545
5008 25659 11861 -11439 -9579 6555
5007 25657 11861 -11442 -9567 6554
5007 25657 11860 -11451 -9566 6532
5005 25659 11861 -11460 -9567 6528
5004 25656 11861 -11466 -9565 6536
4996 25659 11859 -11475 -9569 6538
4989 25655 11858 -11485 -9579 6545
4991 25657 11858 -11483 -9575 6547
4992 25651 11853 -11482 -9557 6548
4992 25655 11855 -11468 -9563 6554
4993 25654 11855 -11441 -9562 6562
4994 25654 11856 -11432 -9551 6564
4995 25653 11857 -11447 -9553 6549
4997 25656 11860 -11467 -9561 6542
4996 25654 11865 -11471 -9559 6541
4995 25654 11867 -11469 -9551 6542
4997 25653 11865 -11468 -9552 6537
4999 25653 11864 -11460 -9548 6538
4998 25652 11859 -11464 -9547 6548
4997 25654 11854 -11470 -9549 6549
4998 25653 11854 -11441 -9556 6559
4998 25653 11856 -11459 -9556 6549
4996 25651 11853 -11471 -9552 6543
4998 25654 11852 -11469 -9554 6542
4995 25650 11856 -11461 -9548 6547
4997 25652 11855 -11468 -9546 6551
4996 25650 11856 -11468 -9554 6563
4996 25651 11857 -11463 -9557 6570
4996 25652 11856 -11463 -9560 6571
4994 25645 11854 -11451 -9554 6566
4997 25656 11858 -11429 -9534 6567
4996 25642 11844 -11439 -9517 6565
5000 25649 11843 -11457 -9519 6562
4995 25640 11826 -11457 -9533 6554
4997 25647 11824 -11467 -9544 6553
4995 25642 11821 -11474 -9544 6548
4995 25644 11828 -11477 -9541 6538
4995 25645 11840 -11483 -9559 6540
4995 25648 11865 -11483 -9570 6535
4996 25653 11897 -11468 -9563 6534
4997 25653 11919 -11446 -9556 6543
4997 25652 11918 -11439 -9554 6546
4996 25652 11916 -11450 -9547 6528
4996 25653 11912 -11457 -9548 6527
4995 25652 11904 -11456 -9563 6543
4995 25648 11889 -11458 -9560 6554
4995 25642 11842 -11476 -9540 6548
4995 25638 11820 -11481 -9541 6542
4995 25640 11823 -11467 -9547 6550
4995 25641 11824 -11461 -9541 6554
4997 25640 11822 -11431 -9556 6562
4996 25637 11828 -11445 -9540 6557
4995 25641 11840 -11462 -9532 6551
4994 25642 11851 -11482 -9552 6533
4995 25645 11851 -11495 -9569 6519
4994 25637 11848 -11499 -9568 6514
4994 25644 11851 -11488 -9570 6530
4991 25635 11845 -11485 -9563 6540
4993 25629 11846 -11490 -9554 6543
4993 25625 11847 -11461 -9541 6554
4990 25608 11843 -11431 -9556 6562
4990 25601 11841 -11445 -9540 6557
4990 25609 11847 -11462 -9532 6551
4990 25613 11845 -11482 -9552 6533
4992 25620 11846 -11495 -9569 6519
4994 25637 11848 -11499 -9568 6514
4998 25667 11853 -11488 -9570 6530
5001 25690 11854 -11485 -9563 6540
5001 25698 11854 -11490 -9554 6543
4989 25596 11837 -11471 -9546 6546
4988 25599 11836 -11473 -9550 6546
4989 25609 11837 -11475 -9550 6545
4991 25622 11839 -11472 -9552 6558
4990 25620 11838 -11474 -9561 6568
4988 25620 11837 -11487 -9552 6561
4989 25619 11837 -11501 -9550 6554
4990 25620 11837 -11497 -9561 6547
4986 25605 11832 -11472 -9558 6546
4980 25542 11872 -11440 -9548 6550
4997 25643 11902 -11437 -9546 6556
4962 25505 11750 -11459 -9548 6559
5016 25774 11958 -11473 -9554 6551
4966 25503 11782 -11481 -9557 6536
4993 25636 11943 -11474 -9558 6537
5046 25827 12142 -11471 -9561 6551
5018 25592 12175 -11502 -9496 6555
5054 25689 12433 -11546 -9408 6533
5047 25515 12532 -11239 -9860 6673
4675 23423 11692 -11251 -9830 6602
704 2154 1905 -7935 -12164 7414
651 1879 1815 -6811 -12702 7518
647 1751 1932 -5380 -13747 7921
756 2018 2352 -3882 -13944 7563
805 2073 2522 -566 -15114 5349
835 2171 2622 2306 -16867 2867
808 2185 2416 2092 -16707 1874
734 2071 2056 935 -16354 1561
666 1923 1827 1920 -16167 1491
571 1663 1521 1968 -16144 806
487 1386 1222 1848 -16555 -558
433 1186 1039 2360 -16883 -2346
387 1048 894 2480 -17206 -3252
403 1115 960 1945 -17324 -3236
396 1072 954 2667 -16986 -3836
394 1030 941 3245 -17068 -4166
398 1031 955 3268 -17264 -3786
379 910 875 3882 -16741 -3281
387 900 897 4501 -15426 -2242
405 924 949 4738 -14274 -1142
414 931 987 4696 -16873 -378
449 980 1102 4155 -17964 107
551 1152 1333 2478 -16243 -1014
698 1451 1627 101 -16692 -3602
934 1972 2200 -667 -16217 -5974
1298 2722 3028 182 -15226 -7189
1267 2646 2883 643 -14996 -7398
1238 2596 2801 937 -15044 -7169
1311 2784 2895 1286 -15481 -6328
1280 2693 2769 2182 -15014 -6641
1238 2549 2681 2781 -13653 -8500
976 1966 2135 1940 -12962 -9928
570 1137 1253 2692 -12542 -10412
389 793 907 3689 -12269 -10502
364 806 917 3445 -12181 -10744
386 966 1016 3827 -11932 -10930
349 871 928 3887 -11795 -11092
455 1095 1319 3795 -11876 -11181
337 832 848 4389 -13021 -9905
278 626 677 4994 -13767 -8946
288 656 762 4714 -13512 -8793
588 1289 1568 3540 -14398 -6941
502 1007 963 2758 -16026 -4687
247 586 646 3192 -13355 -4646
226 477 518 6953 -14903 -6107
231 475 510 7801 -23373 -6240
232 491 520 9443 -28239 -5942
226 477 508 14227 -27187 -5570
226 491 520 13599 -24535 -2634
246 535 588 11125 -25576 138
247 553 610 9222 -28372 -709
252 584 658 8543 -26480 -2166
279 665 753 8406 -23051 -3018
262 632 700 8098 -21229 -4290
287 736 854 7648 -15697 -4355
297 756 852 6745 -10008 -1903
261 641 711 6820 -6757 1201
261 638 702 7726 -4129 3558
244 563 589 8375 -1374 8437
234 533 553 8557 558 10230
226 505 519 8509 245 11328
217 469 468 7852 952 12941
211 446 440 7518 2478 13713
208 437 431 7085 2351 13462
209 433 429 5836 3988 13836
208 430 426 5456 5162 12982
206 427 428 5179 5657 11879
213 433 466 4768 6786 11361
228 446 563 5263 7265 9842
264 476 751 5796 7522 8090
327 569 1101 6507 7978 6605
418 798 1594 8019 8587 5210
555 1227 2351 9422 7858 4086
685 1692 3021 10803 5249 3022
807 2060 3661 12488 3110 2312
1167 3086 5536 13762 1931 2148
1604 4302 7578 14677 -25 1846
1633 4389 7599 15477 -3816 803
1556 4266 7301 15608 -4305 639
1841 5315 8743 15411 -4781 136
1949 5691 9142 15231 -8060 -1195
2007 5887 9409 15176 -10423 -1774
2251 6983 10599 15215 -10304 -1412
2913 9587 13840 14406 -11191 -1635
4406 14978 21084 12757 -15118 -2752
9313 32251 43981 10678 -17060 -2900
29573 100492 128236 8642 -16287 -1832
75311 289893 317585 6362 -14532 -115
82065 315604 340699 4097 -12126 1288
44842 140162 167840 2598 -9915 1766
16716 48983 68071 1673 -6780 2200
14057 42113 60456 1910 -3706 3121
13605 38837 56598 3456 -719 4669
9569 26607 40980 7090 1218 7398
5200 12558 21960 13147 1717 12507
1710 2591 7031 15431 1967 13022
897 1392 3875 11764 3327 9323
734 1439 2858 8550 4730 7050
406 949 1323 7456 6916 5917
621 1656 2431 6554 9137 7959
1972 6864 8185 6187 6492 8074
21478 55446 62987 5898 2751 6879
83297 250652 279816 7369 -265 11169
71317 189837 246871 10240 -3544 16274
50332 140667 183263 12318 -8566 14399
61501 275310 299151 12247 -17804 5664
54410 250470 269589 8878 -25763 -2805
24569 115388 131072 5180 -31246 53
1163 3195 5106 3093 -30620 3208
753 1534 3017 4666 -28885 -3838
438 776 1576 2590 -20592 2542
293 722 914 3590 -13615 6878
267 665 764 4433 -17675 4015
279 594 807 5279 -21415 268
243 521 584 6237 -20219 -1554
220 471 480 4697 -17090 1281
210 440 446 6177 -5684 8079
212 450 464 4763 -1157 9112
207 433 430 5738 -1836 3719
206 424 418 6445 -9332 -3038
205 431 430 1599 -17940 -3165
217 440 463 -3151 -15640 549
247 461 504 -62 -11370 -2236
247 470 538 2202 -12472 -4628
255 499 595 -2115 -12566 -1292
259 492 609 -371 -18267 -5693
245 473 597 1218 -19231 -8442
268 514 767 1528 -20832 -9756
344 663 1186 1785 -22244 -10572
427 842 1577 2729 -23424 -10952
441 876 1609 2045 -23298 -9596
352 679 1159 1003 -21874 -8001
283 549 812 995 -19060 -7072
253 515 649 1294 -16000 -6268
244 510 596 1435 -13155 -5501
250 528 643 430 -13598 -5297
284 582 819 -665 -14784 -5775
325 641 1037 -1311 -16814 -6809
366 694 1255 -1768 -18153 -7400
427 796 1565 -1604 -17024 -7505
513 963 1958 -956 -14037 -7013
560 1096 2102 -652 -11089 -5737
599 1249 2190 -575 -9371 -4606
500 1173 1708 -332 -9380 -4306
527 1291 1925 21 -11057 -4781
475 1274 1701 379 -13687 -5626
357 914 1150 1041 -16427 -6745
342 814 1093 2728 -19932 -6875
298 641 849 4719 -23018 -6050
254 505 628 5191 -22295 -6053
210 430 424 -470 -15740 -7274
209 432 427 -1143 -16308 -7188
211 433 430 -1298 -15872 -7154
214 436 440 -1286 -14549 -6773
216 443 457 -1208 -13502 -6589
219 446 466 -1007 -14416 -7170
225 456 501 -855 -14851 -7547
235 475 564 -475 -14950 -7858
247 495 624 -412 -15114 -7881
267 530 718 -570 -14758 -7558
297 595 859 -400 -14103 -7330
308 619 900 -272 -13726 -7227
294 593 827 -323 -13371 -7085
287 589 796 79 -12535 -7222
285 591 784 -165 -12944 -7278
286 597 788 -397 -13880 -7497
286 606 795 -486 -14576 -7654
281 596 761 -636 -14516 -7384
265 560 682 -595 -14100 -7032
250 533 623 -358 -13849 -6966
238 506 565 -253 -13983 -6949
228 485 526 -293 -14290 -6988
223 471 501 -365 -14793 -6985
219 456 472 -490 -14661 -6826
216 445 451 -457 -14732 -6992
213 441 440 -532 -15167 -7334
211 441 435 -826 -15497 -7489
212 437 432 -1094 -15223 -7286
213 438 431 -1350 -14356 -6797
219 451 439 -1612 -13498 -6216
1191 4432 3622 2518 -26349 -10184
1576 6041 4587 2961 -28575 -10955
2013 8000 5311 1519 -26729 -8625
3850 15139 10565 1889 -22303 -7400
6721 26703 19538 2951 -19025 -6960
13221 54308 44878 2411 -17947 -5964
38590 147417 145333 2080 -17719 -5561
30584 119141 110065 -499 -17916 -2401
21855 86867 73995 -3544 -18333 375
22964 90493 81596 -2566 -17754 -987
28844 110070 100503 -260 -16515 -3429
26167 106379 96435 376 -16830 -5311
40994 166488 167780 -37 -18049 -6286
56216 220160 233219 41 -18417 -6979
51693 193766 197046 -1517 -18836 -6080
7612 34652 28764 -5080 -19421 -4026
276 702 578 -5129 -20016 -4384
234 507 477 -1879 -19711 -6879
224 478 471 -432 -17616 -7417
219 462 462 -576 -14748 -6164
213 451 444 -914 -12221 -4863
213 444 432 -864 -11053 -4363
211 441 430 -809 -13607 -5298
211 442 427 -254 -14805 -6433
212 440 422 127 -15550 -7206
215 442 431 -361 -16217 -6935
216 448 444 -839 -15682 -6136
218 454 457 -540 -13951 -5436
216 451 452 -369 -11817 -4701
215 447 446 -490 -10431 -4255
210 440 431 -490 -10716 -4573
211 441 432 -970 -14681 -5858
213 450 439 -908 -16017 -6583
217 458 452 -656 -16338 -7065
219 467 464 -444 -15786 -7112
219 468 470 46 -15289 -7267
217 463 463 297 -15577 -7471
216 456 453 -137 -16713 -7346
215 457 455 -530 -17812 -7365
215 456 456 -512 -18291 -7638
214 456 455 -636 -18656 -7719
216 461 466 -744 -18950 -7661
221 478 490 -274 -18547 -7782
226 497 522 238 -17107 -7521
233 512 551 244 -15080 -6485
234 508 548 31 -13469 -5500
231 497 531 -244 -12801 -5079
225 477 500 -521 -13218 -5285
223 473 489 -613 -14445 -6073
223 469 481 -595 -15562 -6919
226 473 494 -607 -16065 -7454
228 472 498 -663 -15817 -7638
226 466 493 -850 -15123 -7499
221 456 472 -1212 -14652 -7214
217 451 459 -1493 -15032 -7201
215 448 453 -1447 -16239 -7610
214 447 450 -1090 -17673 -8257
213 447 450 -751 -18725 -8766
213 444 447 -880 -19267 -8716
217 451 463 -1201 -19580 -8323
227 464 499 -862 -19211 -8158
227 463 504 -109 -18169 -8130
222 452 479 196 -17316 -7723
217 445 461 243 -17447 -7366
215 439 450 391 -18107 -7541
214 436 446 365 -17586 -7280
214 435 452 -26 -15055 -5856
209 433 441 -185 -12436 -4568
210 431 440 154 -11939 -4495
212 431 446 390 -11985 -4494
221 439 492 330 -10479 -3355
236 459 579 281 -5180 234
269 502 788 540 -3809 1701
465 778 1934 1507 -3579 2542
3735 8075 18250 10386 -10185 2258
28610 60657 111146 22330 -16998 4446
35147 84765 137918 25268 -19752 4291
4145 12849 17584 19898 -23012 1094
986 3072 4456 12398 -26230 -1040
864 3045 4015 9783 -26957 -4505
887 3115 4154 330 -10479 -3355
954 3207 4505 281 -5180 234
1160 4111 5683 540 -3809 1701
1392 4858 6848 1507 -3579 2542
1538 5058 7481 10386 -10185 2258
1598 5639 7982 22330 -16998 4446
1387 4972 6895 25268 -19752 4291
1221 4372 6097 19898 -23012 1094
1178 4311 5862 12398 -26230 -1040
1131 4122 5603 9783 -26957 -4505
1115 4048 5567 6885 -19321 -4092
1229 4524 6244 5816 -17076 -3164
1405 5178 7262 6423 -16931 -3102
1424 5223 7303 5791 -17802 -1677
1341 4893 6801 5681 -17652 -693
1229 4404 6110 6456 -17349 -1210
1111 3901 5372 6353 -17318 -1467
967 3232 4452 6678 -17204 -1816
819 2590 3591 7334 -16725 -2300
735 2309 3150 6977 -16385 -2258
683 2140 2888 6684 -16943 -2247
646 1983 2694 6765 -17191 -1888
603 1792 2450 6597 -17090 -1444
534 1536 2084 6322 -17965 -2043
482 1393 1840 5716 -17763 -2945
458 1315 1729 4941 -16080 -3752
457 1287 1707 4382 -16051 -5035
427 1143 1525 3402 -17562 -6139
408 1042 1401 2348 -18372 -6853
384 954 1275 1858 -17646 -7453
370 865 1182 1387 -16427 -7676
343 764 1056 740 -15649 -7627
325 704 975 -50 -15442 -7477
302 639 863 -528 -15716 -7589
276 572 750 -428 -15816 -7966
263 533 679 -294 -15330 -8173
257 523 658 -462 -15010 -8171
253 512 640 -970 -14943 -8030
249 508 635 -1377 -14727 -7976
251 509 640 -1374 -14506 -8171
251 510 638 -1419 -14250 -8340
248 499 625 -1601 -14021 -8417
245 493 614 -1627 -13897 -8662
244 488 609 -1749 -14069 -8884
242 477 593 -2199 -14331 -8845
246 493 614 -2540 -14479 -8771
249 502 630 -2519 -14294 -8815
244 487 601 -2482 -13796 -8747
241 483 565 -2550 -13174 -8530
233 471 532 -2445 -12574 -8421
235 473 545 -2315 -12108 -8399
253 507 611 -2508 -11714 -8257
267 538 675 -2728 -11512 -8079
264 528 667 -2712 -11538 -8090
261 519 657 -2634 -11886 -8244
263 526 670 -2401 -12264 -8445
272 546 708 -1899 -12210 -8621
280 567 750 -1736 -12009 -8371
287 590 786 -2213 -12081 -7754
290 601 806 -2844 -12788 -7253
284 585 774 -2496 -14279 -7380
270 559 721 -1449 -14565 -7924
259 537 668 -1091 -14765 -8037
249 515 616 -1347 -15149 -7805
238 488 566 -1494 -15488 -7704
229 467 526 -1426 -15401 -7633
227 460 513 -1351 -14955 -7419
222 451 489 -1109 -14624 -7320
218 444 470 -773 -14289 -7440
217 445 466 -1019 -14007 -7573
219 449 476 -1364 -14734 -7872
218 449 478 -1406 -15685 -8552
221 454 495 -1376 -16172 -9106
222 462 510 -1824 -16039 -8840
222 466 514 -2315 -15145 -8308
222 469 516 -2485 -14274 -7995
223 473 521 -2907 -13973 -7674
224 468 507 -3300 -14293 -7604
221 458 483 -2901 -14655 -8294
220 457 477 -3044 -14189 -8110
221 459 486 -2846 -13563 -8028
223 462 500 -2574 -13507 -8234
224 468 517 -2471 -14211 -8661
228 475 528 -1988 -15282 -9525
230 476 535 -1393 -16159 -10581
231 482 551 -1526 -16789 -10916
237 495 580 -2356 -16933 -10424
246 512 626 -2842 -16714 -9950
255 535 679 -2645 -16419 -9832
266 554 720 -2207 -16142 -9773
275 568 750 -1801 -15808 -9524
279 583 773 -1646 -15654 -9054
281 589 786 -1695 -16060 -8598
276 575 760 -1645 -16806 -8394
265 553 710 -1423 -17334 -8236
256 532 657 -1159 -17099 -7827
245 508 610 -907 -16441 -7304
238 497 583 -744 -15844 -6868
236 491 573 -686 -15420 -6513
233 486 560 -512 -15169 -6351
233 485 557 -299 -14907 -6335
237 496 584 -344 -14700 -6314
251 533 642 -569 -14765 -6457
255 557 671 -849 -15243 -6876
287 626 837 -1202 -15863 -7365
278 577 796 -1457 -16145 -7747
309 644 947 -1576 -15851 -7961
309 657 930 -1719 -15243 -7962
293 607 842 -4585 -10694 -10291
290 606 827 -6216 -8620 -14282
310 648 917 -3206 -11325 -14854
295 601 824 -797 -11636 -11801
267 538 692 -799 -10402 -7348
256 521 634 -917 -9780 -4967
258 540 655 -251 -10313 -4961
261 545 676 -308 -12421 -5371
264 544 704 -708 -14009 -5591
268 545 712 -121 -13022 -5700
271 563 736 -769 -13227 -5344
261 565 689 -1446 -14496 -5548
248 572 618 -1255 -15529 -6323
260 634 598 -772 -15204 -6505
377 1053 754 -793 -13676 -5566
404 1078 1369 -997 -12412 -4322
481 1444 1438 -770 -11984 -3704
1603 4331 2022 -388 -11857 -3565
1437 3967 1647 -323 -11936 -3227
2069 5990 2584 -362 -11616 -2709
10417 30792 17955 -2233 -13358 -1295
4193 16570 7022 29 -11457 975
3599 15404 6620 5223 -4399 2460
2453 10639 3490 3406 -1338 3874
3710 15945 7463 -1448 -2743 3361
9885 40321 28594 -42 -3411 682
27211 99743 81961 -3660 -3266 5054
65349 196083 181325 -9540 -2303 8637
89967 246625 239407 -9834 -101 4334
93135 257658 250107 -11447 -1286 -628
107718 281245 273515 -11409 -4719 -4529
132419 320715 321628 -12130 -5347 -3625
165141 379106 381301 -12033 -3752 505
148797 347315 342834 -9797 -4695 4898
155582 364276 361035 -6945 -7852 11448
157074 370726 359561 -3419 -8821 14486
137229 328470 316562 18 -9244 13539
139086 334546 323604 1801 -9705 13476
137219 329633 317562 3351 -8477 13886
136810 329742 318056 3127 -7297 15444
136089 327503 315625 1834 -6914 15091
136412 328466 316611 950 -6863 14877
139976 336917 324988 -296 -6703 15473
146255 351017 338202 -447 -6810 14843
148706 356728 343212 -638 -6947 14989
148491 356509 342825 -1145 -7043 14794
148607 356781 343171 -1369 -7108 14657
148774 357007 343310 -1301 -7164 14730
148903 357314 343683 -1684 -7082 14591
149579 358916 345251 -1688 -7075 14636
148175 355550 342014 -1392 -7140 14686
149318 357727 343953 -1531 -6978 14838
148477 355796 342444 -1635 -6872 14865
148912 356035 342798 -1653 -6832 14830
150302 357993 345901 -1645 -6815 14802
152333 361476 350480 -1629 -6845 14783
152047 360293 349345 -1601 -6815 14949
152897 362015 351402 -1654 -6788 14908
152230 358139 349053 -1707 -6818 14730
157818 366213 364780 -1694 -6877 14771
171577 389832 393320 -1511 -6905 14791
174869 392747 399685 -1116 -6985 14869
171193 430601 393554 -908 -6165 15059
190445 457228 433587 -482 -6147 15374
191559 446515 435188 -1077 -6662 15263
183538 425958 418796 -1759 -7251 14674
162862 384881 372747 -2117 -6309 14879
175341 412530 414618 -1402 -4106 15750
230868 514889 523630 -671 -4845 15707
232696 520615 524287 -187 -6051 15258
236990 524287 524287 -162 -7092 14924
230176 514756 523308 76 -6828 14595
216866 485967 506785 1368 -6144 14868
204889 462908 482954 1743 -5843 15698
217142 487910 510276 -336 -4729 15588
222758 497381 519917 -2438 -3530 15425
222377 496656 519212 -2370 -4062 15673
222237 496377 518936 -1494 -5366 15480
222088 496082 518656 -1597 -5753 14852
222010 495932 518499 -1731 -5592 15083
221921 495803 518347 -1569 -5513 15511
222103 496278 518781 -1603 -5497 15438
224161 501008 522659 -1629 -5475 15410
227005 506954 524287 -1647 -5472 15406
224447 501163 523267 -1654 -5464 15406
224778 502153 524011 -1662 -5451 15401
221428 496528 514297 -1632 -5509 15384
226763 508540 519607 -1782 -5380 15369
245259 524287 524287 -1938 -5175 15384
252305 524287 524287 -1818 -5279 15413
247962 524287 524287 -1717 -5404 15421
246392 524287 524287 -2137 -5223 15524
248473 524287 524287 -2210 -4952 15448
253642 524287 524287 -2338 -4460 15437
254609 524287 524287 -2967 -4021 15570
252674 524287 524287 -3194 -3989 15401
259607 524287 524287 -3055 -4240 15435
267600 524287 524287 -3366 -3767 15591
253163 524287 524287 -3454 -3719 15564
235573 515416 518890 -3454 -3674 15555
188482 423517 421150 -3402 -3560 15651
80821 190350 181590 -3856 -2864 15996
207 429 432 3274 -8388 -14541
210 438 436 233 -6644 -12499
210 442 437 -1098 -12292 -8558
210 439 443 3509 -15767 -11972
212 443 445 178 -18211 -10239
209 436 436 -375 -19001 -9850
208 432 426 2017 -18024 -11375
206 431 422 1788 -17188 -11249
206 431 420 145 -16978 -9954
204 428 416 -300 -16118 -9180
205 428 414 246 -14633 -8997
204 430 418 540 -13889 -8845
204 432 425 -994 -14246 -7879
205 434 426 -116 -13507 -7939
208 438 437 378 -12005 -7669
213 441 443 452 -11192 -7155
216 441 442 937 -10242 -6993
217 445 450 1104 -9528 -6768
219 449 457 753 -9283 -6287
218 444 452 896 -8638 -6018
257 800 554 -3553 1470 -14905
233 517 561 -5019 -2588 -13525
233 495 557 -532 -1252 -16754
230 492 542 1566 -1187 -16740
227 500 524 1534 -1453 -16583
224 548 500 1239 -1700 -16460
236 774 468 1437 -1250 -16658
259 962 434 669 -991 -16704
239 810 433 -1385 -1055 -16276
235 795 429 -1852 -771 -16237
249 915 428 -857 -725 -16525
245 896 450 -1665 -382 -16414
230 801 483 -1517 -5 -16459
219 702 511 -1150 342 -16504
211 582 503 -882 312 -16468
212 471 512 -645 284 -16377
215 453 543 1218 319 -16479
219 448 545 3448 460 -16490
221 438 522 3393 354 -16496
229 451 521 3090 349 -16726
237 456 491 7500 631 -14566
246 241 158 8589 721 -13838
252 94 0 9155 406 -13490
272 150 0 10123 159 -12822
300 286 0 11150 364 -11721
324 480 285 13000 344 -9665
340 716 992 14923 828 -7752
312 737 1051 14397 889 -8013
276 570 805 12249 538 -9936
251 459 648 9915 1458 -12780
230 422 566 8083 1384 -14582
213 414 519 8096 344 -14223
158 344 366 10195 638 -12687
83 163 160 11453 2033 -11676
57 120 93 9470 2713 -12984
131 286 249 5952 1807 -15166
158 339 321 4755 1862 -15904
147 320 298 6283 1964 -15228
189 407 432 7604 1445 -14387
213 423 458 7643 1733 -14575
212 433 466 7325 1787 -14998
210 431 463 7561 1495 -14746
211 430 463 7956 1475 -14434
211 429 458 8192 1732 -14359
209 424 445 7881 1801 -14548
208 422 433 7156 1986 -14985
206 419 424 6490 1814 -15413
208 418 429 6367 2362 -15312
212 420 434 6356 2859 -15395
211 416 443 6583 1159 -15319
209 415 455 8118 1711 -13956
208 416 457 9205 2708 -13162
209 418 459 8151 1985 -14089
212 421 460 6783 2218 -15167
218 431 460 6953 2144 -15025
225 439 461 7791 2125 -14417
227 445 463 7810 2233 -14455
230 450 457 7142 2182 -14992
224 443 450 6788 2082 -15260
213 426 450 7110 2075 -15054
196 399 455 7387 1978 -14855
200 396 460 7289 2032 -14933
198 394 465 7342 1990 -14928
198 395 472 7488 1970 -14817
203 402 472 7326 1993 -14933
209 414 475 7215 1969 -15003
216 425 474 7430 1978 -14794
214 423 472 7286 2040 -14871
215 432 474 6513 1961 -15287
216 442 484 6451 1971 -15294
213 446 473 6669 2068 -15212
206 441 468 6497 2077 -15333
195 442 465 6930 1929 -15088
178 445 468 7343 1829 -14865
159 453 475 7186 1953 -15007
164 449 466 7133 1807 -15050
169 442 455 7660 1078 -14882
180 444 455 7687 1049 -15179
204 446 456 7287 2783 -15204
233 445 455 4624 6974 -13624
251 444 449 3586 6723 -14301
250 441 447 3587 6519 -14500
244 443 446 5286 5796 -14707
242 442 445 5888 6985 -13802
235 443 443 5454 7119 -13902
223 442 441 4419 6539 -14653
200 440 441 4011 6737 -14640
196 441 441 4772 6966 -14355
198 439 440 5294 6989 -14251
198 440 438 4962 6998 -14339
195 436 438 4557 6917 -14493
202 439 438 4671 6909 -14474
208 438 441 4912 6982 -14377
211 442 444 4869 6964 -14389
210 444 449 4732 6920 -14441
210 445 451 4723 6929 -14453
211 446 453 4744 6965 -14438
213 448 455 4695 6966 -14442
214 451 457 4711 6957 -14442
214 454 458 4821 6958 -14403
215 458 460 4811 6952 -14398
217 461 469 4721 6956 -14427
218 466 473 4717 6935 -14452
218 469 478 4756 6916 -14452
219 474 483 4798 6907 -14440
221 478 490 4716 6915 -14448
222 481 494 4632 6907 -14471
222 485 497 4706 6916 -14462
223 489 503 4731 6925 -14462
222 491 505 4659 6963 -14427
223 492 507 4516 6977 -14436
223 495 507 4514 6849 -14519
225 495 503 4851 6554 -14622
226 498 504 5293 6445 -14582
225 499 506 5158 6760 -14397
227 500 507 4737 6810 -14479
227 502 510 4663 6807 -14507
225 503 516 4789 6869 -14421
227 507 529 4684 6864 -14445
227 511 547 4695 6863 -14469
227 513 557 4708 6853 -14486
228 513 556 4716 6862 -14488
228 514 553 4677 6879 -14484
228 514 546 4634 6938 -14449
227 512 532 4619 6962 -14416
227 508 509 4612 6902 -14412
226 504 476 4630 6910 -14430
228 507 476 4725 6951 -14417
226 504 467 4781 6790 -14463
224 497 450 4833 6779 -14417
225 497 444 4964 6826 -14359
222 494 439 4988 6759 -14375
224 496 443 4953 6737 -14374
223 499 443 5194 6606 -14360
223 496 438 5397 6609 -14251
222 497 436 5799 6297 -14285
222 502 436 6178 6102 -14278
223 505 434 6220 6200 -14183
223 504 428 6619 5652 -14336
221 498 413 6639 5743 -14278
218 482 387 6371 6214 -14150
215 460 347 6373 6185 -14200
217 479 360 6395 6244 -14175
223 507 383 6308 6375 -14150
231 545 405 6248 6460 -14141
246 616 474 6152 6626 -14061
271 742 604 6050 6745 -14021
304 915 813 6122 6590 -14107
343 1102 994 6136 6531 -14122
342 1095 962 6127 6603 -14099
344 1114 1008 6189 6643 -14077
322 1007 885 6045 6727 -14076
295 858 741 5767 6739 -14169
268 717 619 5652 6685 -14252
256 648 591 5770 6638 -14259
246 589 560 5747 6647 -14257
236 539 537 5587 6606 -14314
235 547 563 5550 6622 -14311
248 607 624 5549 6654 -14300
269 704 728 5567 6629 -14315
270 778 881 5925 6278 -14224
279 779 873 6399 6081 -14173
281 774 860 6041 6332 -14209
290 772 851 6033 6470 -14156
305 778 845 6039 6425 -14206
313 782 840 6183 6317 -14233
307 773 836 6269 6174 -14308
306 766 832 6133 6366 -14213
315 761 826 6072 6443 -14186
308 747 816 6061 6452 -14210
296 730 805 6069 6428 -14229
282 715 795 6109 6349 -14256
263 692 783 6162 6270 -14291
264 686 770 6196 6217 -14309
263 677 756 6185 6231 -14304
263 668 742 6132 6321 -14269
263 662 732 6083 6403 -14236
267 663 730 6077 6403 -14235
266 662 733 6109 6345 -14260
266 663 733 6138 6304 -14298
267 658 730 6149 6289 -14299
267 660 738 6148 6281 -14290
268 662 741 6149 6292 -14295
268 665 747 6142 6312 -14297
270 666 752 6123 6328 -14290
268 669 756 6119 6342 -14284
268 671 759 6113 6348 -14277
269 668 755 6103 6343 -14271
271 657 741 6123 6321 -14286
282 645 725 6151 6303 -14302
279 635 711 6159 6309 -14298
282 627 701 6143 6314 -14292
287 618 691 6108 6321 -14283
278 610 683 6090 6333 -14269
254 603 674 6100 6329 -14272
236 598 667 6123 6316 -14282
235 595 661 6136 6315 -14276
234 592 658 6120 6313 -14270
239 590 656 6109 6311 -14274
246 587 653 6113 6318 -14272
250 586 656 6114 6326 -14264
249 585 653 6118 6328 -14264
249 586 654 6122 6317 -14274
249 584 651 6130 6309 -14283
250 581 652 6133 6308 -14284
251 580 653 6124 6313 -14280
250 582 653 6112 6320 -14279
251 580 655 6057 6337 -14268
250 582 649 6076 6309 -14274
249 582 644 6092 6292 -14295
251 580 646 6086 6288 -14308
250 580 647 6082 6288 -14303
249 580 646 6091 6294 -14298
251 581 646 6104 6317 -14299
251 581 648 6105 6332 -14288
250 582 652 6101 6323 -14288
249 583 652 6067 6332 -14263
249 583 651 6081 6335 -14265
250 582 652 6096 6330 -14286
250 582 651 6099 6322 -14291
250 584 653 6101 6318 -14283
250 581 649 6118 6323 -14289
249 579 648 6118 6323 -14293
248 579 647 6115 6322 -14295
248 578 647 6113 6330 -14294
248 578 646 6076 6360 -14283
249 576 640 6079 6356 -14288
250 576 638 6091 6336 -14292
249 576 639 6092 6323 -14297
250 576 645 6091 6320 -14293
249 579 652 6087 6323 -14296
248 582 669 6091 6319 -14307
249 582 676 6095 6311 -14300
249 581 679 6093 6308 -14305
250 582 677 6079 6324 -14298
250 583 676 6065 6332 -14294
248 582 671 6068 6316 -14305
249 580 660 6072 6306 -14312
250 578 643 6077 6312 -14324
249 576 632 6076 6308 -14336
249 579 635 6072 6294 -14342
251 580 638 6072 6290 -14338
248 579 637 6064 6296 -14339
251 579 637 6058 6300 -14344
249 578 639 6054 6304 -14338
248 576 637 6050 6314 -14322
247 575 639 6058 6319 -14304
246 573 642 6071 6313 -14296
248 572 638 6078 6308 -14293
248 568 635 6078 6310 -14294
246 564 631 6075 6309 -14306
245 563 630 6074 6315 -14314
244 562 626 6068 6322 -14317
245 558 622 6061 6315 -14323
244 559 621 6052 6312 -14305
243 557 619 6033 6311 -14292
244 555 617 6038 6312 -14304
244 556 618 6060 6309 -14323
244 557 619 6063 6291 -14324
245 561 623 6053 6294 -14316
246 563 627 6049 6306 -14320
245 569 631 6060 6305 -14314
247 576 637 6067 6309 -14314
247 579 639 6061 6315 -14317
245 574 637 6058 6319 -14318
245 572 635 6034 6322 -14325
245 570 633 6001 6320 -14322
244 565 627 6008 6304 -14322
244 559 622 6027 6286 -14337
243 558 619 6031 6276 -14352
243 552 618 6031 6275 -14354
245 550 610 6036 6291 -14351
244 547 603 6050 6302 -14344
242 543 601 6052 6303 -14338
240 542 599 6041 6307 -14341
241 543 601 6000 6298 -14328
241 547 605 6009 6296 -14318
241 547 605 6032 6298 -14324
240 547 605 6050 6307 -14324
239 547 606 6056 6323 -14312
241 549 606 6061 6332 -14304
241 551 611 6066 6337 -14291
242 553 615 6078 6336 -14300
240 552 618 6075 6327 -14304
235 547 619 6035 6344 -14289
232 542 622 6037 6339 -14292
235 549 628 6039 6321 -14305
241 562 640 6040 6316 -14311
252 578 649 6053 6317 -14319
266 603 652 6064 6321 -14327
281 621 652 6067 6315 -14321
292 635 652 6061 6310 -14325
305 650 651 6045 6315 -14339
305 649 648 6022 6324 -14326
292 626 645 5993 6332 -14296
272 600 639 5993 6332 -14291
253 576 628 6017 6323 -14302
233 542 609 6026 6314 -14314
223 519 580 6035 6310 -14322
223 505 551 6036 6310 -14314
221 492 525 6025 6317 -14309
217 472 500 6034 6321 -14318
211 457 476 6048 6314 -14313
206 443 458 6041 6315 -14298
206 433 448 6016 6317 -14296
206 432 442 6004 6316 -14297
208 434 438 6016 6324 -14304
211 439 437 6032 6326 -14314
208 437 434 6038 6322 -14311
209 437 431 6045 6319 -14318
208 436 432 6050 6315 -14324
211 438 431 6045 6312 -14318
209 439 430 6037 6317 -14322
208 439 432 6030 6318 -14324
203 440 432 6007 6330 -14313
205 444 435 5994 6351 -14304
204 444 435 6019 6353 -14310
208 447 438 6036 6333 -14318
219 450 441 6024 6316 -14310
237 451 442 6013 6318 -14309
244 456 445 6018 6317 -14319
252 457 447 6031 6310 -14325
275 463 452 6035 6305 -14311
288 468 456 6023 6310 -14300
276 474 460 5992 6350 -14289
239 481 465 6005 6350 -14308
175 486 468 6021 6334 -14320
165 490 472 6036 6328 -14322
185 495 474 6032 6331 -14317
199 496 475 6017 6328 -14303
203 499 477 6021 6336 -14303
214 499 474 6028 6340 -14307
226 498 473 6032 6341 -14303
227 497 474 6010 6333 -14323
224 496 493 6019 6335 -14325
225 494 520 6032 6333 -14323
225 493 484 6041 6330 -14313
226 492 472 6038 6321 -14308
228 494 467 6031 6309 -14309
226 493 463 6037 6310 -14315
226 493 461 6038 6318 -14316
227 495 460 6031 6324 -14313
227 499 463 6009 6344 -14319
229 502 465 6018 6350 -14302
230 510 470 6038 6343 -14299
233 515 473 6038 6342 -14306
234 522 477 6032 6333 -14312
236 530 480 6025 6325 -14309
238 538 486 6023 6333 -14315
239 547 490 6030 6325 -14323
244 556 492 6026 6318 -14331
245 562 498 5991 6329 -14325
248 571 503 5965 6334 -14305
248 578 507 5980 6330 -14293
249 582 508 6005 6313 -14287
250 586 510 6018 6309 -14283
251 586 509 6021 6315 -14293
251 586 507 6013 6317 -14314
251 582 503 6007 6326 -14324
250 579 504 6017 6328 -14330
248 573 506 6015 6330 -14320
248 570 511 6020 6329 -14309
247 566 517 6016 6325 -14302
247 565 527 5985 6332 -14308
245 562 530 5977 6339 -14319
245 556 530 5998 6339 -14315
245 553 524 6022 6332 -14304
244 552 521 6025 6324 -14302
244 553 515 6017 6315 -14323
244 551 508 6015 6306 -14334
244 550 493 6017 6309 -14328
246 550 479 6012 6322 -14326
243 553 480 5971 6329 -14318
244 554 481 5986 6311 -14329
245 547 461 6002 6309 -14340
245 545 467 6000 6305 -14326
245 547 473 5997 6300 -14316
244 551 481 6006 6307 -14314
245 551 486 6016 6313 -14324
246 554 487 6014 6308 -14340
245 552 488 6007 6313 -14337
245 552 487 6005 6319 -14333
245 552 486 6004 6323 -14341
246 552 485 6009 6332 -14346
243 551 485 6007 6334 -14333
245 553 485 6002 6322 -14323
246 553 484 6009 6305 -14328
245 553 483 6017 6295 -14338
245 554 481 6014 6300 -14349
244 555 480 6004 6311 -14334
246 556 480 5991 6309 -14318
246 559 480 5991 6305 -14329
247 561 482 5981 6313 -14325
246 564 482 5982 6321 -14323
245 565 484 6004 6315 -14335
245 568 483 6010 6302 -14347
245 569 481 6016 6296 -14355
245 574 483 6021 6292 -14348
247 579 484 6013 6299 -14336
248 583 484 6013 6303 -14324
248 587 480 6017 6300 -14323
241 561 451 6014 6298 -14332
243 566 453 5962 6327 -14299
245 571 459 5989 6319 -14312
248 580 465 6012 6311 -14321
249 590 474 6020 6313 -14321
250 594 474 6022 6314 -14330
251 596 476 6018 6308 -14343
251 598 479 6012 6299 -14335
251 598 479 6020 6299 -14336
249 593 479 6029 6303 -14353
248 590 476 5963 6298 -14338
249 585 474 5972 6281 -14360
247 583 474 5982 6280 -14375
247 579 472 5985 6290 -14387
247 574 471 5988 6295 -14381
244 572 469 5998 6296 -14377
242 567 468 5998 6299 -14373
241 565 467 5999 6306 -14355
242 566 467 6007 6305 -14344
242 566 467 5991 6319 -14334
244 571 468 5975 6329 -14335
249 578 467 5973 6321 -14353
253 587 469 5972 6319 -14350
255 594 473 5988 6311 -14347
256 599 476 5999 6311 -14349
258 610 482 6000 6327 -14340
262 619 489 5991 6336 -14331
263 632 500 5980 6321 -14332
266 647 512 5980 6303 -14352
266 662 530 5969 6311 -14362
268 680 550 5957 6316 -14345
272 700 574 5965 6296 -14334
280 727 603 5978 6300 -14335
287 754 633 5978 6321 -14321
291 779 667 5976 6321 -14326
296 805 702 5968 6321 -14335
303 829 738 5966 6328 -14334
308 854 771 5973 6339 -14341
314 873 803 5974 6343 -14345
317 889 828 5971 6338 -14347
320 898 847 5957 6343 -14343
320 902 857 5954 6340 -14342
318 899 857 5972 6325 -14352
317 891 851 5974 6316 -14346
313 878 835 5967 6316 -14338
310 863 814 5961 6324 -14341
306 847 791 5968 6334 -14335
301 827 764 5974 6336 -14321
293 806 736 5971 6333 -14314
289 786 706 5962 6339 -14309
284 766 679 5932 6336 -14308
279 747 651 5924 6324 -14323
278 729 626 5910 6357 -14314
273 710 603 5904 6391 -14304
270 694 581 5927 6392 -14317
270 679 567 5964 6351 -14344
268 670 556 6006 6309 -14362
265 664 552 5978 6358 -14332
266 666 554 5909 6443 -14283
268 678 565 5881 6482 -14261
272 705 589 5917 6389 -14292
282 753 640 5941 6364 -14310
295 832 723 5941 6400 -14297
318 952 854 5921 6434 -14284
355 1123 1043 5919 6431 -14288
402 1344 1283 5929 6427 -14303
453 1605 1561 5932 6435 -14309
515 1893 1879 5929 6436 -14299
589 2200 2233 5924 6426 -14296
673 2529 2630 5881 6482 -14261
772 2898 3069 5917 6389 -14292
874 3304 3550 5941 6364 -14310
977 3709 4014 5941 6400 -14297
1069 4089 4425 5921 6434 -14284
1142 4411 4760 5919 6431 -14288
1195 4628 4978 5929 6427 -14303
1220 4742 5082 5932 6435 -14309
1214 4734 5027 5929 6436 -14299
1182 4608 4835 5924 6426 -14296
1056 4128 4220 5898 6433 -14322
1067 4164 4303 5916 6422 -14313
1079 4191 4392 5919 6412 -14302
1090 4210 4496 5913 6406 -14298
1101 4228 4634 5912 6402 -14304
1117 4265 4821 5915 6404 -14311
1138 4320 5040 5918 6411 -14321
1164 4398 5262 5914 6417 -14330
1188 4477 5443 5919 6411 -14343
1200 4504 5544 5904 6414 -14330
1197 4477 5562 5887 6428 -14312
1191 4429 5543 5895 6431 -14316
1187 4387 5512 5904 6425 -14326
1181 4350 5493 5919 6416 -14334
1169 4302 5464 5926 6416 -14338
1135 4164 5311 5908 6419 -14341
1067 3900 5030 5901 6411 -14330
984 3556 4677 5905 6407 -14323
905 3196 4325 5906 6407 -14336
841 2879 4023 5898 6403 -14357
798 2656 3844 5879 6404 -14356
796 2534 3890 5883 6403 -14331
860 2646 4431 5886 6400 -14315
1086 3448 6016 5888 6402 -14316
1654 5903 9814 5896 6404 -14333
2814 11288 17251 5907 6403 -14347
4700 19802 28690 5912 6407 -14349
6486 27628 38939 5893 6421 -14342
6314 26811 37515 5886 6420 -14336
4929 21119 29370 5880 6408 -14337
3625 15831 21691 5866 6399 -14324
2713 12075 16215 5861 6389 -14313
2124 9471 12595 5878 6378 -14315
1712 7584 10039 5915 6345 -14328
1474 6489 8573 5933 6335 -14340
1389 6098 8046 5924 6350 -14348
1387 6092 8024 5919 6355 -14365
1447 6363 8408 5915 6356 -14356
1535 6726 8964 5917 6351 -14338
1631 7058 9374 5953 6319 -14350
1616 6871 8570 5929 6287 -14371
1519 6396 7612 5952 6263 -14370
1383 5787 6792 5966 6260 -14362
1237 5120 5836 5953 6285 -14355
1122 4590 5021 5946 6290 -14359
1026 4153 4416 5994 6239 -14384
970 3923 4162 6040 6185 -14409
928 3761 3996 6023 6199 -14400
900 3651 3876 6000 6236 -14388
890 3604 3831 5973 6255 -14383
434 1476 1504 5979 6226 -14359
444 1515 1488 5992 6207 -14376
463 1592 1500 6016 6198 -14391
494 1727 1533 6022 6200 -14396
541 1923 1564 6023 6208 -14394
595 2153 1571 6030 6208 -14403
639 2344 1549 6034 6195 -14414
666 2472 1536 6035 6186 -14408
682 2550 1569 6042 6177 -14402
690 2580 1610 6025 6192 -14389
