2025-08-20 02:42:05    绿光---红外光---红光---X轴---Y轴---Z轴
50356 152518 231806 -2682 15218 -197
45490 140194 216327 -2068 15164 -338
40649 128567 200948 -1823 15721 -453
41706 133473 207882 -1656 16284 -347
43858 141146 216828 -1156 16214 249
42748 140416 211534 -789 16150 1034
40530 136403 202063 -521 16224 1676
37292 129069 188110 -321 16143 2348
33089 119240 169819 -369 16052 2583
30960 115079 161693 -522 16144 2440
30289 114561 160076 -318 15946 2682
29358 113300 157308 -388 15742 2750
27676 109800 150539 -392 15718 3039
25092 102818 139098 -371 16050 3374
24173 100481 135680 -340 16326 3468
25355 105535 142846 -207 16210 3553
27615 114519 155615 -14 15928 3689
32857 134435 184088 165 15709 3903
38004 153649 210887 415 15527 4174
39725 160851 220490 719 15456 4292
41987 171119 235530 929 15489 4352
44547 180787 250347 1060 15440 4501
47300 190919 265042 1157 15350 4858
49289 198642 275307 1199 15319 5389
48017 195080 269936 1213 15249 5791
45790 187692 260348 1138 15212 5953
46664 190741 267371 914 15239 5973
52222 210189 297865 616 15203 5936
60188 239955 342879 406 15043 5943
65990 266815 383157 217 14791 6222
67377 276596 393019 -207 14783 6234
66076 277624 394859 -787 15221 5635
60162 287954 405734 -1424 15563 5021
44823 289140 411183 -2243 15173 5206
44346 291189 409538 -2973 14872 5423
49688 286252 390254 -3253 14949 4691
54691 272530 358290 -3321 14787 3926
59313 266947 353131 -3614 14440 3819
60330 278301 359498 -4359 14004 4205
67324 286088 387130 -5177 14007 4739
80850 297705 405572 -207 14783 6234
78529 284590 390292 -787 15221 5635
65102 246066 342866 -1424 15563 5021
44734 187393 264141 -2243 15173 5206
34073 153199 216717 -2973 14872 5423
32825 152219 214624 -3253 14949 4691
32790 154143 215794 -3321 14787 3926
32769 155806 217119 -3614 14440 3819
34955 168781 234811 -4359 14004 4205
38832 191893 266849 -5177 14007 4739
41429 216608 302335 -6146 14569 5905
39061 251495 355897 -6242 14394 6362
38139 274246 396197 -6430 14339 6530
41034 292621 423628 -6507 14301 6350
43862 305261 436309 -6377 14105 6370
45145 309886 439084 -6248 13965 6517
45508 312025 440113 -6239 13989 6235
45484 314704 441130 -6321 14173 5656
45862 317170 441876 -6398 14367 5080
46480 319290 442611 -6459 14507 4306
47050 320941 443284 -6366 14534 3843
47786 322504 444070 -6218 14582 3702
48691 323992 444772 -6155 14823 3357
49655 326195 445438 -5703 15149 3152
50577 328605 445635 -5045 15450 2912
51399 329596 444895 -4619 15633 2407
51726 329367 443795 -4234 15752 2112
51379 328348 442576 -3953 15775 2065
51296 327860 441772 -3889 15776 1932
51634 327410 440445 -3933 15801 1932
51315 326860 438349 -3895 15819 2028
50254 323424 433006 -3692 15860 2032
48919 310025 419166 -3422 15886 1747
58884 293553 416459 -3441 15887 1486
63997 283013 419761 -3862 15821 1484
63180 269087 402805 -4285 15773 1523
58912 237166 358121 -4476 15920 1667
46986 182515 281638 -4303 16203 1761
28180 108835 170293 -3817 15999 1389
10079 37305 58716 -3542 15560 875
3325 10987 18422 -4144 15277 1358
1395 4056 7335 -4200 15094 1925
701 1733 3322 -4080 15860 2852
444 966 1845 -3602 16283 3195
371 817 1414 -1931 15837 2473
371 933 1392 -980 15571 2316
410 1229 1605 -971 15503 2235
474 1626 1988 -1384 15636 2114
534 1968 2388 -1729 15730 2146
547 2038 2532 -2196 16130 2303
506 1794 2309 -2746 16495 2280
458 1525 2013 -3056 16363 2232
426 1358 1815 -3142 16156 2322
413 1285 1718 -3272 15990 2290
410 1276 1699 -3474 15778 2071
426 1361 1785 -3471 15598 2010
477 1654 2117 -3291 15617 2216
646 2597 3218 -2942 16012 2748
1855 8977 11036 -2608 16409 3277
28812 125261 140886 -2392 16394 3495
46328 254749 345378 -2289 16244 3337
49461 260901 367329 -2014 15895 3250
51281 262752 367167 -1461 15327 3540
54201 259983 357253 -997 14940 3821
54751 192248 270884 -862 14792 3855
9449 37837 52941 -903 14946 3790
1677 7305 8237 -941 15231 3816
752 3039 3642 -1090 15396 3855
542 1972 2471 -1275 15481 3888
467 1565 2027 -749 15990 6198
426 1354 1800 -1339 15107 5043
406 1244 1685 -1264 15099 3833
399 1202 1640 -1419 15312 2734
395 1191 1627 -1746 15579 2617
399 1208 1651 -1966 15566 3166
412 1274 1734 -1876 15752 3605
444 1433 1941 -1826 15747 3833
524 1848 2475 -1777 15646 3920
899 3918 5220 -1797 15654 3902
9658 43593 56669 -1887 15887 3892
45235 254594 286380 -1827 15846 3967
46230 302256 383261 -1779 15726 4010
56055 286367 372107 -1792 15660 3985
53598 184857 275965 -1820 15681 3924
8899 37575 56824 -1829 15608 3897
1810 7960 10274 -1866 15576 3926
825 3078 4275 -1948 15707 4012
593 1884 2855 -2026 15793 4182
506 1440 2329 -1606 15601 6375
464 1228 2079 -1314 15631 5810
439 1108 1930 -1207 15956 3258
425 1036 1840 -1706 15714 3208
418 997 1791 -2597 15587 3057
412 973 1761 -2587 15801 3311
409 956 1742 -2323 15788 3718
409 951 1733 -2170 15754 3831
407 940 1710 -2153 15704 3719
402 914 1668 -2183 15656 3614
395 877 1620 -2200 15665 3504
386 840 1577 -2167 15663 3455
381 802 1533 -2066 15623 3569
372 771 1492 -1979 15568 3671
363 743 1456 -1996 15566 3710
361 727 1432 -2079 15694 3685
357 717 1417 -2201 15836 3630
355 712 1403 -2249 15865 3667
354 714 1391 -2217 15785 3718
358 723 1385 -2224 15678 3761
361 743 1399 -2273 15679 3794
369 797 1460 -2357 15707 3785
401 972 1666 -2377 15692 3776
520 1662 2574 -2362 15710 3728
1364 6359 9461 -2371 15737 3708
8418 27860 44475 -2352 15792 3655
17686 48285 75834 -2273 15739 3595
19738 53171 82235 -2199 15673 3587
20498 54775 84573 -2187 15666 3534
18716 49127 76566 -2221 15613 3492
13772 40122 61770 -2238 15616 3428
5190 20357 28400 -2294 15652 3310
451 1079 2014 -2428 15499 4061
464 1192 2113 -2367 15499 4168
545 1539 2673 -2365 15517 4305
929 3009 5257 -2414 15538 4323
2442 9202 15639 -2363 15526 4231
7014 29608 48195 -2256 15458 4168
19664 92006 145914 -2128 15413 4113
34579 205708 310550 -1834 15333 4038
35496 262672 368596 -1756 15531 3962
39685 272441 376593 -1725 15489 3882
43193 282109 387739 -1562 15041 3811
44622 286333 389485 -1106 14727 3501
45115 288083 389971 -655 14970 2842
45380 287409 390458 -379 15366 2200
45342 286217 389677 -59 15445 1949
44509 284008 387712 115 15928 1473
43206 281201 385013 109 16459 754
41975 278910 382706 433 16626 234
41220 276807 379941 1125 16586 -453
43590 270209 375859 1943 16374 -922
50957 241235 342108 2713 16291 -686
41919 185706 261191 3323 16121 -108
30183 134038 186292 3734 15964 410
21469 94996 131524 3944 15791 986
12067 50483 70524 4041 15591 1597
5671 23355 32599 4458 15371 2456
2128 8691 11483 4484 15113 3836
668 1651 3475 4231 14798 4982
1169 897 7243 4307 14583 5971
713 679 3639 4278 14289 6947
263 533 680 4804 13774 7408
246 513 537 5138 13151 9292
243 504 520 5472 11262 11457
244 500 515 6884 8339 12543
243 497 508 7091 5885 14982
242 497 507 6769 4909 17030
243 497 508 8118 5086 17021
242 499 512 7458 5377 15263
241 500 510 5604 6356 12965
244 505 512 2500 7012 11653
256 587 530 -1718 7128 11282
253 583 525 -3056 5514 13253
255 594 526 -4409 3496 15692
264 626 537 -5345 1809 17716
268 649 540 -5367 857 18452
263 638 529 -3620 997 16937
256 619 519 -3181 1073 16352
249 600 509 -3739 452 16554
248 592 506 -5233 -627 17269
248 595 504 -6744 -1422 17525
244 598 501 -7530 -1551 17055
244 604 502 -7773 -1114 16178
249 627 512 -7678 -295 14813
266 693 544 -7810 505 13525
276 742 568 -9475 698 11991
274 725 561 -9894 -119 11780
262 670 540 -9738 -1622 12992
258 648 537 -9298 -3040 15183
262 657 551 -8731 -3670 16752
271 686 577 -8422 -3977 16997
280 722 613 -8203 -3966 15947
287 732 643 -7937 -3670 14712
288 722 669 -7639 -3581 14501
293 715 707 -7100 -3827 15192
302 720 771 -6315 -4180 16280
324 772 894 -5374 -4354 17096
362 960 1118 -4952 -4095 17069
407 1187 1376 -5145 -3226 16163
446 1388 1650 -5371 -2668 15061
480 1551 1923 -5236 -2497 14468
511 1684 2148 -4150 -1885 14330
539 1789 2171 -2509 -1401 14877
566 1869 2153 -1107 -1273 15817
602 1946 2497 -306 -1106 16021
691 2161 3405 -639 -946 15457
907 2717 5004 -1707 -739 14526
1296 3811 7668 -2468 -469 13837
1866 5536 11262 -2291 -374 14001
2517 7772 14765 -1095 -459 14727
3341 10715 18840 277 -743 15694
5081 14509 27442 919 -1132 16496
4537 15674 24380 518 -1540 16766
4038 15495 21968 -561 -1491 16694
3809 13913 20432 -902 -1581 17978
3685 13904 20139 -933 -2197 19927
4091 15519 23313 -3781 -2270 19346
4472 16602 25714 -3100 -1205 16934
4933 17605 28356 -2255 -300 14321
5154 17751 29271 -1857 -265 14518
5310 16988 29419 -685 -420 15922
57273 185698 248026 -13986 1718 6323
56097 180729 241454 -14183 1851 5453
55667 178817 239076 -14417 2128 4768
55755 178614 238682 -14665 2408 4197
55646 177407 236985 -14867 2809 3654
54716 172084 228925 -15114 3271 3107
44052 131928 173630 -15352 3589 2718
41115 124650 165936 -15359 3892 2537
42371 129922 172800 -16037 5389 3194
44690 142824 189631 -16304 5825 2135
45957 142487 194346 -15801 -1722 -3609
43536 131520 176418 -15426 -1862 -3632
44136 136146 181398 -14923 -2148 -3733
51874 168215 228883 -14264 -2397 -4217
57677 200109 275257 -13831 -2692 -5032
58616 203402 277620 -13699 -3069 -6655
54951 182369 251787 -13416 -3550 -8021
52994 172884 241653 -14628 -3965 -7481
61555 218605 295703 -15396 -4647 -7148
67025 238515 315509 -13966 -5830 -8583
72035 262895 339168 -11783 -7533 -10051
74471 280580 357935 -10928 -7767 -10801
73737 297170 377136 -11005 -7038 -11359
72663 299962 380402 -10754 -6967 -11644
74502 306232 389708 -10690 -6847 -11716
77550 311671 398239 -10534 -6749 -11723
82528 330093 423069 -10393 -7045 -12068
77766 335509 446428 -9882 -7205 -12516
65629 317802 437463 -9255 -6914 -12273
61816 317879 436438 -8931 -7051 -11832
10189 25016 56769 -15107 -3671 5090
13701 37665 75820 -15465 -3427 5269
19265 59571 106820 -15840 -3053 4925
27276 95938 154508 -15817 -2627 3669
33366 131902 199245 -15814 -2130 2095
35201 150722 221315 -16063 -1499 751
33799 152387 221389 -16084 -765 -521
31142 145814 210090 -15914 147 -1839
26888 125314 180304 -15974 1387 -2963
21960 98454 142396 -15989 2617 -4175
17387 75054 109920 -15541 3402 -5473
15572 66536 97955 -15330 3995 -5757
12401 48966 73298 -15583 5157 -4775
7618 26280 42122 -15575 5458 -3902
5352 16796 28543 -15288 5006 -3425
3464 9493 18083 -14712 5928 -2395
2201 4894 11246 -14216 6610 -1322
913 1975 4420 -13889 6640 -330
444 1571 1991 -13276 6412 509
410 1557 1820 -13768 3941 2864
383 1543 1620 -15573 -86 6438
363 1527 1362 -15875 -2731 8594
312 1498 917 -16123 -5600 9057
268 1364 638 -18007 -8254 7940
258 1295 584 -18431 -8018 5720
258 1243 584 -16893 -6324 4473
260 1201 585 -14068 -3846 4917
259 1182 588 -11129 -1346 5975
261 1139 583 -10356 -25 7344
260 1081 577 -11618 -49 7711
255 1011 573 -13968 -858 6734
254 969 568 -15732 -1324 4715
254 951 566 -14865 808 1702
253 935 561 -13351 2391 1772
252 915 559 -12534 3450 2611
250 872 553 -12800 3814 3316
247 818 547 -13563 3832 2940
245 769 540 -14028 3864 1601
246 744 534 -13395 4509 -273
245 735 533 -12193 5733 -1549
244 723 529 -11082 6879 -1927
244 702 526 -11005 7398 -1889
242 671 521 -12419 7040 -2063
241 636 517 -14299 6134 -3003
241 610 514 -15473 5436 -4568
239 595 511 -15272 5388 -6298
238 576 509 -13113 6152 -8243
239 568 506 -10370 7359 -9795
239 571 505 -8935 8383 -10363
239 569 503 -9046 9497 -10548
236 539 500 -11000 9100 -10656
235 510 496 -13918 3947 -15219
236 506 496 -13034 3318 -17105
237 537 500 -9384 4358 -16464
238 588 502 -5075 6624 -13067
237 626 503 -3449 8640 -8499
236 617 501 -4507 8496 -6506
237 583 497 -9051 5593 -6979
239 548 491 -13929 2364 -9622
239 543 492 -15673 888 -13155
238 563 492 -14723 1087 -14373
237 594 496 -11766 2972 -13252
237 616 497 -9549 5357 -10630
237 617 495 -9226 6692 -8302
236 596 493 -10256 6630 -7640
234 562 488 -11727 5552 -8634
234 541 487 -11975 4600 -11115
234 536 484 -11176 4327 -13358
234 549 486 -9323 4855 -14508
236 568 486 -7546 5676 -14299
236 578 487 -7450 6110 -12784
234 580 486 -8371 6051 -11559
235 571 487 -9936 5514 -11048
234 566 487 -11254 4876 -11199
234 563 486 -11417 4580 -11737
235 562 485 -10704 4674 -12041
234 566 485 -9783 4919 -12064
234 565 484 -9717 4896 -11790
234 562 483 -10535 4509 -11676
234 556 481 -11559 4093 -11813
233 553 484 -11939 3980 -12011
234 547 482 -11226 4309 -12170
234 541 483 -9928 4918 -12262
234 540 482 -8885 5384 -12425
233 540 482 -8639 5316 -12594
233 541 481 -9173 4803 -12682
234 540 482 -10086 4299 -12598
232 536 482 -10602 4025 -12438
234 533 480 -10511 3950 -12285
234 532 481 -10222 4003 -12258
234 533 479 -10112 4047 -12337
234 532 481 -10657 3968 -12232
234 529 482 -10749 3978 -12193
234 523 479 -10350 4200 -12312
233 520 480 -9681 4485 -12543
233 518 479 -9136 4643 -12761
234 519 478 -9157 4560 -12831
234 523 477 -9752 4299 -12691
234 529 480 -10472 4126 -12296
233 530 481 -10786 4135 -11791
235 527 481 -10573 4289 -11511
232 521 479 -10207 4479 -11622
233 516 478 -9979 4545 -12020
233 517 477 -9992 4442 -12367
234 519 478 -10161 4323 -12450
232 523 479 -10344 4304 -12198
233 521 478 -10384 4315 -11803
232 519 478 -10494 4386 -11595
233 517 477 -10581 4449 -11713
233 516 478 -10422 4467 -11980
232 515 483 -10461 4559 -11835
230 512 479 -10272 4648 -11873
231 511 480 -10171 4672 -11945
233 512 480 -10342 4594 -11921
233 514 480 -10723 4474 -11722
232 515 479 -10981 4426 -11484
233 513 478 -10922 4483 -11376
236 516 481 -10615 4581 -11486
235 514 482 -10314 4620 -11751
233 512 481 -10216 4570 -11980
232 511 480 -10461 4559 -11835
233 516 479 -10272 4648 -11873
233 517 479 -10171 4672 -11945
232 516 481 -10342 4594 -11921
232 513 479 -10723 4474 -11722
232 512 478 -10981 4426 -11484
232 512 480 -10922 4483 -11376
234 512 480 -10615 4581 -11486
234 514 480 -10314 4620 -11751
232 515 480 -10216 4570 -11980
233 515 479 -10672 4318 -11881
233 514 480 -10958 4204 -11611
232 511 479 -11061 4134 -11414
233 513 478 -10971 4099 -11447
233 514 480 -10829 4075 -11683
235 514 480 -10755 4018 -11923
234 514 477 -10766 3979 -12013
232 513 479 -10847 3972 -11923
233 513 480 -10901 3989 -11734
234 513 478 -10787 4072 -11568
233 517 479 -10879 3535 -11875
231 514 480 -10972 3524 -11748
232 515 479 -11236 3404 -11659
233 514 478 -11433 3291 -11681
233 513 478 -11430 3240 -11762
234 515 478 -11292 3224 -11827
231 515 479 -11228 3204 -11812
232 513 478 -11306 3167 -11735
233 513 478 -11489 3092 -11644
232 514 478 -11599 2991 -11562
233 519 479 -10863 3634 -11880
232 518 477 -10650 3728 -12043
233 516 479 -10463 3811 -12184
233 518 478 -10293 3935 -12273
235 518 479 -10330 4041 -12191
234 520 478 -10382 4179 -12054
232 521 479 -10265 4354 -12028
232 521 481 -9718 4765 -12285
233 522 483 -9394 4902 -12464
232 524 481 -9222 4903 -12586
235 536 485 -9751 3973 -12929
234 537 483 -9666 3970 -13113
235 539 484 -9766 3953 -13019
234 542 484 -9936 3917 -12775
234 544 485 -10018 3947 -12571
234 545 484 -9904 4096 -12494
234 547 485 -9640 4331 -12536
235 548 484 -9390 4521 -12649
234 550 486 -9257 4634 -12743
234 553 487 -9236 4718 -12722
233 553 488 -9145 4813 -12666
234 553 486 -9004 4911 -12609
233 553 486 -8855 5000 -12615
234 552 487 -8838 5028 -12647
233 553 486 -8970 4974 -12661
234 555 487 -9170 4886 -12646
234 556 486 -9314 4833 -12591
234 559 489 -9259 4837 -12549
234 561 490 -9108 4821 -12575
233 562 488 -8994 4780 -12731
237 565 488 -9100 4277 -12794
234 566 490 -9209 4348 -12710
236 566 491 -9447 4294 -12657
235 569 490 -9498 4220 -12672
235 569 490 -9327 4200 -12760
234 567 489 -9139 4211 -12907
236 564 490 -9239 4197 -13063
235 565 490 -9456 4154 -12899
236 568 490 -9597 4167 -12676
234 570 490 -9567 4222 -12539
235 567 493 -8697 4712 -12837
235 567 491 -8929 4565 -12762
234 570 491 -9123 4361 -12830
233 571 490 -9198 4167 -12984
235 571 490 -9193 4061 -13116
234 570 490 -9273 3993 -13132
233 568 488 -9500 3917 -12976
233 566 489 -9723 3865 -12754
233 566 489 -9850 3844 -12594
233 566 489 -9874 3842 -12554
235 567 490 -9803 3838 -12647
235 569 489 -9680 3833 -12810
234 568 490 -9641 3830 -12945
234 568 490 -9710 3822 -13004
234 569 490 -9734 3836 -12962
234 568 490 -9596 3936 -12878
236 568 490 -9435 4054 -12784
236 570 488 -9448 4077 -12710
235 568 489 -9613 4037 -12702
236 567 489 -9762 4010 -12732
234 568 488 -9986 4297 -11935
234 568 487 -9993 4215 -12435
234 566 488 -9861 4236 -12848
233 559 486 -9789 4330 -12810
232 555 486 -9893 4458 -11925
231 554 487 -10008 4374 -11785
233 555 487 -10049 4226 -12097
233 561 486 -10046 4076 -12571
234 562 487 -10015 4008 -12926
233 561 486 -10015 4038 -12860
233 557 488 -10038 4164 -12397
234 555 485 -10157 4303 -11821
233 553 486 -10382 4362 -11537
232 555 485 -10587 4312 -12001
233 554 484 -10396 4352 -12255
233 555 485 -10194 4484 -12274
234 554 484 -10083 4617 -12094
234 552 485 -10106 4663 -11878
234 551 485 -10279 4603 -11803
234 551 487 -10490 4516 -11869
233 551 485 -10550 4507 -11963
234 551 483 -10419 4585 -11992
233 549 485 -10210 4732 -11925
234 548 485 -10149 4765 -12070
233 549 485 -10085 4795 -12237
233 552 485 -9991 4928 -12309
236 555 486 -9911 5165 -12169
236 558 485 -9873 5428 -11809
234 560 485 -9918 5586 -11287
234 559 486 -10051 5525 -10797
234 556 485 -10338 5221 -10568
233 551 484 -10813 4728 -10757
232 549 486 -11224 4229 -11333
232 548 487 -11409 3884 -11920
232 551 486 -11358 3733 -12245
234 553 485 -11137 3735 -12285
234 552 484 -10852 3825 -12071
235 551 485 -10663 3961 -11817
235 548 485 -10632 4026 -11833
234 546 486 -10540 3985 -12102
233 552 485 -10349 3972 -12454
236 555 487 -10211 4025 -12731
234 562 487 -10132 4193 -12705
233 563 491 -10051 4465 -12350
235 564 491 -9950 4722 -11904
235 563 490 -9879 4846 -11734
236 567 489 -9914 4765 -12001
235 577 490 -10036 4576 -12423
236 590 492 -10182 4503 -12583
236 599 491 -10207 4700 -12293
236 665 493 -10635 3892 -12794
237 688 495 -11255 3330 -13121
236 716 499 -10645 3882 -12098
236 733 499 -10088 4586 -11018
238 737 499 -9832 4913 -10588
238 731 498 -9862 4697 -11014
236 723 495 -9934 4269 -11960
237 721 495 -9981 3862 -12869
238 732 495 -10026 3560 -13355
238 750 497 -10064 3391 -13268
237 770 500 -10487 3243 -12197
238 780 500 -10482 3216 -12146
238 780 498 -10366 3134 -12460
237 773 497 -10114 3076 -13041
238 770 497 -9842 3090 -13595
237 772 498 -9607 3233 -13802
237 790 499 -9622 3449 -13472
239 815 502 -9796 3632 -12796
239 840 502 -9919 3759 -12146
240 853 503 -9863 3811 -11965
238 845 505 -9654 3752 -12446
239 830 503 -9574 3627 -13223
239 827 502 -9697 3511 -13718
238 844 504 -9919 3494 -13481
238 872 506 -10020 3661 -12712
239 899 507 -9894 3910 -11925
240 899 507 -9582 4060 -11714
240 884 507 -9458 3967 -12145
240 865 506 -9702 3680 -12804
240 861 504 -10145 3356 -13241
237 867 504 -10435 3215 -13141
238 881 506 -10259 3360 -12729
239 887 507 -9791 3600 -12416
239 874 506 -9378 3691 -12531
239 856 503 -9376 3572 -13091
241 849 505 -9656 3366 -13684
240 857 506 -9922 3304 -13727
239 875 506 -9984 3476 -13196
239 893 506 -9735 3808 -12486
240 897 508 -9355 4197 -12013
240 887 507 -9180 4381 -12059
239 872 505 -9355 4215 -12467
237 859 503 -9615 3900 -12959
237 856 503 -9777 3662 -13274
239 858 505 -9818 3603 -13282
240 866 506 -9785 3670 -13010
240 876 507 -9779 3762 -12646
238 878 506 -9827 3816 -12421
239 871 505 -9874 3828 -12439
239 858 503 -9737 3848 -12688
239 860 505 -9871 3662 -12720
239 860 505 -9821 3700 -12659
238 853 505 -9835 3686 -12627
240 848 504 -9917 3634 -12633
239 852 504 -9946 3607 -12700
240 862 504 -9810 3648 -12826
240 874 506 -9555 3721 -12942
240 885 505 -9413 3765 -12947
240 889 506 -9536 3765 -12806
237 887 506 -9797 3739 -12604
239 882 508 -9983 3702 -12462
238 884 508 -9972 3675 -12486
240 891 508 -9808 3668 -12658
239 898 507 -9713 3644 -12849
243 899 508 -9824 3547 -12910
242 896 507 -10100 3427 -12783
240 897 508 -10343 3407 -12583
240 905 510 -10331 3513 -12429
241 919 509 -10053 3671 -12413
240 927 511 -9714 3840 -12569
238 919 512 -9503 3952 -12826
239 911 509 -9427 3927 -12929
240 910 509 -9344 3853 -12822
240 913 509 -9362 3778 -12720
241 920 511 -9572 3673 -12813
242 925 509 -9780 3626 -13048
241 921 509 -9814 3675 -13122
241 908 509 -9591 3791 -12911
239 888 507 -9362 3888 -12574
241 872 510 -9453 3859 -12393
241 866 507 -9833 3651 -12514
240 873 507 -10223 3378 -12798
240 880 507 -10381 3246 -12967
241 892 506 -10284 3330 -12880
241 892 506 -10062 3522 -12630
239 874 503 -9897 3639 -12389
238 840 503 -9900 3629 -12317
238 806 500 -10025 3520 -12511
238 799 498 -10031 3445 -12946
237 817 499 -9645 3499 -13449
239 844 504 -8864 3800 -13450
239 851 503 -9174 3902 -13088
238 833 502 -9569 3939 -12620
238 794 502 -9550 3968 -12081
236 757 497 -9315 3897 -11830
236 740 494 -9242 3506 -12392
236 742 495 -9794 2826 -13413
236 757 495 -10698 2230 -14167
239 764 495 -11264 2131 -14001
236 756 495 -10302 3498 -11551
235 730 492 -9562 4085 -10883
234 705 493 -9381 4114 -11291
236 686 490 -9791 3658 -12415
234 680 488 -10377 3090 -13431
234 685 488 -10662 2835 -13659
234 692 488 -10585 2964 -12949
235 694 488 -10422 3305 -11803
234 678 488 -10512 3588 -10936
234 651 486 -11057 3324 -11367
234 622 482 -11151 3063 -12086
419 1572 886 -10645 -6932 8714
630 2539 1453 -8655 -6046 8792
1111 4651 2868 -8839 -7520 5677
1493 6301 3868 -11882 -10846 2359
4123 18202 12904 -14995 -15032 924
31495 128940 111026 -15508 -17848 2399
41689 164211 138934 -13654 -17981 6895
45411 191935 153993 -10354 -15078 11524
87421 348739 299524 -6387 -11076 12611
99941 405764 325295 -3749 -8946 10441
97115 393981 310603 -4526 -8382 7449
86236 353738 282106 -4762 -7077 3424
93249 383226 308703 -1923 -7232 1118
92670 381351 306956 -4264 -9808 5689
93545 386808 310782 -7516 -9488 8394
95015 392934 314659 -3345 -7631 8341
93692 387659 310411 -1243 -8798 9637
93075 385331 308744 508 -7364 10704
94029 388855 311900 1358 -3077 14336
94349 389186 311210 -1793 -1574 16792
93707 386307 309038 -2954 -2626 16168
93636 385909 308780 -3361 -4159 15013
93622 385993 308722 -4392 -4034 14873
94076 388089 310536 -5559 -3202 15026
94047 387934 310343 -6046 -2997 14876
93793 386752 309385 -6038 -3370 14575
93553 385697 308517 -5937 -3596 14489
93459 385283 308203 -5869 -3365 14901
93369 384853 307845 -5394 -3335 15190
93309 384613 307641 -5293 -3350 15241
93322 384691 307699 -5400 -3293 15185
93272 384463 307513 -5510 -3293 15012
93137 383849 306993 -5520 -3302 15018
93119 383814 306983 -5430 -3332 15069
93163 383992 307125 -5376 -3345 15110
93054 383504 306700 -5350 -3348 15105
92905 382846 306173 -5309 -3358 15111
92746 382120 305581 -5302 -3351 15108
92641 381681 305233 -5300 -3325 15071
92587 381438 305021 -5284 -3335 15091
92504 381081 304726 -5262 -3372 15123
92500 381088 304743 -5271 -3374 15111
92498 381095 304727 -5287 -3363 15096
92484 380987 304656 -5265 -3370 15086
92423 380723 304433 -5237 -3387 15104
92243 379893 303727 -5202 -3406 15130
91869 378226 302401 -5162 -3411 15138
91907 378442 302591 -5143 -3402 15149
92020 378948 302952 -5141 -3372 15145
91612 377036 301359 -5143 -3359 15144
90813 373474 298497 -5133 -3378 15106
90765 373366 298477 -5122 -3392 15103
91175 375210 299943 -5143 -3393 15103
90928 373950 298820 -5099 -3407 15118
89736 368650 294492 -5019 -3434 15210
89186 366385 292708 -5010 -3438 15201
89281 366847 293095 -5042 -3411 15112
89656 368520 294399 -5001 -3411 15121
89083 365809 292127 -4859 -3442 15228
88301 362477 289519 -4807 -3453 15292
88344 362672 289709 -4881 -3429 15175
88865 365171 291792 -4887 -3430 15095
90442 372229 297474 -4740 -3520 15240
91141 375172 299734 -4598 -3583 15338
91028 374631 299309 -4577 -3573 15348
91028 374715 299406 -4645 -3530 15248
91628 377425 301622 -4600 -3550 15247
92116 379627 303397 -4481 -3601 15364
92275 380240 303825 -4428 -3609 15386
91477 376569 300831 -4425 -3615 15423
90674 373000 297980 -4591 -3556 15289
90252 371177 296556 -4788 -3467 15153
90408 371953 297238 -4839 -3462 15177
90797 373657 298557 -4830 -3496 15219
90716 373249 298196 -4876 -3481 15237
90417 371903 297128 -5003 -3425 15151
90395 371892 297162 -5141 -3374 15029
90866 374000 298874 -5112 -3399 15051
91045 374772 299444 -4844 -3482 15268
90932 374243 298987 -4778 -3521 15303
90690 373185 298158 -4812 -3498 15251
90817 373768 298662 -4847 -3482 15204
90838 373811 298666 -4821 -3509 15216
90546 372494 297582 -4790 -3549 15284
90119 370587 296058 -4820 -3553 15253
89964 369952 295581 -4882 -3519 15176
90135 370739 296219 -4913 -3501 15155
90343 371682 296958 -4890 -3500 15178
90285 371354 296674 -4880 -3497 15209
90101 370543 296024 -4902 -3503 15164
90024 370234 295798 -4901 -3506 15150
90343 371714 297019 -4853 -3530 15188
90598 372805 297857 -4773 -3565 15239
90484 372267 297387 -4751 -3570 15269
90128 370669 296124 -4775 -3556 15228
90244 371275 296658 -4795 -3539 15185
90415 371979 297168 -4792 -3536 15202
90152 370781 296197 -4760 -3535 15227
89880 369587 295265 -4765 -3521 15243
89960 369981 295602 -4808 -3518 15197
90158 370837 296264 -4841 -3508 15142
90017 370185 295723 -4834 -3525 15168
89794 369208 294954 -4789 -3561 15231
89856 369523 295231 -4802 -3547 15217
90189 371025 296445 -4834 -3530 15168
90260 371291 296611 -4802 -3549 15215
89985 370030 295613 -4755 -3578 15270
89987 370076 295695 -4756 -3564 15253
90175 370932 296350 -4800 -3513 15218
90065 370412 295905 -4800 -3522 15214
89918 369775 295417 -4760 -3570 15254
89969 370033 295633 -4756 -3584 15257
90089 370525 296024 -4796 -3561 15202
89929 369813 295435 -4820 -3547 15189
89793 369205 294961 -4776 -3569 15237
89798 369264 295021 -4754 -3554 15276
89917 369784 295423 -4771 -3522 15241
89876 369574 295251 -4760 -3523 15234
89824 369396 295108 -4745 -3516 15264
89935 369885 295509 -4743 -3517 15245
89935 369852 295471 -4758 -3530 15225
89813 369307 295040 -4759 -3542 15230
89777 369159 294929 -4731 -3564 15258
89800 369255 294981 -4728 -3572 15274
89662 368631 294469 -4743 -3561 15237
89616 368439 294331 -4738 -3552 15229
89567 368237 294159 -4721 -3563 15237
89570 368231 294164 -4729 -3550 15224
89499 367932 293930 -4750 -3517 15218
89452 367724 293739 -4734 -3534 15247
89359 367304 293434 -4734 -3538 15230
89381 367425 293503 -4718 -3546 15238
89337 367199 293333 -4698 -3547 15262
89339 367231 293372 -4686 -3549 15253
89314 367122 293265 -4692 -3560 15269
89347 367275 293393 -4687 -3566 15272
89386 367465 293546 -4677 -3558 15276
89465 367787 293806 -4667 -3542 15276
89325 367146 293276 -4669 -3552 15276
89249 366836 293043 -4669 -3567 15265
89363 367336 293436 -4664 -3575 15259
89296 367031 293176 -4662 -3572 15262
89118 366225 292518 -4663 -3572 15255
88968 365581 292015 -4687 -3559 15247
89065 366029 292382 -4692 -3550 15233
89053 365942 292286 -4667 -3570 15269
88854 365059 291583 -4675 -3526 15232
88719 364479 291122 -4670 -3536 15241
88754 364632 291255 -4636 -3577 15258
88671 364249 290921 -4612 -3587 15273
88574 363813 290576 -4625 -3569 15258
88542 363686 290478 -4608 -3569 15250
88536 363681 290457 -4581 -3587 15283
88510 363555 290360 -4575 -3599 15281
88382 362947 289855 -4575 -3593 15275
88293 362597 289591 -4562 -3576 15283
88402 363097 290010 -4550 -3569 15284
88575 363853 290589 -4547 -3588 15292
88442 363216 290065 -4537 -3621 15282
88160 362007 289091 -4540 -3626 15281
88148 361987 289092 -4529 -3625 15300
88296 362645 289613 -4506 -3638 15327
88229 362304 289314 -4516 -3627 15318
88097 361734 288852 -4543 -3609 15262
87964 361142 288378 -4537 -3611 15288
87981 361240 288477 -4496 -3616 15323
88128 361902 288994 -4491 -3602 15308
88123 361846 288920 -4514 -3590 15285
87842 360558 287887 -4496 -3606 15275
87751 360237 287666 -4469 -3618 15311
87953 361124 288352 -4448 -3628 15330
87897 360831 288099 -4424 -3636 15331
87674 359856 287315 -4442 -3633 15306
87672 359873 287329 -4466 -3624 15271
87763 360274 287670 -4448 -3631 15323
87714 360035 287445 -4427 -3649 15341
87572 359432 286975 -4466 -3613 15300
87561 359370 286917 -4492 -3598 15293
87492 359075 286715 -4446 -3625 15309
87503 359141 286800 -4420 -3648 15331
87588 359515 287074 -4430 -3653 15304
87516 359151 286775 -4423 -3644 15310
87329 358328 286117 -4401 -3646 15342
87327 358344 286152 -4389 -3645 15330
87444 358885 286568 -4378 -3646 15337
87410 358701 286391 -4362 -3653 15338
87311 358265 286047 -4390 -3596 15297
87239 357960 285810 -4363 -3628 15309
87323 358352 286123 -4353 -3652 15340
87353 358465 286199 -4366 -3660 15330
87191 357723 285583 -4369 -3657 15331
87072 357259 285216 -4356 -3658 15333
87120 357465 285397 -4327 -3664 15320
87171 357683 285556 -4331 -3662 15331
87318 358359 286105 -4347 -3658 15319
87184 357706 285540 -4357 -3614 15325
87089 357327 285288 -4335 -3626 15327
87274 358149 285936 -4322 -3637 15348
87287 358176 285942 -4315 -3641 15337
87256 358074 285868 -4316 -3639 15329
87361 358572 286293 -4295 -3659 15359
87716 360090 287502 -4290 -3674 15359
87696 359997 287398 -4320 -3666 15363
87529 359264 286802 -4331 -3662 15360
87613 359656 287147 -4356 -3623 15334
87641 359764 287205 -4393 -3608 15288
87563 359407 286940 -4403 -3612 15305
87611 359637 287103 -4388 -3625 15315
87520 359207 286747 -4409 -3624 15315
87397 358662 286330 -4424 -3626 15317
87412 358769 286423 -4404 -3645 15310
87491 359107 286667 -4404 -3652 15304
87446 358899 286515 -4385 -3665 15318
87298 358255 285978 -4370 -3675 15349
87344 358489 286203 -4418 -3607 15317
87429 358854 286488 -4409 -3617 15327
87728 360182 287568 -4372 -3647 15332
87713 360055 287418 -4366 -3660 15343
87425 358805 286425 -4372 -3662 15344
87500 359150 286732 -4411 -3640 15310
87592 359553 287030 -4440 -3627 15298
87450 358917 286499 -4393 -3647 15330
87356 358512 286197 -4384 -3649 15345
87373 358600 286265 -4412 -3630 15313
87365 358539 286189 -4421 -3616 15310
87189 357778 285581 -4410 -3625 15347
87134 357529 285382 -4398 -3635 15331
87095 357354 285234 -4393 -3638 15317
87046 357148 285062 -4367 -3644 15326
87036 357103 285027 -4344 -3645 15338
87023 357045 284985 -4335 -3650 15348
87011 356988 284929 -4317 -3667 15334
87008 356970 284910 -4316 -3668 15338
87002 356976 284927 -4322 -3657 15326
87146 357589 285418 -4351 -3630 15310
87042 357124 285025 -4367 -3623 15322
87047 357178 285079 -4336 -3649 15319
87091 357348 285213 -4338 -3647 15321
87053 357205 285079 -4336 -3649 15333
87018 357031 284958 -4324 -3663 15349
87182 357759 285563 -4334 -3663 15339
87129 357509 285303 -4332 -3664 15324
87033 357089 284986 -4328 -3669 15360
86866 356334 284347 -4346 -3667 15357
86725 355735 283891 -4382 -3593 15317
86731 355757 283920 -4339 -3621 15323
86736 355794 283923 -4299 -3647 15345
86652 355388 283597 -4280 -3660 15340
86512 354787 283115 -4279 -3666 15335
86441 354503 282875 -4288 -3673 15346
86626 355331 283576 -4289 -3691 15332
86681 355538 283715 -4271 -3702 15356
86702 355649 283799 -4257 -3700 15363
86724 355766 283897 -4305 -3633 15343
86822 356193 284248 -4285 -3643 15350
86893 356489 284490 -4285 -3652 15360
86808 356123 284186 -4306 -3651 15328
86885 356465 284460 -4305 -3660 15330
86609 355219 283400 -4311 -3659 15334
86425 354422 282800 -4315 -3656 15310
86460 354615 282970 -4295 -3685 15331
86648 355455 283629 -4267 -3723 15344
86393 354248 282605 -4357 -3671 15308
86247 353635 282162 -4327 -3687 15323
86237 353597 282124 -4281 -3720 15353
86488 354739 283047 -4267 -3729 15342
86460 354565 282881 -4269 -3703 15338
86420 354421 282784 -4269 -3691 15345
86481 354689 282996 -4249 -3695 15357
86442 354489 282806 -4267 -3677 15343
86253 353682 282171 -4262 -3676 15346
86244 353630 282135 -4250 -3668 15358
86224 353542 282037 -4273 -3650 15353
86026 352635 281275 -4270 -3653 15341
85728 351438 280269 -4224 -3669 15355
85756 351581 280376 -4169 -3691 15378
85793 351731 280498 -4157 -3693 15383
85649 351069 279933 -4161 -3686 15382
85429 350103 279161 -4146 -3685 15380
85277 349465 278653 -4120 -3700 15395
85291 349557 278723 -4096 -3721 15378
85349 349802 278926 -4091 -3711 15370
85267 349409 278574 -4132 -3678 15352
85163 348990 278254 -4134 -3682 15354
85179 349067 278320 -4098 -3713 15385
85274 349455 278615 -4084 -3727 15399
85063 348558 277877 -4091 -3720 15410
85196 349156 278383 -4083 -3728 15409
85240 349326 278492 -4075 -3734 15400
85126 348834 278091 -4092 -3722 15391
85200 349169 278375 -4082 -3736 15399
85224 349263 278444 -4079 -3732 15404
85184 349096 278284 -4119 -3682 15383
85096 348678 277947 -4140 -3660 15380
85070 348606 277908 -4116 -3686 15393
85193 349128 278318 -4095 -3709 15394
85167 349005 278201 -4103 -3715 15395
85022 348377 277691 -4113 -3714 15379
85044 348478 277774 -4092 -3727 15390
85109 348789 278040 -4080 -3738 15401
85119 348769 277977 -4077 -3733 15386
84850 347626 277075 -4088 -3724 15383
84920 347933 277325 -4111 -3687 15365
85045 348473 277752 -4096 -3693 15369
84932 347982 277348 -4085 -3712 15376
84948 348083 277441 -4069 -3732 15412
85141 348910 278100 -4071 -3736 15391
84997 348261 277537 -4083 -3732 15374
84915 347949 277320 -4074 -3739 15399
85044 348513 277785 -4064 -3741 15398
85068 348572 277790 -4082 -3725 15397
84856 347613 277008 -4140 -3696 15403
84741 347180 276684 -4114 -3713 15405
84909 347938 277286 -4097 -3711 15377
84970 348181 277467 -4093 -3708 15374
84767 347245 276686 -4067 -3725 15388
84588 346492 276103 -4043 -3743 15414
84607 346592 276177 -4047 -3737 15414
84669 346839 276378 -4048 -3723 15395
84529 346220 275845 -4040 -3725 15407
84226 344879 274754 -4040 -3723 15420
84162 344655 274600 -4069 -3695 15404
84153 344594 274521 -4064 -3697 15388
84069 344250 274230 -4027 -3725 15393
83896 343454 273570 -4004 -3739 15417
83800 343065 273269 -3988 -3746 15422
83796 343048 273261 -3984 -3751 15424
83815 343141 273314 -3983 -3752 15433
83794 343032 273241 -3985 -3733 15430
83778 342951 273229 -3980 -3751 15429
83785 342985 273242 -4004 -3754 15404
83780 342972 273229 -4061 -3734 15393
83779 342937 273229 -4059 -3763 15395
83774 342940 273227 -4022 -3781 15388
83771 342903 273222 -3997 -3789 15397
83769 342903 273222 -3984 -3791 15389
83766 342887 273227 -3984 -3792 15389
83767 342870 273213 -3984 -3799 15393
83760 342854 273224 -3988 -3792 15387
83756 342842 273214 -3986 -3794 15396
83758 342836 273221 -3985 -3780 15401
83752 342813 273216 -4026 -3744 15411
83756 342821 273221 -4034 -3734 15406
83751 342798 273211 -4000 -3746 15410
83741 342751 273200 -3985 -3766 15426
83743 342762 273206 -3971 -3785 15426
83743 342769 273211 -3969 -3784 15438
83743 342749 273205 -3964 -3787 15433
83738 342732 273209 -3960 -3787 15419
83742 342754 273218 -3960 -3784 15420
83738 342713 273209 -3962 -3780 15416
83743 342748 273215 -4016 -3739 15408
83740 342728 273206 -4039 -3734 15404
83747 342764 273218 -4006 -3764 15423
83749 342784 273232 -3985 -3775 15425
83754 342816 273232 -3972 -3788 15412
83760 342843 273240 -3976 -3793 15420
83762 342858 273238 -3978 -3789 15414
83768 342880 273253 -3987 -3781 15421
83768 342895 273241 -3993 -3786 15436
83764 342893 273243 -3978 -3804 15431
83772 342920 273259 -4052 -3741 15390
83771 342888 273239 -4016 -3754 15405
83760 342860 273239 -3991 -3777 15430
83762 342849 273226 -3987 -3783 15429
83747 342771 273218 -3977 -3790 15430
83742 342751 273205 -3964 -3794 15426
83738 342724 273205 -3958 -3789 15435
83740 342738 273207 -3959 -3793 15442
83741 342743 273209 -3961 -3788 15432
83738 342721 273203 -3978 -3804 15431
83718 342618 273199 -4052 -3741 15390
83747 342775 273222 -4016 -3754 15405
83764 342868 273240 -3991 -3777 15430
83761 342829 273236 -3987 -3783 15429
83745 342766 273228 -3977 -3790 15430
83762 342860 273238 -3964 -3794 15426
83755 342828 273223 -3958 -3789 15435
83732 342694 273206 -3959 -3793 15442
83741 342742 273216 -3961 -3788 15432
83722 342643 273202 -4010 -3755 15377
83718 342628 273194 -3988 -3753 15380
83721 342656 273193 -3980 -3760 15412
83718 342621 273198 -3964 -3768 15425
83720 342614 273201 -3952 -3780 15445
83727 342670 273208 -3959 -3762 15445
83716 342625 273195 -3961 -3767 15452
83705 342566 273189 -3948 -3797 15452
83718 342628 273199 -3955 -3789 15438
83708 342582 273196 -3987 -3771 15420
83699 342534 273183 -3998 -3761 15393
83703 342549 273178 -3980 -3767 15402
83696 342502 273178 -3962 -3788 15418
83697 342510 273180 -3953 -3800 15421
83694 342506 273179 -3958 -3789 15426
83710 342583 273189 -3956 -3791 15427
83676 342408 273174 -3953 -3802 15445
83712 342578 273205 -3950 -3802 15444
83730 342688 273220 -3945 -3804 15434
83707 342560 273198 -3964 -3800 15444
83712 342586 273194 -4004 -3757 15428
83699 342508 273170 -4013 -3741 15434
83681 342404 273156 -3982 -3778 15444
83678 342390 273156 -3964 -3794 15442
83669 342335 273148 -3968 -3782 15456
83663 342315 273147 -3958 -3796 15455
83660 342307 273142 -3957 -3814 15449
83654 342284 273137 -3969 -3803 15446
83665 342319 273153 -3959 -3801 15452
83685 342410 273171 -3960 -3786 15456
83662 342312 273158 -3987 -3752 15423
83684 342439 273192 -3991 -3754 15414
83697 342531 273210 -3966 -3783 15427
83695 342506 273206 -3947 -3794 15434
83689 342469 273189 -3930 -3810 15438
83698 342492 273198 -3932 -3821 15430
83714 342587 273237 -3939 -3825 15443
83722 342632 273251 -3937 -3837 15450
83742 342742 273276 -3951 -3821 15456
83834 343204 273647 -3952 -3817 15465
84567 346408 276230 -3982 -3791 15437
84345 345420 275400 -4005 -3760 15425
85792 351983 280851 -3974 -3777 15432
86591 355227 283240 -3961 -3793 15427
85852 351925 280566 -3959 -3809 15432
85909 352359 281050 -3950 -3810 15442
87117 357726 285409 -3945 -3814 15460
87790 360597 287639 -3945 -3812 15460
87790 360539 287576 -3944 -3800 15486
87701 360204 287335 -3988 -3767 15425
88134 362177 288988 -4033 -3736 15397
88691 364587 290913 -4086 -3721 15444
88491 363615 290057 -4226 -3663 15303
88145 362113 288877 -4275 -3647 15267
87970 361339 288232 -4183 -3720 15408
87535 359376 286616 -4189 -3725 15426
86819 356190 284017 -4339 -3656 15320
85984 352510 281077 -4451 -3620 15256
85806 351841 280589 -4472 -3616 15292
85530 350517 279434 -4469 -3629 15344
88856 365305 291467 -4111 -3723 15431
88680 364491 290788 -4157 -3707 15378
88132 362022 288775 -4228 -3679 15347
87824 360716 287783 -4239 -3690 15401
88009 361588 288519 -4326 -3662 15410
88429 363466 290039 -4539 -3580 15261
88903 365562 291728 -4656 -3550 15195
89067 366250 292251 -4673 -3561 15263
88933 365630 291752 -4679 -3567 15285
88891 365470 291644 -4684 -3555 15276
88661 364398 290731 -4688 -3526 15262
88440 363452 289994 -4626 -3542 15302
88468 363573 290112 -4541 -3601 15363
88518 363799 290310 -4524 -3622 15348
88701 364636 291012 -4566 -3605 15323
88848 365282 291504 -4634 -3569 15282
89037 366118 292197 -4693 -3544 15244
89047 366151 292196 -4701 -3563 15267
88932 365619 291767 -4689 -3581 15244
88858 365291 291510 -4684 -3580 15236
88791 365007 291287 -4652 -3561 15277
88769 364890 291210 -4622 -3546 15278
88758 364875 291196 -4617 -3564 15291
88852 365290 291524 -4640 -3579 15282
88896 365496 291676 -4665 -3587 15285
88589 364053 290479 -4685 -3581 15268
88375 363200 289862 -4706 -3563 15246
88626 364316 290764 -4702 -3558 15261
88774 364938 291261 -4684 -3560 15258
88956 365792 291955 -4681 -3568 15271
89090 366366 292398 -4669 -3522 15275
89106 366437 292452 -4671 -3552 15279
89056 366189 292256 -4682 -3564 15246
88969 365790 291930 -4681 -3565 15253
88877 365394 291630 -4629 -3600 15297
88803 365072 291356 -4600 -3612 15312
88812 365116 291416 -4635 -3593 15285
88861 365334 291600 -4653 -3589 15284
88991 365930 292072 -4687 -3580 15279
89141 366579 292585 -4694 -3538 15237
88748 364749 291042 -4711 -3551 15231
88257 362652 289441 -4703 -3560 15226
88573 364120 290644 -4695 -3571 15241
88824 365180 291452 -4680 -3583 15245
88665 364458 290869 -4673 -3587 15258
88777 364995 291344 -4683 -3593 15258
89004 365972 292117 -4692 -3581 15245
89048 366202 292306 -4731 -3557 15201
89181 366768 292741 -4687 -3567 15222
89092 366343 292419 -4613 -3584 15302
89038 366117 292242 -4644 -3570 15258
88997 365918 292060 -4677 -3571 15221
88910 365574 291798 -4657 -3596 15275
88906 365551 291779 -4661 -3596 15269
88968 365831 292019 -4694 -3585 15251
89059 366238 292340 -4713 -3580 15251
88946 365674 291843 -4726 -3571 15232
88481 363654 290240 -4722 -3581 15241
88666 364515 290981 -4735 -3568 15246
88692 364564 290976 -4752 -3544 15256
88474 363605 290213 -4740 -3558 15248
88435 363457 290120 -4723 -3579 15246
88552 363981 290542 -4713 -3591 15262
88609 364223 290706 -4722 -3575 15222
88552 363963 290503 -4732 -3562 15211
88579 364098 290629 -4672 -3597 15281
88706 364679 291089 -4651 -3602 15289
88860 365359 291633 -4681 -3586 15261
88752 364835 291202 -4653 -3572 15289
88710 364681 291109 -4658 -3587 15270
88567 364027 290593 -4643 -3583 15271
88595 364175 290695 -4652 -3603 15261
88669 364512 290971 -4649 -3606 15255
88656 364435 290896 -4647 -3600 15280
88625 364292 290789 -4636 -3606 15307
88529 363852 290421 -4643 -3604 15306
88424 363387 290057 -4656 -3596 15286
88388 363223 289932 -4636 -3596 15273
88297 362817 289597 -4647 -3549 15271
88058 361720 288697 -4660 -3564 15282
87824 360713 287898 -4668 -3588 15287
87741 360347 287603 -4660 -3605 15277
87667 360019 287335 -4650 -3611 15287
87538 359432 286858 -4636 -3614 15295
87352 358614 286178 -4629 -3609 15290
87089 357445 285241 -4614 -3614 15294
86861 356434 284418 -4576 -3630 15321
86661 355564 283721 -4547 -3615 15317
86586 355238 283449 -4528 -3620 15305
86335 354095 282486 -4495 -3629 15307
85802 351741 280582 -4451 -3644 15310
85675 351250 280232 -4423 -3654 15335
85762 351634 280508 -4376 -3669 15357
85705 351362 280278 -4344 -3681 15365
85467 350295 279410 -4338 -3679 15330
85447 350257 279400 -4303 -3685 15316
85543 350643 279691 -4258 -3705 15355
85514 350517 279558 -4253 -3701 15347
85386 349989 279161 -4252 -3699 15340
85538 350653 279681 -4223 -3710 15338
85543 350683 279683 -4181 -3719 15361
85387 349967 279091 -4165 -3732 15390
85342 349793 278989 -4173 -3731 15357
85381 349952 279086 -4165 -3737 15365
85244 349351 278591 -4161 -3753 15383
85156 348968 278264 -4165 -3746 15380
84875 347701 277229 -4181 -3709 15365
84765 347289 276913 -4192 -3686 15358
84829 347556 277119 -4195 -3693 15369
84780 347335 276904 -4174 -3709 15361
84589 346491 276239 -4142 -3715 15367
84707 347047 276699 -4127 -3715 15374
84695 346938 276566 -4107 -3738 15389
84626 346696 276402 -4097 -3752 15414
84725 347114 276732 -4098 -3745 15394
84821 347528 277064 -4085 -3739 15380
84615 346581 276279 -4071 -3748 15412
84700 347013 276655 -4105 -3717 15401
84660 346781 276412 -4127 -3700 15402
84366 345515 275402 -4089 -3733 15432
84455 345916 275743 -4073 -3743 15435
84294 345170 275075 -4088 -3734 15417
83940 343628 273833 -4074 -3726 15429
83852 343296 273579 -4066 -3730 15449
83890 343460 273700 -4077 -3733 15403
83883 343407 273657 -4044 -3747 15417
83821 343160 273451 -4030 -3757 15424
83809 343112 273421 -4068 -3724 15375
83824 343155 273450 -4071 -3713 15390
83831 343204 273488 -4026 -3739 15418
83824 343174 273451 -4009 -3752 15430
83820 343149 273428 -4003 -3756 15441
83817 343143 273418 -3999 -3759 15424
83816 343125 273420 -3994 -3777 15431
83818 343149 273413 -3983 -3780 15430
83813 343113 273410 -3986 -3772 15422
83816 343112 273408 -3979 -3777 15429
83817 343119 273418 -4062 -3707 15410
83812 343109 273402 -4032 -3737 15412
83813 343119 273396 -4012 -3750 15399
83810 343108 273405 -3996 -3763 15402
83810 343108 273412 -3982 -3767 15408
83817 343122 273404 -3980 -3771 15418
83816 343143 273411 -3978 -3784 15409
83809 343079 273398 -3983 -3780 15410
83815 343126 273431 -3983 -3777 15425
84050 344203 274285 -4047 -3723 15416
84200 344808 274728 -4027 -3745 15417
83882 343419 273609 -4015 -3752 15419
84130 344571 274602 -4002 -3766 15417
84541 346330 275994 -3987 -3782 15422
84560 346368 275998 -4006 -3753 15428
84393 345635 275376 -4017 -3745 15418
83985 343830 273923 -4001 -3765 15447
84125 344552 274582 -3999 -3767 15440
84494 346097 275768 -4112 -3681 15377
84318 345313 275118 -4108 -3681 15381
84069 344219 274247 -4046 -3728 15435
84176 344778 274755 -4027 -3749 15444
84750 347273 276752 -4054 -3739 15385
84734 347147 276584 -4053 -3733 15394
84617 346631 276212 -4025 -3745 15427
84713 347115 276645 -4022 -3751 15460
85642 351278 280057 -4062 -3734 15418
86301 354037 282192 -4101 -3720 15381
85950 352433 280857 -4144 -3696 15400
85836 352019 280586 -4123 -3715 15436
86006 352759 281184 -4146 -3714 15424
86126 353255 281574 -4262 -3664 15323
85926 352347 280827 -4273 -3666 15325
85683 351297 279975 -4230 -3691 15381
85594 350899 279671 -4231 -3691 15373
85555 350763 279568 -4265 -3666 15361
85565 350795 279575 -4279 -3669 15352
85348 349827 278792 -4256 -3682 15360
85351 349881 278863 -4264 -3651 15366
85573 350855 279655 -4261 -3642 15366
85628 351043 279765 -4259 -3660 15367
85396 350029 278970 -4243 -3675 15372
85513 350585 279452 -4192 -3692 15403
84039 344136 274174 -4100 -3705 15414
84244 345031 274892 -4056 -3732 15431
84203 344811 274671 -4055 -3727 15431
84031 344109 274125 -4061 -3728 15403
84189 344787 274664 -4032 -3753 15416
84064 344227 274197 -4085 -3683 15362
83966 343823 273867 -4066 -3719 15408
84128 344559 274480 -4049 -3753 15421
84041 344108 274063 -4051 -3752 15404
83857 343355 273495 -4045 -3755 15413
83865 343354 273496 -4025 -3765 15403
83847 343289 273428 -4037 -3752 15392
83840 343276 273437 -4041 -3764 15395
83841 343290 273435 -4026 -3775 15419
83839 343258 273422 -4087 -3738 15372
83842 343262 273422 -4076 -3742 15401
83845 343249 273429 -4038 -3745 15422
83837 343235 273421 -4016 -3735 15420
83835 343226 273420 -4008 -3739 15433
83829 343213 273420 -4000 -3752 15426
83827 343198 273409 -3998 -3755 15430
83827 343187 273413 -3993 -3756 15426
83822 343171 273415 -3993 -3746 15427
83816 343140 273401 -4014 -3728 15434
83811 343117 273399 -4046 -3712 15423
83808 343097 273396 -4045 -3720 15437
83801 343063 273391 -4017 -3751 15436
83797 343042 273387 -4000 -3761 15428
83797 343023 273379 -3989 -3766 15435
83796 343020 273393 -3992 -3778 15425
83802 343064 273401 -4004 -3787 15423
83789 342990 273383 -4000 -3795 15415
83788 342973 273379 -3994 -3787 15414
83817 343111 273417 -4011 -3755 15417
83819 343146 273427 -4048 -3730 15402
83851 343306 273502 -4049 -3744 15406
83841 343229 273445 -4021 -3756 15410
83835 343214 273431 -4005 -3765 15410
83818 343145 273410 -3994 -3775 15412
83771 342886 273373 -3996 -3770 15406
83779 342926 273370 -4001 -3776 15425
83753 342781 273339 -4010 -3766 15425
83691 342456 273278 -3998 -3778 15427
83561 341726 273133 -3988 -3796 15435
83510 341448 273072 -4027 -3760 15409
83542 341606 273097 -4049 -3749 15405
83292 340189 272642 -4014 -3805 15408
82991 338646 272096 -3950 -3879 15429
83351 340676 272842 -3954 -3868 15438
83961 343750 274173 -3967 -3853 15421
84470 346018 275993 -3866 -3956 15471
84956 348102 277606 -3770 -4052 15494
84752 347193 276786 -3909 -3895 15463
84634 346578 276186 -4055 -3747 15444
83743 342703 273418 -4117 -3726 15380
83690 342402 273375 -4164 -3703 15358
83642 342149 273308 -4154 -3717 15284
83643 342193 273306 -4115 -3726 15304
83779 342797 273600 -4058 -3746 15416
83612 341787 273403 -4065 -3732 15382
82476 335563 270664 -4045 -3752 15377
77435 311237 254990 -4011 -3786 15379
77308 310756 255415 -4079 -3748 15350
81066 327693 265320 -4097 -3774 15260
83775 329940 271643 -2562 -4793 15448
73944 295328 245967 -2235 -4881 15740
68070 279088 233054 -2252 -5794 14790
61015 272738 225264 -1953 -5961 14709
71413 319826 275361 -1553 -5745 15449
60263 252298 236312 -461 -5732 14202
61366 233581 233218 437 -4501 13650
68192 259252 242413 1776 -2363 14857
67877 297292 236173 3246 -1231 15784
72346 349760 260295 3392 -2966 14923
84723 388721 296429 2840 -3244 13989
86285 392941 300901 360 -2287 14448
76025 347391 262185 -3283 -405 15078
68637 297842 232131 -5347 -1212 13513
47164 196769 157248 -4562 -3887 13802
46155 189659 157734 -2261 -4313 15043
61329 246334 206852 -1125 -3612 16027
48256 195329 157017 -531 -3497 16373
47546 200250 159231 203 -3405 15859
63469 261808 212542 391 -3534 16028
75827 297853 245300 375 -2955 16488
74966 292896 232648 248 -2674 15776
56233 240435 184405 -428 -2770 15428
35935 177181 127277 -1167 -2876 15538
34708 160650 123175 -1228 -3047 15637
33487 156208 112640 -1038 -2986 16108
25389 122279 88420 -610 -2872 16060
28368 158671 107117 -141 -2398 16038
27967 148448 102337 -34 -2007 16247
23670 136815 89645 -2 -2060 16352
27806 169956 106737 141 -2103 16198
20560 145867 80883 215 -1985 16392
22303 144953 91446 210 -1977 16207
28565 173418 110169 284 -2092 15945
25360 157831 97388 179 -2181 16211
23076 163125 94962 9 -2290 16254
25036 173393 100950 61 -2290 16180
26224 171375 101129 139 -2246 16341
20451 153107 85658 155 -2311 16223
20848 139571 85474 109 -2480 16015
22066 150847 90272 146 -2498 16261
16810 126288 70360 109 -2519 15689
19153 136027 78790 131 -2489 15157
21556 150333 88936 158 -2299 15737
17490 112269 69615 84 -2236 16209
24026 154891 96060 77 -2210 16048
29193 160407 110376 39 -2298 16092
19974 103664 70029 7 -2222 16279
27072 140948 102740 110 -2337 15720
31377 168162 112556 -191 -2514 16099
24526 152305 94651 -77 -2224 16040
25095 144825 97982 254 -2346 15480
31543 204646 122119 222 -2408 15709
33206 233024 134407 347 -2222 15268
37968 254881 153480 292 -2650 13332
58950 307478 218307 108 -3120 13114
48690 340375 200589 -418 -2799 14764
48079 352416 205224 -879 -2969 14018
51740 337114 207170 -1724 -3280 13092
49297 339255 204644 -2448 -3390 13303
49708 354016 208414 -2904 -4185 14264
46028 358082 198250 -3202 -4433 14718
57358 408245 237625 -3666 -4457 14663
62368 442420 251965 -4505 -3834 15520
68063 462319 273107 -5036 -2413 15614
68099 467897 271093 -5835 -1082 15760
82709 497881 313963 -6468 359 15047
91666 470187 323333 -7323 685 14266
74125 364361 244259 -7611 1766 14362
63390 306803 203461 -7238 4055 14419
66607 313275 215501 -7619 5097 13143
69608 323804 225605 -8418 5356 11445
69262 321005 223808 -8735 5693 11416
69807 318100 223258 -9003 5400 12130
69453 315168 221339 -9247 4960 12320
69819 315742 222020 -9152 5283 12286
68746 309749 216747 -9142 5462 12224
67027 301422 209373 -9276 5283 12259
65708 294947 203388 -9316 5283 12270
65018 291851 200599 -9321 5387 12162
65583 294220 202642 -9380 5522 12035
65852 295474 203880 -9441 5676 11892
66693 299056 207037 -9449 5776 11899
63931 291831 200030 -9525 5626 11918
64410 300644 207274 -9348 5830 12038
71107 321358 225831 -9214 5958 11993
53999 246863 159079 -9723 4951 11597
36601 174449 104063 -9651 4698 12904
32151 158649 93119 -9359 5238 13587
38062 190432 116862 -9560 6066 11315
52650 253216 166563 -10181 6489 9222
55019 263889 173333 -10874 5935 8483
50337 241049 154937 -10453 6174 9902
50971 238602 153834 -10122 5876 12018
52123 240828 155617 -10226 5293 12040
47442 220367 139798 -10002 5898 11155
43778 204915 129192 -9856 6302 11245
43884 205207 129549 -9909 6247 11526
42878 200881 126400 -9911 6548 10820
42865 200744 126414 -10103 6806 10598
42489 199033 125143 -10118 6837 10463
42457 198976 125150 -10111 6866 10465
42220 197776 124197 -10119 6871 10413
41450 194296 121725 -10168 6784 10479
41479 194394 121853 -10206 6792 10474
41684 195208 122400 -10166 6921 10306
41364 193698 121253 -10145 6964 10306
41064 192253 120210 -10163 6913 10372
40965 191749 119840 -10255 6920 10348
40909 191382 119526 -10228 6938 10355
40628 190120 118600 -10247 6919 10330
40457 189318 117991 -10261 6918 10258
40479 189426 118093 -10247 6943 10232
40383 188932 117685 -10257 6950 10245
40268 188465 117338 -10262 6944 10228
40218 188193 117118 -10261 6963 10220
40135 187800 116828 -10250 6970 10222
40064 187481 116594 -10272 6965 10187
39989 187121 116309 -10324 6957 10203
39923 186816 116095 -10317 6954 10211
39848 186466 115818 -10289 6965 10202
39775 186141 115581 -10273 6973 10189
39746 186011 115474 -10267 6980 10171
39725 185908 115397 -10278 6974 10155
39687 185744 115273 -10279 6952 10151
39657 185599 115160 -10291 6950 10163
39613 185418 115016 -10292 6955 10165
39588 185295 114922 -10310 6956 10167
39553 185140 114799 -10371 6963 10165
39535 185069 114747 -10377 6965 10149
39493 184872 114591 -10355 6970 10153
39443 184638 114418 -10338 6965 10147
39407 184469 114287 -10329 6956 10137
39365 184263 114132 -10349 6960 10147
39324 184055 113974 -10347 6969 10140
39274 183828 113804 -10343 6977 10128
39229 183615 113650 -10349 6975 10117
39193 183461 113527 -10361 6973 10115
39167 183342 113435 -10406 6977 10135
39137 183207 113335 -10411 6974 10135
39104 183058 113222 -10394 6983 10121
39052 182825 113045 -10385 6981 10107
39007 182624 112891 -10369 6977 10101
38965 182462 112771 -10381 6984 10105
38944 182355 112688 -10389 6974 10097
38923 182263 112618 -10399 6979 10090
38896 182128 112530 -10405 6968 10099
38880 182059 112467 -10401 6965 10103
38842 181893 112342 -10464 6960 10095
38809 181729 112215 -10439 6968 10083
38778 181578 112108 -10427 6965 10076
38744 181429 111999 -10421 6960 10068
38711 181274 111881 -10424 6963 10065
38676 181121 111774 -10419 6956 10065
38650 181010 111683 -10424 6966 10073
38615 180830 111554 -10434 6975 10065
38584 180698 111458 -10442 6984 10054
38543 180509 111317 -10500 6960 10056
38499 180320 111184 -10486 6972 10069
38465 180170 111075 -10472 6978 10069
38462 180153 111073 -10468 6972 10057
38475 180208 111111 -10470 6969 10049
38470 180179 111084 -10461 6968 10047
38431 180014 110959 -10470 6977 10052
38421 179964 110913 -10474 6960 10055
38397 179865 110830 -10468 6955 10056
38371 179743 110732 -10442 6984 10054
38372 179740 110724 -10500 6960 10056
38339 179601 110613 -10486 6972 10069
38315 179515 110542 -10472 6978 10069
38267 179289 110367 -10468 6972 10057
38224 179111 110235 -10470 6969 10049
38204 179008 110158 -10461 6968 10047
38180 178900 110075 -10470 6977 10052
38147 178748 109958 -10474 6960 10055
38116 178609 109850 -10468 6955 10056
38097 178534 109798 -10505 6946 10044
38076 178436 109715 -10516 6954 10038
38010 178151 109497 -10519 6957 10040
37871 177528 109033 -10505 6961 10040
37876 177557 109068 -10494 6977 10040
37905 177722 109197 -10496 6984 10034
38089 178496 109760 -10511 6992 10029
37943 177825 109242 -10510 6985 10044
37925 177781 109230 -10512 6997 10053
37975 177990 109370 -10533 6991 10038
37968 177983 109358 -10521 6971 10021
37860 177466 108968 -10524 6991 10044
37790 177167 108770 -10523 6998 10035
37799 177210 108794 -10513 7003 10010
37805 177231 108815 -10515 7014 10018
37753 176986 108637 -10525 6974 10059
37725 176856 108546 -10542 6962 10054
37766 177034 108680 -10519 6991 10010
37760 176995 108640 -10511 6994 10022
37763 177010 108661 -10537 6965 10034
37768 177028 108666 -10555 6944 10016
37780 177067 108694 -10559 6974 9996
37758 176978 108639 -10549 6985 9999
37793 177125 108741 -10555 6988 10007
37739 176874 108562 -10561 6991 10010
37690 176651 108401 -10543 6988 10004
37608 176310 108168 -10545 7000 10004
37646 176478 108294 -10549 6996 10003
37596 176246 108126 -10551 6994 10007
37563 176104 108035 -10567 6983 10007
37590 176220 108127 -10573 6961 9991
37616 176328 108213 -10582 6967 9991
37669 176541 108370 -10578 6965 10000
37809 177180 108863 -10572 6966 10003
38374 179571 110625 -10582 6967 10003
38753 181170 111772 -10569 6972 9987
39022 182280 112573 -10574 6981 9985
38967 182061 112396 -10581 6971 9989
39055 182425 112672 -10585 6990 9988
39099 182624 112819 -10587 6995 9996
39429 184063 113885 -10612 6979 9990
39404 183891 113718 -10597 6984 9940
39433 184048 113837 -10588 6973 9936
39426 184002 113798 -10574 6927 10015
39478 184231 113957 -10557 6888 10068
39477 184249 113970 -10565 6873 10085
39529 184456 114097 -10560 6851 10074
39448 184110 113842 -10546 6853 10073
39390 183864 113651 -10525 6853 10077
39333 183625 113476 -10563 6833 10134
39209 183026 113023 -10538 6834 10106
39024 182179 112400 -10521 6843 10123
38903 181624 112006 -10506 6834 10115
38875 181509 111928 -10495 6812 10108
38857 181412 111859 -10515 6805 10122
38902 181616 112008 -10517 6802 10108
39016 182123 112378 -10522 6812 10102
39192 182902 112943 -10532 6799 10109
39329 183519 113398 -10555 6825 10095
39433 183985 113726 -10525 6867 10070
39543 184429 114042 -10516 6889 10065
39465 184073 113771 -10511 6892 10066
39480 184153 113831 -10503 6912 10067
39428 183929 113658 -10513 6916 10083
39308 183380 113263 -10502 6894 10094
39191 182845 112869 -10513 6872 10109
39105 182443 112580 -10530 6833 10105
39092 182378 112542 -10534 6814 10112
39131 182553 112672 -10554 6819 10121
39172 182737 112801 -10558 6818 10114
39214 182914 112934 -10545 6820 10118
39298 183290 113207 -10533 6812 10103
39390 183677 113489 -10534 6824 10097
39423 183831 113593 -10526 6853 10086
39406 183746 113528 -10515 6864 10069
39369 183574 113398 -10528 6877 10078
39313 183322 113214 -10509 6862 10080
39237 182992 112966 -10503 6847 10073
39167 182676 112741 -10543 6846 10061
39094 182356 112507 -10552 6833 10065
39049 182150 112362 -10544 6822 10083
39031 182052 112294 -10535 6800 10094
39017 181990 112244 -10541 6791 10108
39014 181989 112241 -10558 6796 10117
39031 182053 112284 -10553 6802 10103
39048 182128 112336 -10536 6813 10091
39060 182174 112361 -10524 6797 10092
39046 182118 112322 -10524 6811 10085
39019 181981 112220 -10548 6844 10058
38951 181696 112016 -10537 6853 10070
38910 181500 111868 -10530 6837 10073
38854 181269 111698 -10549 6848 10075
38784 180948 111466 -10550 6846 10064
38722 180666 111265 -10535 6826 10056
38690 180512 111160 -10552 6822 10060
38684 180492 111136 -10547 6812 10062
38687 180503 111146 -10553 6827 10075
38691 180510 111154 -10595 6842 10090
38721 180642 111248 -10607 6847 10094
38748 180756 111328 -10584 6853 10089
38581 179999 110769 -10589 6842 10041
38617 180145 110870 -10612 6839 10048
38646 180275 110970 -10613 6844 10053
38659 180329 110999 -10594 6854 10049
38648 180275 110957 -10594 6864 10042
38632 180209 110910 -10591 6856 10037
38625 180174 110880 -10592 6862 10045
38607 180107 110833 -10611 6862 10023
38587 180004 110758 -10601 6853 10037
38581 179968 110731 -10593 6845 10036
38569 179922 110696 -10600 6860 10034
38561 179885 110676 -10604 6857 10039
38539 179784 110597 -10591 6853 10042
38521 179702 110537 -10601 6856 10037
38528 179734 110559 -10597 6850 10029
38532 179749 110570 -10604 6861 10034
38534 179765 110579 -10637 6869 10036
38554 179842 110636 -10618 6867 10039
38552 179845 110628 -10600 6865 10030
38544 179790 110593 -10612 6882 10030
38521 179706 110526 -10602 6878 10031
38510 179650 110486 -10592 6875 10028
38475 179502 110375 -10599 6869 10026
38408 179210 110164 -10600 6853 10029
38379 179065 110061 -10617 6865 10035
38347 178918 109953 -10630 6848 10023
38349 178920 109962 -10619 6846 10019
38382 179073 110074 -10620 6844 10016
38424 179257 110207 -10631 6853 10019
38456 179384 110287 -10622 6862 10020
38456 179377 110288 -10616 6883 10013
38461 179400 110297 -10610 6882 10008
38440 179308 110230 -10598 6866 10019
38396 179124 110092 -10599 6867 10035
38362 178961 109981 -10612 6858 10034
38346 178905 109937 -10633 6850 10024
38334 178849 109897 -10641 6837 10022
38317 178776 109842 -10631 6834 10025
38298 178682 109780 -10636 6844 10024
38301 178684 109773 -10638 6852 10018
38305 178701 109791 -10650 6874 10021
38294 178656 109753 -10655 6874 10022
38293 178660 109752 -10643 6872 10014
38282 178604 109712 -10640 6886 10021
38267 178531 109656 -10627 6882 10022
38272 178554 109675 -10632 6879 10027
38249 178461 109606 -10634 6869 10029
38239 178411 109568 -10636 6864 10033
38225 178347 109529 -10643 6874 10036
38213 178293 109479 -10640 6872 10024
38198 178224 109439 -10660 6873 10024
38185 178169 109395 -10656 6865 10018
38208 178275 109474 -10649 6858 10010
38149 177994 109268 -10654 6861 10014
38113 177830 109157 -10636 6850 10008
38106 177801 109131 -10641 6858 9993
38109 177815 109142 -10642 6861 9978
38081 177688 109049 -10642 6850 9999
38089 177728 109077 -10649 6854 10025
38104 177780 109111 -10633 6864 10016
38136 177918 109210 -10638 6880 10003
38172 178077 109326 -10650 6875 10005
38191 178162 109379 -10653 6871 10006
38177 178101 109330 -10664 6882 10002
38148 177975 109240 -10661 6870 10002
38123 177869 109157 -10655 6857 9986
38065 177607 108978 -10668 6846 10001
38013 177378 108813 -10680 6850 10011
37981 177229 108705 -10663 6846 9996
37960 177123 108635 -10666 6859 10005
37958 177106 108624 -10665 6863 10015
37974 177170 108674 -10662 6872 10010
38001 177294 108757 -10671 6888 10005
38031 177431 108850 -10666 6884 9998
38041 177467 108878 -10660 6882 10006
38042 177474 108877 -10665 6882 9998
38036 177445 108858 -10672 6881 10009
38007 177315 108760 -10663 6866 10012
37969 177152 108642 -10668 6868 10010
37932 176995 108530 -10664 6860 10001
37916 176909 108464 -10655 6860 10000
37897 176828 108413 -10662 6868 9994
37891 176787 108385 -10653 6873 9974
37892 176795 108389 -10668 6900 9964
37889 176785 108378 -10687 6905 9967
37887 176786 108376 -10695 6905 9975
37886 176764 108363 -10692 6900 9978
37859 176654 108284 -10665 6885 9979
37846 176595 108238 -10677 6893 9999
37822 176495 108167 -10686 6888 10008
37799 176380 108079 -10676 6888 9999
37776 176284 108011 -10680 6887 10004
37756 176190 107946 -10674 6877 9998
37742 176109 107893 -10682 6885 9988
37729 176049 107850 -10702 6876 9974
37721 176014 107825 -10719 6876 9969
37721 176015 107821 -10713 6877 9970
37717 175996 107807 -10698 6882 9964
37723 176011 107814 -10705 6901 9963
37718 175992 107803 -10690 6903 9960
37702 175927 107751 -10677 6911 9966
37694 175894 107733 -10687 6907 9980
37686 175858 107706 -10672 6888 9978
37676 175806 107667 -10676 6883 9977
37661 175748 107625 -10697 6872 9967
37650 175689 107580 -10712 6880 9959
37649 175682 107573 -10706 6890 9972
37646 175665 107557 -10693 6886 9972
37647 175665 107560 -10711 6904 9980
37654 175697 107581 -10706 6902 9981
37650 175691 107583 -10704 6894 9976
37662 175731 107606 -10723 6889 9981
37662 175727 107601 -10714 6883 9980
37642 175644 107540 -10710 6891 9989
37628 175586 107499 -10701 6912 9964
37611 175506 107439 -10706 6913 9964
37600 175460 107404 -10711 6901 9965
37581 175377 107344 -10722 6901 9971
37566 175299 107291 -10712 6889 9970
37564 175301 107293 -10699 6886 9974
37513 175054 107103 -10725 6909 9973
37507 175020 107083 -10721 6897 9956
37504 175010 107071 -10724 6897 9943
37501 174996 107061 -10748 6900 9939
37508 175027 107081 -10758 6888 9941
37506 175005 107069 -10754 6876 9936
37495 174963 107033 -10750 6880 9952
37492 174961 107030 -10730 6868 9959
37486 174917 107001 -10739 6874 9963
37476 174872 106968 -10741 6880 9969
37464 174825 106934 -10724 6876 9966
37450 174769 106891 -10732 6894 9965
37449 174755 106878 -10733 6898 9954
37441 174716 106858 -10733 6906 9939
37438 174687 106838 -10729 6901 9941
37438 174686 106835 -10725 6884 9946
37432 174670 106822 -10742 6884 9947
37432 174678 106824 -10741 6875 9947
37423 174637 106791 -10751 6881 9940
37418 174606 106775 -10744 6881 9936
37417 174620 106780 -10715 6879 9936
37411 174583 106754 -10724 6895 9949
37408 174564 106740 -10738 6900 9963
37396 174517 106706 -10747 6910 9958
37386 174463 106663 -10736 6909 9946
37385 174457 106657 -10721 6908 9950
37374 174404 106624 -10730 6912 9954
37373 174401 106617 -10733 6894 9941
37373 174398 106619 -10740 6885 9941
37367 174370 106599 -10743 6875 9952
37367 174376 106600 -10738 6875 9946
37359 174341 106575 -10754 6884 9949
37359 174343 106572 -10755 6876 9935
37352 174312 106554 -10743 6894 9894
37345 174264 106519 -10763 6898 9921
37342 174255 106513 -10768 6906 9939
37328 174188 106509 -10759 6886 9943
37316 174143 106471 -10759 6891 9953
37310 174122 106462 -10757 6893 9953
37297 174059 106418 -10759 6896 9948
37300 174058 106416 -10770 6903 9948
37294 174034 106398 -10765 6891 9938
37280 173972 106351 -10753 6873 9912
37271 173942 106331 -10746 6894 9927
37272 173935 106320 -10748 6917 9935
37269 173917 106308 -10746 6912 9940
37252 173830 106250 -10762 6915 9954
37241 173797 106220 -10762 6924 9948
37239 173791 106219 -10740 6929 9951
37227 173741 106179 -10740 6931 9965
37223 173707 106157 -10745 6909 9953
37212 173673 106133 -10742 6891 9929
37210 173657 106118 -10730 6897 9909
37210 173664 106118 -10743 6914 9921
37194 173591 106065 -10757 6911 9931
37174 173500 106001 -10774 6915 9943
37150 173396 105928 -10783 6914 9946
37126 173295 105852 -10786 6908 9942
37106 173197 105789 -10775 6913 9946
37076 173067 105697 -10747 6911 9936
37055 172964 105626 -10745 6900 9904
37045 172924 105596 -10734 6905 9911
37049 172938 105605 -10739 6925 9925
37057 172968 105628 -10744 6925 9936
37046 172910 105586 -10768 6943 9938
37035 172859 105546 -10777 6935 9934
37025 172830 105524 -10773 6926 9929
37001 172723 105446 -10777 6922 9933
36954 172525 105302 -10772 6917 9927
36919 172350 105180 -10780 6929 9912
36895 172246 105112 -10767 6931 9876
36889 172202 105082 -10756 6940 9862
36876 172124 105027 -10763 6949 9885
36862 172073 104992 -10765 6938 9896
36864 172095 105005 -10780 6934 9890
36876 172136 105036 -10780 6929 9888
36890 172202 105082 -10782 6935 9897
36890 172200 105081 -10773 6941 9896
36878 172146 105033 -10755 6930 9904
36840 171985 104922 -10770 6929 9922
36779 171713 104717 -10779 6925 9889
36729 171491 104566 -10780 6937 9868
36712 171413 104513 -10782 6957 9884
36703 171369 104483 -10781 6963 9896
36698 171354 104474 -10793 6965 9911
36689 171310 104444 -10792 6953 9900
36692 171331 104458 -10798 6951 9895
36696 171350 104473 -10810 6950 9898
36699 171350 104470 -10800 6931 9891
36701 171356 104470 -10792 6935 9899
36690 171300 104434 -10779 6925 9889
36686 171292 104426 -10780 6937 9868
36673 171228 104373 -10782 6957 9884
36654 171150 104321 -10781 6963 9896
36653 171148 104319 -10793 6965 9911
36651 171140 104317 -10792 6953 9900
36651 171134 104310 -10798 6951 9895
36643 171099 104288 -10810 6950 9898
36645 171092 104282 -10800 6931 9891
36660 171169 104336 -10792 6935 9899
36656 171148 104318 -10780 6933 9878
36646 171101 104281 -10785 6931 9901
36643 171089 104276 -10784 6935 9889
36641 171087 104273 -10804 6945 9881
36640 171078 104263 -10816 6937 9881
36630 171031 104230 -10818 6947 9892
36624 171008 104212 -10816 6950 9899
36627 171020 104215 -10805 6945 9892
36619 170991 104195 -10817 6947 9898
36626 171014 104208 -10805 6925 9883
36617 170987 104188 -10794 6929 9867
36612 170966 104173 -10805 6945 9878
36617 170994 104191 -10813 6942 9887
36605 170949 104158 -10822 6947 9895
36599 170923 104136 -10821 6943 9895
36594 170911 104126 -10830 6947 9888
36587 170882 104099 -10827 6950 9887
36575 170820 104062 -10824 6947 9888
36566 170765 104026 -10836 6944 9895
36569 170766 104028 -10817 6927 9859
36563 170729 104003 -10817 6928 9875
36545 170640 103945 -10814 6931 9884
36537 170608 103925 -10828 6935 9888
36528 170569 103898 -10811 6930 9880
36526 170547 103880 -10813 6936 9887
36520 170525 103859 -10813 6935 9886
36508 170473 103825 -10820 6936 9878
36498 170435 103799 -10839 6943 9884
36479 170347 103739 -10826 6937 9874
36474 170307 103713 -10838 6924 9851
36463 170268 103687 -10837 6919 9843
36448 170191 103633 -10826 6942 9856
36448 170189 103627 -10826 6953 9870
36447 170182 103626 -10812 6946 9868
36438 170153 103600 -10830 6951 9873
36431 170106 103572 -10838 6951 9874
36421 170064 103543 -10831 6953 9856
36420 170053 103534 -10832 6948 9865
36408 170008 103502 -10830 6940 9874
36405 169979 103486 -10832 6942 9853
36399 169951 103465 -10824 6934 9835
36397 169941 103451 -10829 6945 9837
36405 169977 103476 -10834 6950 9846
36399 169954 103464 -10818 6947 9854
36375 169841 103383 -10829 6963 9865
36365 169817 103363 -10839 6964 9868
36384 169893 103414 -10843 6966 9873
36079 168534 102426 -10822 6941 9866
36016 168239 102265 -10810 6934 9862
35890 167656 101854 -10835 6952 9857
35834 167346 101660 -10822 6941 9841
35786 167112 101529 -10826 6949 9856
35805 167194 101582 -10840 6953 9872
35839 167343 101688 -10833 6953 9862
35881 167540 101822 -10836 6967 9848
36007 168101 102213 -10825 6930 9872
35936 167754 101937 -10827 6932 9835
35804 167221 101583 -10833 6985 9802
35820 167257 101596 -10811 6973 9801
35756 166994 101411 -10806 6937 9801
35720 166832 101297 -10850 6963 9829
35661 166560 101111 -10854 6977 9807
35570 166141 100827 -10841 7000 9789
35511 165846 100637 -10834 6964 9793
35482 165715 100557 -10845 6915 9827
35480 165698 100549 -10855 6946 9818
35480 165689 100544 -10864 6973 9801
35488 165725 100573 -10868 6986 9806
35540 165942 100733 -10868 6993 9754
35602 166213 100916 -10871 7005 9772
35658 166455 101078 -10859 7031 9781
35708 166673 101228 -10842 7052 9769
35723 166753 101271 -10847 7069 9776
35707 166686 101222 -10838 7065 9790
35650 166439 101045 -10839 7069 9791
35623 166319 100959 -10857 7062 9793
35577 166116 100816 -10862 7055 9795
35514 165846 100633 -10831 7018 9765
35479 165685 100525 -10844 7014 9778
35461 165599 100468 -10856 7016 9797
35448 165549 100435 -10850 7016 9796
35473 165648 100507 -10863 7025 9809
35488 165718 100553 -10869 7022 9800
35510 165808 100612 -10876 7037 9790
35527 165887 100669 -10874 7046 9799
35552 165997 100742 -10866 7057 9801
35551 165988 100735 -10869 7072 9796
35514 165821 100611 -10855 7055 9774
35480 165663 100506 -10857 7052 9769
35457 165576 100446 -10863 7053 9779
35433 165454 100369 -10851 7051 9779
35413 165387 100320 -10860 7049 9793
35414 165369 100316 -10859 7033 9803
35424 165406 100343 -10864 7049 9796
35445 165508 100409 -10866 7059 9784
35462 165590 100467 -10864 7058 9786
35480 165662 100517 -10868 7051 9791
35491 165698 100534 -10856 7040 9750
35495 165709 100546 -10866 7061 9737
35511 165780 100596 -10865 7067 9765
35467 165593 100460 -10856 7057 9770
35456 165546 100428 -10871 7063 9780
35443 165496 100390 -10866 7068 9788
35439 165471 100375 -10867 7068 9796
35422 165406 100325 -10878 7056 9807
35420 165385 100318 -10882 7048 9817
35448 165505 100400 -10882 7045 9822
35463 165575 100449 -10857 7018 9762
35466 165583 100450 -10869 7031 9776
35468 165602 100460 -10873 7030 9782
35468 165595 100455 -10882 7029 9781
35481 165645 100498 -10884 7029 9772
35465 165585 100449 -10895 7036 9783
35443 165483 100373 -10889 7033 9795
35434 165436 100349 -10886 7033 9795
35427 165406 100329 -10885 7037 9784
35452 165519 100408 -10867 7022 9746
35479 165651 100494 -10872 7009 9728
35496 165716 100539 -10888 7007 9746
35537 165903 100667 -10895 7025 9767
35573 166064 100776 -10896 7039 9788
35591 166129 100817 -10901 7037 9783
35422 165362 100269 -10917 7042 9772
35356 165109 100116 -10912 7031 9772
35310 164895 99955 -10908 7041 9772
35296 164828 99921 -10899 7054 9778
35273 164723 99851 -10872 6999 9734
35254 164635 99790 -10877 6987 9755
35243 164578 99756 -10885 7009 9771
35258 164644 99801 -10885 7030 9750
35269 164691 99831 -10880 7039 9748
35280 164730 99866 -10891 7048 9766
35306 164852 99945 -10898 7042 9760
35319 164905 99983 -10905 7053 9747
35301 164823 99922 -10903 7062 9740
35279 164724 99857 -10883 7052 9734
35283 164749 99871 -10881 7034 9738
35288 164759 99877 -10886 7026 9747
35248 164585 99757 -10900 7042 9764
35240 164542 99730 -10897 7046 9774
35256 164627 99796 -10884 7049 9768
35277 164707 99844 -10888 7061 9769
35248 164581 99750 -10880 7059 9768
35225 164476 99682 -10897 7069 9772
35244 164552 99741 -10904 7067 9772
35276 164696 99842 -10882 7057 9756
35283 164729 99855 -10865 7038 9739
35277 164708 99838 -10858 7026 9742
35252 164602 99767 -10868 7050 9749
35269 164674 99814 -10861 7063 9744
35272 164691 99831 -10863 7068 9746
35238 164545 99723 -10891 7063 9761
35230 164507 99700 -10896 7058 9772
35233 164510 99708 -10903 7070 9785
35252 164588 99761 -10886 7070 9780
35263 164638 99799 -10876 7070 9767
35269 164663 99812 -10878 7047 9750
35288 164741 99864 -10860 7034 9730
35300 164800 99905 -10867 7064 9741
35303 164809 99908 -10874 7071 9757
35287 164742 99863 -10890 7069 9772
35259 164614 99768 -10893 7062 9782
35244 164553 99726 -10887 7049 9771
35235 164515 99702 -10905 7055 9760
35232 164489 99686 -10900 7054 9754
35230 164487 99686 -10891 7048 9750
35249 164582 99753 -10876 7040 9729
35285 164727 99851 -10854 7025 9716
35284 164711 99837 -10875 7042 9740
35264 164631 99782 -10888 7054 9753
35261 164619 99771 -10897 7061 9757
35244 164552 99724 -10902 7068 9758
35231 164489 99685 -10888 7066 9756
35217 164427 99641 -10902 7062 9774
35218 164432 99646 -10911 7041 9781
35235 164509 99696 -10920 7039 9770
35252 164582 99755 -10881 7009 9724
35269 164654 99797 -10889 7035 9725
35279 164702 99828 -10899 7043 9731
35282 164699 99829 -10901 7057 9748
35295 164763 99869 -10906 7057 9761
35294 164762 99869 -10913 7047 9759
35283 164714 99836 -10913 7058 9769
35282 164713 99834 -10892 7054 9765
35284 164718 99835 -10900 7053 9768
35289 164739 99848 -10859 7015 9716
35280 164698 99818 -10885 7011 9719
35277 164684 99806 -10907 7022 9744
35286 164734 99837 -10910 7037 9754
35286 164726 99829 -10896 7042 9768
35280 164698 99813 -10887 7038 9773
35265 164642 99775 -10901 7049 9776
35268 164640 99774 -10897 7047 9780
35269 164654 99777 -10900 7053 9788
35256 164603 99747 -10903 7045 9784
35247 164566 99716 -10882 7030 9752
35234 164495 99668 -10881 7030 9743
35211 164397 99600 -10892 7033 9756
35196 164336 99560 -10906 7044 9768
35192 164321 99548 -10912 7042 9765
35184 164283 99525 -10908 7035 9750
35180 164264 99514 -10920 7029 9749
35167 164206 99469 -10929 7024 9744
35153 164145 99435 -10935 7031 9749
35171 164223 99493 -10925 7031 9737
35174 164223 99487 -10900 7025 9709
35176 164236 99493 -10904 7021 9715
35168 164202 99471 -10916 7026 9729
35215 164402 99614 -10920 7048 9743
35223 164446 99638 -10921 7047 9757
35205 164358 99572 -10923 7037 9754
35200 164348 99572 -10923 7031 9746
35232 164479 99663 -10908 7035 9739
35246 164530 99695 -10915 7046 9749
35230 164462 99651 -10929 7029 9763
35221 164422 99621 -10918 7019 9706
35224 164440 99631 -10909 7024 9683
35228 164461 99641 -10927 7028 9720
35234 164490 99658 -10951 7041 9734
35222 164427 99620 -10942 7031 9739
35214 164393 99593 -10936 7026 9742
35224 164435 99624 -10943 7025 9747
35219 164399 99593 -10941 7018 9741
35212 164387 99584 -10955 7029 9744
35206 164356 99565 -10951 7028 9763
35193 164296 99522 -10910 7022 9749
35197 164317 99542 -10892 7007 9737
35194 164300 99526 -10908 7006 9742
35189 164290 99518 -10913 7026 9738
35193 164311 99535 -10909 7028 9740
35189 164297 99518 -10922 7036 9749
35177 164237 99478 -10937 7038 9756
35166 164182 99439 -10934 7034 9756
35165 164172 99431 -10926 7038 9768
35144 164098 99383 -10909 7038 9776
35140 164073 99365 -10888 7039 9746
35157 164143 99418 -10891 7038 9751
35148 164103 99390 -10908 7039 9758
35152 164113 99393 -10915 7033 9754
35158 164154 99426 -10928 7043 9757
35156 164141 99412 -10936 7041 9760
35163 164160 99429 -10926 7037 9752
35153 164129 99401 -10931 7051 9757
35134 164040 99333 -10934 7043 9758
35127 164011 99318 -10924 7038 9743
35126 164009 99314 -10901 7029 9707
35116 163958 99283 -10898 7031 9709
35107 163923 99255 -10915 7051 9742
35106 163908 99245 -10902 7052 9745
35095 163869 99217 -10905 7061 9748
35082 163807 99177 -10914 7061 9742
35093 163862 99217 -10906 7055 9741
35091 163841 99203 -10911 7060 9752
35064 163729 99117 -10918 7052 9757
35064 163724 99121 -10915 7055 9744
35053 163680 99086 -10900 7045 9708
35040 163623 99045 -10908 7040 9700
35031 163582 99022 -10938 7059 9738
35029 163564 99010 -10946 7059 9748
35029 163569 99011 -10952 7055 9735
35039 163619 99047 -10950 7040 9738
35057 163702 99102 -10949 7042 9736
35074 163770 99152 -10960 7060 9734
35078 163782 99161 -10949 7057 9738
35103 163891 99235 -10937 7057 9742
35120 163971 99288 -10925 7040 9721
35136 164037 99331 -10925 7035 9715
35137 164036 99335 -10933 7054 9740
35031 163537 98961 -10928 7050 9741
34968 163311 98840 -10939 7052 9741
35010 163465 98934 -10944 7046 9739
34972 163303 98820 -10940 7040 9739
34933 163112 98708 -10959 7038 9749
34935 163130 98716 -10948 7040 9709
34995 163376 98889 -10936 7059 9714
34947 163164 98734 -10912 7047 9707
34959 163218 98782 -10894 7030 9677
35015 163470 98951 -10921 7041 9709
34996 163367 98873 -10928 7055 9705
34970 163257 98804 -10947 7064 9714
34843 162679 98414 -10946 7055 9715
34875 162811 98498 -10949 7074 9704
34866 162774 98474 -10954 7062 9714
34854 162731 98442 -10960 7072 9721
34850 162709 98421 -10910 7057 9675
34847 162687 98409 -10925 7060 9702
34828 162610 98358 -10940 7044 9704
34817 162554 98319 -10958 7057 9704
34799 162472 98268 -10972 7071 9716
34820 162559 98330 -10972 7069 9723
34851 162695 98428 -10991 7058 9739
34873 162788 98495 -10989 7046 9745
34780 162363 98191 -10979 7066 9738
34744 162211 98131 -10942 7065 9708
34797 162390 98257 -10910 7063 9686
34954 163018 98763 -10928 7060 9721
35061 163402 99028 -10929 7060 9702
35108 163576 99181 -10954 7073 9688
35165 163786 99338 -10959 7070 9675
35446 164955 100259 -10929 7075 9682
35822 166484 101345 -10922 7081 9730
36137 167796 102319 -10897 7086 9728
36718 170243 104102 -10895 7087 9694
37288 172680 105892 -10887 7058 9707
38220 176652 108777 -10855 7019 9744
38968 179801 111029 -10837 7017 9747
39344 181350 112135 -10824 6983 9787
39686 182798 113211 -10818 6927 9831
40069 184432 114395 -10792 6858 9907
40462 186109 115631 -10771 6781 10002
40907 188002 117021 -10761 6726 10034
41398 190119 118567 -10736 6668 10042
41915 192342 120199 -10733 6618 10070
42432 194557 121824 -10718 6560 10092
42765 195923 122784 -10700 6542 10131
42600 195142 122024 -10698 6523 10160
42229 193573 120719 -10674 6459 10166
42126 193177 120326 -10669 6406 10221
42194 193447 120435 -10641 6370 10293
42099 192974 119985 -10634 6334 10311
40394 184142 113872 -11189 5537 10364
40686 185483 115038 -11200 5568 10347
41348 188340 117255 -11191 5673 10280
41727 189936 118538 -11182 5733 10076
41778 190119 118733 -11180 5768 10129
42060 191465 119865 -11164 5813 10223
43295 196989 124158 -11140 5839 10263
44616 202725 128486 -11117 5864 10220
44935 204022 129390 -11082 5878 10182
44794 203435 128933 -10997 5865 10340
45215 205379 130459 -10919 5851 10545
45974 208693 132969 -10874 5842 10538
45993 208637 132810 -10826 5763 10510
45243 205301 130225 -10793 5741 10655
44903 203895 129209 -10804 5752 10688
45439 206368 131179 -10828 5750 10527
46281 210064 134006 -10841 5765 10400
46359 210274 134092 -10838 5772 10458
45633 207019 131582 -10797 5754 10636
45198 205167 130246 -10792 5764 10728
45589 206973 131701 -10806 5779 10604
45886 208214 132615 -10818 5772 10489
45744 207563 132090 -10822 5738 10562
45629 207066 131722 -10800 5726 10635
45582 206855 131548 -10818 5756 10603
45489 206453 131225 -10825 5771 10556
45507 206547 131303 -10802 5784 10545
45552 206711 131414 -10809 5788 10528
45263 205396 130378 -10815 5772 10518
44926 203931 129269 -10829 5778 10548
45056 204579 129809 -10835 5785 10530
45517 206625 131385 -10854 5782 10453
45940 208519 132835 -10863 5744 10468
46551 211281 135002 -10838 5721 10533
47401 215092 137975 -10826 5746 10539
48273 218993 140985 -10788 5753 10538
49144 222969 144138 -10730 5756 10587
50620 229730 149526 -10662 5759 10674
52288 237258 155454 -10574 5747 10704
53210 241272 158541 -10482 5734 10782
52820 239425 157077 -10384 5706 10966
52814 239437 157225 -10306 5673 11201
52414 237532 155767 -10315 5634 11224
52371 237433 155832 -10314 5623 11174
52436 237678 156019 -10275 5682 11143
52508 238037 156337 -10249 5724 11064
52723 239013 157077 -10227 5738 11070
52958 240100 157888 -10218 5748 11057
53256 241462 158877 -10208 5745 11063
53469 242422 159563 -10205 5739 11093
53566 242854 159868 -10197 5700 11125
53634 243159 160093 -10185 5664 11161
53542 242658 159706 -10269 5581 11184
52985 240121 157848 -10265 5534 11261
53172 240991 158584 -10244 5557 11194
52955 239952 157776 -10215 5627 11140
53043 240382 158174 -10214 5638 11173
52974 240013 157882 -10210 5644 11135
52901 239690 157645 -10215 5653 11155
52771 239056 157111 -10212 5656 11145
52330 237026 155447 -10209 5659 11154
51872 234986 153810 -10311 5600 11128
51810 234743 153606 -10332 5603 11060
51603 233639 152877 -10357 5582 11094
50677 229372 149462 -10395 5551 11148
49403 223579 144830 -10443 5578 11105
47632 215618 138531 -10514 5598 11021
45586 206453 131475 -10636 5637 10855
44472 201674 127906 -10781 5673 10564
44912 203734 129643 -10882 5661 10358
45579 206621 131805 -10902 5569 10736
44741 202608 128560 -10948 5591 10757
42461 192407 120778 -11048 5657 10457
40920 185801 115890 -11138 5712 10207
40658 184731 115158 -11206 5739 10145
40765 185220 115524 -11228 5733 10154
40862 185641 115823 -11232 5737 10175
40831 185502 115689 -11230 5723 10192
40696 184890 115195 -11245 5716 10209
40271 182983 113715 -11265 5715 10161
39959 181725 112816 -11251 5681 10051
40723 185190 115520 -11253 5678 10090
41773 189748 118949 -11238 5684 10267
41883 190086 119130 -11208 5688 10357
41160 186878 116709 -11223 5722 10242
41189 187186 117085 -11228 5738 10125
42229 191766 120605 -11196 5737 10252
42508 192829 121296 -11173 5727 10392
41862 189965 119096 -11173 5733 10295
41870 190151 119331 -11184 5743 10177
42745 194078 122341 -11134 5683 10281
43301 196437 124046 -11085 5661 10425
43080 195421 123222 -11087 5683 10400
42719 193814 122001 -11103 5691 10335
42428 192527 121029 -11130 5713 10297
42253 191774 120467 -11142 5711 10268
42210 191592 120339 -11163 5716 10259
42277 191922 120601 -11178 5712 10248
42374 192307 120882 -11175 5703 10276
42027 190701 119622 -11177 5720 10303
41396 187944 117538 -11134 5683 10281
41254 187409 117202 -11085 5661 10425
41611 188988 118400 -11087 5683 10400
41468 188282 117800 -11103 5691 10335
40839 185484 115677 -11130 5713 10297
40346 183328 114068 -11142 5711 10268
39981 181696 112837 -11163 5716 10259
39445 179312 111019 -11178 5712 10248
38979 177309 109515 -11175 5703 10276
38773 176410 108845 -11177 5720 10303
38522 175297 107983 -11180 5689 10169
38126 173580 106689 -11197 5695 10202
37799 172177 105687 -11198 5704 10270
37570 171181 104940 -11224 5715 10244
37151 169337 103549 -11249 5721 10176
36753 167659 102337 -11270 5752 10154
36758 167748 102445 -11292 5764 10134
37017 168850 103254 -11319 5760 10084
36896 168272 102793 -11350 5768 10056
36626 167134 101964 -11355 5730 10046
36596 167041 101917 -11376 5715 10041
36658 167299 102108 -11409 5749 10012
36533 166716 101671 -11432 5767 9995
36332 165875 101075 -11463 5780 9997
36327 165897 101135 -11487 5773 9941
36657 167373 102280 -11506 5797 9873
36963 168621 103187 -11506 5815 9892
36651 167226 102119 -11500 5814 9948
36283 165692 101019 -11516 5831 9932
36358 166149 101437 -11514 5752 9868
37007 169019 103666 -11516 5769 9897
37290 170225 104533 -11519 5791 9889
37547 171373 105411 -11534 5816 9851
37879 172824 106514 -11533 5834 9817
38259 174482 107817 -11518 5844 9860
38558 175775 108794 -11502 5844 9929
38985 177722 110288 -11501 5858 9917
39666 180657 112480 -11523 5864 9842
39713 180781 112511 -11495 5856 9820
39423 179532 111586 -11420 5895 9907
39431 179609 111674 -11388 5931 9941
39587 180263 112141 -11388 5954 9942
39354 179205 111326 -11374 5973 9965
39098 178136 110560 -11333 5979 9986
39378 179608 111794 -11304 5992 9996
39979 182215 113782 -11281 5992 10009
39425 179706 111858 -11262 5981 10094
38872 177383 110213 -11254 5986 10130
39068 178344 111019 -11229 5982 10080
39556 180466 112634 -11208 5958 10073
39538 180339 112521 -11206 5944 10103
39412 179812 112176 -11228 5966 10089
39222 178947 111565 -11264 5962 10014
38933 177710 110692 -11199 5994 10009
39071 178517 111419 -11117 6083 10143
39380 179837 112405 -11122 6113 10157
38789 177173 110390 -11139 6121 10028
38344 175321 109099 -11151 6135 9988
38612 176548 110020 -11126 6147 10050
38759 177121 110395 -11099 6173 10091
38273 174954 108751 -11088 6182 10074
37852 173150 107436 -11084 6178 10071
37871 173282 107554 -11095 6181 10037
38128 174375 108308 -11079 6223 9998
37756 172653 106959 -11045 6284 10076
37065 169655 104750 -11031 6299 10098
36822 168642 104027 -11041 6320 9990
36841 168726 104087 -11059 6328 9976
36766 168376 103814 -11049 6305 10046
36540 167377 103067 -11031 6380 9962
36279 166237 102235 -11066 6352 9935
36106 165490 101708 -11095 6323 9984
36065 165327 101612 -11116 6297 10032
36015 165095 101452 -11146 6309 9970
35984 164971 101376 -11173 6310 9890
35891 164542 101044 -11188 6298 9884
35644 163470 100246 -11199 6306 9910
35481 162754 99707 -11202 6298 9906
35260 161793 98970 -11215 6337 9835
35026 160780 98190 -11221 6327 9827
34732 159508 97220 -11241 6322 9847
34421 158165 96204 -11246 6322 9853
34174 157118 95417 -11240 6324 9864
34255 157625 95964 -11254 6342 9862
34624 159167 97162 -11265 6352 9827
33799 155565 94414 -11275 6348 9812
33182 153100 92646 -11278 6332 9790
33422 154189 93465 -11281 6347 9763
33616 154950 93983 -11290 6371 9717
33244 153308 92756 -11312 6355 9673
32877 151755 91660 -11420 6259 9618
32377 149510 90037 -11380 6353 9642
31414 145271 87014 -11272 6533 9747
30357 140632 83693 -11298 6528 9631
29199 135572 79950 -11318 6511 9473
27144 126685 73586 -11348 6503 9544
25160 118565 67842 -11358 6484 9635
23840 112281 63384 -11361 6491 9588
21280 100736 55486 -11370 6521 9543
18212 86921 46046 -11392 6524 9533
15770 75761 38455 -11454 6553 9452
13837 67208 32553 -11539 6562 9377
12644 61811 28989 -11618 6579 9346
12298 60148 28031 -11713 6675 9089
12438 60753 28488 -11838 6745 8755
12414 60570 28320 -11993 6722 8767
12147 59187 27458 -12110 6819 8660
12175 59164 27553 -12231 6958 8182
12295 59480 27870 -12473 6941 7676
11882 57247 26515 -12915 6591 7101
12053 58053 27239 -13375 6779 5963
11817 56972 26557 -13351 6741 6201
11699 56405 26210 -13305 6701 6485
11705 56432 26258 -13264 6697 6578
11693 56349 26160 -13221 6689 6551
11449 55170 25392 -13210 6698 6575
11260 54294 24869 -13219 6687 6616
11313 54557 25052 -13227 6668 6615
11471 55316 25534 -13282 6684 6391
11627 56053 26000 -13374 6624 6311
11792 56849 26512 -13368 6673 6288
12007 57860 27152 -13323 6755 6361
12123 58377 27468 -13383 6682 6377
12095 58229 27375 -13402 6633 6252
12089 58222 27376 -13421 6649 6170
12159 58563 27585 -13432 6658 6187
12171 58601 27588 -13410 6658 6234
12028 57907 27136 -13374 6674 6326
11866 57157 26661 -13356 6694 6424
11812 56912 26504 -13310 6708 6455
12308 59272 27991 -13395 6675 6256
12157 58506 27490 -13415 6637 6244
11948 57527 26890 -13409 6610 6270
12009 57866 27118 -13377 6660 6354
12145 58503 27489 -13336 6703 6365
12024 57894 27082 -13304 6719 6302
11812 56884 26447 -13315 6700 6389
11694 56332 26102 -13323 6686 6529
11618 55975 25877 -13317 6720 6493
11563 55715 25714 -13291 6744 6351
11520 55501 25578 -13292 6730 6341
11446 55144 25349 -13311 6694 6461
11382 54838 25163 -13317 6665 6473
11343 54653 25042 -13335 6672 6387
11240 54152 24727 -13343 6676 6327
11188 53918 24593 -13361 6677 6293
11233 54157 24745 -13386 6673 6277
11314 54587 25014 -13404 6675 6269
11421 55173 25386 -13431 6686 6258
11509 55807 25800 -13429 6675 6239
13001 62263 30346 -13045 6833 7560
14695 70094 35646 -12948 6837 7803
16494 78299 41012 -12996 6892 6362
17731 83734 44554 -13067 6890 5931
18705 87868 47435 -13074 6930 6725
19605 91676 50217 -13056 6945 6629
21676 100649 56813 -13026 6870 6355
24187 111136 64326 -12927 6833 6960
24826 113570 65951 -12791 6799 7433
23376 107041 61168 -12661 6777 7670
20314 93819 51673 -12548 6773 7734
18512 86773 46849 -12445 6783 7750
21605 100645 57044 -12297 6740 8209
26552 121086 71994 -12173 6699 8815
24415 110606 63833 -12117 6687 9070
16678 77224 40164 -12130 6742 8904
12236 57671 27292 -12226 6833 7949
11906 56402 26612 -12347 6681 7047
12981 61215 29704 -12208 6554 7920
12364 58092 27412 -11898 6667 9840
9597 45366 19286 -13662 6895 5608
9786 46221 19827 -13742 6853 5324
9920 46813 20192 -13729 6874 5467
9891 46642 20073 -13709 6896 5551
9830 46360 19905 -13657 6927 5514
9838 46391 19911 -13611 6932 5637
9773 46100 19717 -13598 6936 5752
9711 45842 19559 -13549 6930 5835
9657 45501 19793 -13515 6937 5973
9673 45047 20431 -13482 6956 6010
9575 44568 20406 -13436 6970 5974
9365 43973 19917 -13432 6978 5992
9506 44908 20297 -13443 6970 5993
9619 45390 20319 -13468 6972 5990
9276 43783 18823 -13486 6946 5989
10520 49778 22430 -13527 6907 5957
14224 65457 32186 -13562 6916 5875
15740 70192 35142 -13551 6928 5574
13023 55139 23531 -13592 6907 5498
2994 12920 3575 -13623 6881 5774
3175 8575 12890 -13637 6777 5267
6219 15856 23561 -13591 6640 4499
7726 19434 28489 -13671 6086 5329
8384 20838 30311 -14272 5505 6521
7962 19847 28316 -15056 3236 7216
7432 19420 27110 -14470 2384 8922
7418 19835 27358 -9906 7484 12972
7034 19130 26064 -10167 7029 9396
6613 18331 24742 -11187 8414 7594
6622 18652 24949 -12953 9872 7167
6494 18743 24809 -14119 10733 5159
6483 19123 25126 -14519 10998 2716
6570 19782 25766 -15133 10739 2415
5758 17836 22761 -15581 10273 2583
4269 14009 17418 -15899 10653 2651
3401 11911 14719 -15767 11215 2217
2766 10021 12422 -14875 11304 1555
2201 8099 10139 -13326 11897 1039
1785 6562 8286 -11974 13227 706
1373 4962 6317 -10463 13664 352
1152 4086 5277 -8295 13491 -783
1090 3839 5011 -6099 14157 -2551
1084 3821 5021 -4157 14683 -3661
1097 3867 5099 -2442 14793 -4057
957 3250 4094 -612 14797 -4677
923 2707 2228 1483 14275 -5543
1294 3664 2727 3180 13867 -5983
2021 5487 3983 4139 13493 -5693
2888 7378 5588 4332 13331 -5088
3783 9557 8188 4988 14761 -4255
5071 12734 13354 5371 14073 -4247
7529 18164 23073 1056 12157 -4491
8087 18943 24729 -3391 12168 -3485
8033 18651 24626 -5783 11928 -2689
9791 23609 32652 -8008 12106 -2411
16870 45289 62859 -8721 12351 -2137
22652 65143 88862 -10251 11675 -1671
24131 68082 90694 -12446 10685 -889
19366 52772 67129 -12877 10021 -1107
15126 40477 50174 -12096 10261 -2016
16050 41749 54029 -11802 10146 -2843
17329 43560 58346 -13321 8490 -3514
19231 46857 64933 -15975 6605 -3338
22759 53504 76391 -15922 5802 -3152
25550 58318 83672 -13262 6094 -4445
26464 60343 85622 -11153 6629 -6266
27055 62328 87545 -11084 7115 -6924
27694 64311 89849 -11749 7458 -6833
30020 72568 101207 -11466 7345 -6209
36065 91694 130384 -10833 7223 -4611
35948 92441 130131 -10865 7344 -2942
34395 89665 125873 -11601 7220 -2111
33631 88614 124382 -12054 6862 -2035
39889 105904 156800 -12320 6539 -2044
50945 136803 206505 -13163 6032 -1930
48370 124817 187713 -15998 4581 -1838
38018 94088 138769 -17968 3366 -2334
33307 84034 120877 -17504 3078 -3192
32752 82586 118717 -17321 2667 -3389
33039 82943 119363 -18140 2093 -4021
32529 81360 116875 -17301 2307 -2683
31857 79760 115061 -14252 3175 0
31273 78569 113172 -13039 3497 -713
30755 77878 112434 -15373 2270 -2216
30262 77622 112160 -17207 922 -2518
30452 79652 115060 -16776 566 -2226
30446 82317 117940 -15663 475 -2498
29676 81840 117281 -15438 382 -2696
28862 80077 115004 -15340 55 -2659
29618 82432 118757 -15130 -557 -2521
29448 81944 117611 -14971 -1325 -2406
28727 80100 114830 -15321 -2302 -1960
29029 81040 116512 -16323 -3351 -1474
31822 88787 128451 -16607 -3955 -1598
36491 102241 148884 -16191 -4308 -2026
44931 131825 190115 -15736 -4936 -2210
50542 151864 215915 -15440 -4975 -2185
53673 162727 229285 -15265 -5059 -2021
55079 167444 234197 -15330 -5163 -2047
56666 173017 240155 -15413 -5096 -2331
58389 178718 246278 -15617 -5127 -2795
60046 183536 252207 -15718 -5098 -3951
62069 190984 262330 -15230 -4973 -5252
64483 199814 275467 -14556 -5232 -5971
67052 206289 287013 -13828 -5668 -6573
69640 211859 296352 -13326 -5770 -7172
71544 218708 306915 -13098 -5712 -7302
72157 225242 314845 -12723 -5451 -7579
73303 233274 321346 -12781 -5215 -7852
75775 237040 324958 -13519 -5347 -7483
78428 244309 333800 -14077 -5121 -7255
79811 246926 332830 -14252 -4225 -7423
76155 235421 306988 -15047 -4127 -6527
79742 223499 298156 -15913 -5255 -4792
79366 193086 268311 -15286 -6124 -4900
78924 172045 245765 -14348 -6427 -6661
27209 56537 95319 -12501 -5605 -8725
5147 9945 17371 -7756 -1869 -11539
1610 3992 8796 -7363 -388 -13477
1160 3148 7491 -11639 -2650 -12240
1039 2603 6807 -11661 -4355 -8400
931 2226 6081 -11871 -5324 -4353
1002 2704 6579 -14470 -5851 -1887
1134 3634 7516 -15083 -6025 -334
1403 5311 9360 -14692 -5782 1357
1745 7132 11646 -14887 -5970 2653
2210 9354 15072 -15520 -6335 3504
2988 13059 21016 -15400 -6309 3308
4073 18047 28878 -15319 -5894 1465
4735 21004 33145 -15580 -5292 -286
243 726 515 13927 8160 11423
248 600 523 3821 5781 14952
257 589 559 1614 2336 9472
257 765 589 5043 3194 4728
286 1677 708 6854 3806 1259
297 2406 736 2820 3079 1945
316 2256 786 -644 2472 4228
1643 56658 5434 -674 4449 6920
3690 212960 9870 504 5255 7270
2314 124276 5942 5927 -1959 6627
3658 211135 10583 9747 -10711 13651
4677 253322 12762 4383 -18314 23852
4246 229100 11688 -7559 -26028 23359
4519 250983 12378 -8456 -19782 15976
4250 251174 11782 -3180 -14513 14498
4360 260732 11757 -2581 -15792 14261
4494 263593 11922 -1526 -11678 11466
4434 259418 11877 -2605 -10234 11830
4351 257637 11840 -3006 -10499 13563
4363 257557 11769 -1886 -9571 14968
4409 259591 11809 -283 -8517 14811
4408 260316 11845 -181 -8424 13885
4428 261346 11907 -898 -8852 13646
4501 265121 12032 -663 -8809 13834
4549 267510 12127 -183 -8445 13942
4555 267099 12149 -391 -8316 14081
4583 268117 12230 -618 -8320 14273
4634 270558 12328 -602 -8141 14341
4665 271638 12398 -697 -7962 14345
4679 272491 12438 -818 -8096 14318
4508 330610 13425 1606 -3962 9869
5211 323336 15620 4917 -5494 14455
5632 296971 17762 3800 -6979 19213
5429 237718 17424 -435 -5753 19399
4313 178278 13201 -3338 -4538 19101
3089 125465 8914 -2158 -3753 19531
2047 84198 5678 -1567 -3599 19155
1046 41383 2532 -2952 -3847 18689
554 18058 1329 -4379 -3594 18986
414 9897 1102 -5676 -3632 19260
378 6311 1118 -7356 -4281 18683
349 4434 999 -9480 -4679 17975
316 3360 801 -11999 -4480 17438
288 2728 656 -14271 -4063 16756
267 2030 589 -15937 -3161 13739
254 1489 552 -16040 -2698 10165
250 1245 550 -16179 -1643 6300
249 1097 554 -16813 -267 3714
249 983 559 -15773 497 1149
250 907 553 -13197 997 -2089
246 855 549 -11897 1679 -3805
247 823 545 -10090 2463 -4018
244 793 535 -7451 3054 -4581
299 1155 642 -6322 3997 -7501
4491 14723 20711 -6972 5082 -8952
4155 12955 16668 702 4344 -14624
2162 7237 9083 11125 -706 -5475
4010 12747 18383 10030 -5429 14934
7574 22496 34214 8076 -7157 17661
10548 29926 47158 121 -7725 11781
13793 38111 61283 -8640 -5942 11009
16140 43764 71280 -6634 -3841 13240
22385 60138 97648 -5471 -2462 13619
35155 88963 145650 -4838 -1237 13470
45998 113758 176302 -4445 -1885 13999
36789 92715 147597 -3465 -2128 13630
26924 70372 113987 -2136 465 11999
20560 55896 90333 -712 2331 12225
17147 48429 77134 -726 1621 14127
15651 46734 71985 -2638 309 15409
13426 42640 62558 -4416 -950 16379
10236 34912 49266 -5114 -1724 16603
7720 28322 38833 -5317 -1818 17002
6336 24141 32983 -4232 -2234 17715
5998 22452 30910 -2631 -2920 17994
5489 19976 27513 -1733 -3068 16336
4718 16905 23274 -397 -3256 15137
4311 15619 21127 816 -3482 16539
4142 15109 19751 2147 -3069 16864
3994 14424 18210 3200 -2249 15341
66290 265381 351917 -9607 -6969 -1512
68381 274609 364144 -10333 -7208 -4793
71159 282965 374785 -10827 -8145 -7890
73177 286235 378472 -10516 -6982 -9003
74689 287412 377666 -9950 -5058 -10089
76169 289937 378605 -10023 -3663 -11203
76756 291329 379279 -10811 -2858 -12344
77042 291757 379354 -11333 -1969 -12891
76932 290834 378446 -11511 -1419 -12775
75901 285943 373930 -11536 -1393 -12360
74854 277237 365172 -11325 -1683 -11835
75908 266590 354256 -10377 -2798 -12346
78660 255560 339285 -9482 -3412 -12719
80941 247326 321147 -8575 -4094 -13034
77033 231526 299383 -7963 -4863 -13202
75558 241613 324685 -8365 -5464 -13223
78264 235619 337528 -9207 -6250 -12326
74907 240107 343426 -10194 -6620 -11217
73691 241314 345011 -11297 -6407 -10720
73928 242280 345894 -11828 -6708 -10290
77402 253029 359458 -12138 -7462 -8963
81962 267650 382238 -12150 -7604 -8215
83954 273534 390366 -12324 -7891 -7834
82641 273262 390249 -12434 -8167 -7925
79890 274329 391435 -12539 -8145 -8153
77330 275907 391637 -12434 -7844 -8124
74635 278853 392507 -12394 -7471 -8021
72030 283964 395006 -12946 -6594 -8680
71585 290311 398724 -13272 -4296 -10369
71880 300441 404763 -12963 -4827 -9015
73800 302480 405472 -13041 -6357 -7060
74478 302956 403936 -13873 -5782 -7437
74781 300728 400856 -14561 -4932 -7477
74834 298230 398462 -14663 -3633 -7336
74249 298554 398253 -14595 -2708 -6938
73821 297536 397076 -14533 -1941 -6649
73369 292957 393622 -14745 -1338 -6785
72876 288443 390578 -14638 -534 -7093
72859 283099 386794 -14405 86 -7129
72817 276391 382569 -14174 416 -6836
72265 271421 378631 -13962 1237 -6615
71376 257535 367136 -14410 2185 -6792
69728 236559 345664 -14807 2461 -6878
66827 215962 319283 -14621 2471 -6474
61962 189372 278672 -14203 2985 -5833
49341 140795 212110 -14718 3677 -5759
39844 111320 176039 -15523 3113 -4367
33375 91648 150753 -15455 2433 -2641
29208 77507 131069 -15041 2589 -2105
23280 57665 103341 -15172 2013 -716
16819 38581 77354 -13962 1237 -6615
12065 25804 58556 -14410 2185 -6792
10667 22698 53978 -14807 2461 -6878
13119 30480 66839 -14621 2471 -6474
18074 45570 89580 -14203 2985 -5833
23640 64317 114953 -14718 3677 -5759
29980 88211 145893 -15523 3113 -4367
34248 104158 167201 -15455 2433 -2641
35783 110733 175561 -15041 2589 -2105
35882 111433 175717 -15172 2013 -716
36195 113034 177766 -16460 2738 328
37597 119355 186810 -17136 3078 183
39267 126520 197636 -17194 3004 226
39978 128875 200910 -16397 2899 116
39277 124110 193118 -15803 2048 -13
36706 111856 175490 -15331 2359 -567
34938 104799 166359 -15151 3667 -1958
34814 105402 167372 -14938 3839 -3216
35751 110928 175252 -14913 3759 -3767
40177 133809 208519 -15533 3776 -4023
51046 209565 314293 -13656 4834 -6286
50897 198129 301630 -14055 4770 -6314
50317 182011 282209 -14452 4611 -6228
47506 159682 249247 -14409 4319 -5981
45762 152064 236480 -14536 4047 -5896
44796 147454 226829 -14653 3887 -6199
45919 152997 234761 -14727 3872 -6820
46312 153206 234586 -14743 4091 -7527
43601 134596 206569 -14109 4895 -8183
39917 120025 184303 -13134 5200 -9139
36592 108494 165459 -12203 5138 -9879
31356 90522 137272 -12098 4963 -10230
25158 70327 109048 -12704 4401 -10698
19697 54607 87232 -12837 4441 -10898
18646 52603 83867 -12176 4798 -10783
22508 65265 101920 -10463 5492 -10635
30468 89093 136695 -9190 6455 -10832
40792 118424 175041 -9079 6814 -11632
49873 143304 206329 -9175 6916 -12281
58136 166459 234369 -9223 6997 -12138
63816 181424 250716 -8955 6605 -11611
69057 196810 267008 -8691 5868 -11235
73832 210303 279807 -9163 5168 -12327
77257 218918 286690 -9882 4350 -13317
79261 222996 289657 -9703 3705 -13398
80248 222717 288807 -11148 3556 -14358
81320 224298 290457 -11477 3181 -14023
82833 229307 295835 -9316 3260 -13170
82677 224779 291100 -8153 4112 -13416
80617 212706 279953 -7568 5016 -14032
57003 138546 193572 -4965 6335 -15328
54838 135541 190035 -4940 6678 -15528
52828 134470 190764 -4755 7017 -15035
55332 147002 210784 -4298 7321 -14294
58441 151063 214708 -4016 7593 -13986
56160 141408 200549 -4401 7689 -13944
47228 113064 163346 -5203 7551 -13616
35206 80991 126589 -6236 7286 -13291
33045 77058 119382 -7074 7062 -13259
34803 86101 128972 -7447 7015 -12961
45039 121469 176690 -8623 6043 -11954
52627 152757 223985 -8857 5655 -11274
52635 156615 232632 -7816 6357 -11578
50665 150135 222842 -7328 7190 -11398
40486 113417 169707 -8124 7176 -11766
27625 71834 112778 -9280 6477 -11446
18184 44376 74903 -9975 6538 -10352
12521 29475 52826 -10650 7092 -10208
8059 18321 35246 -9665 8138 -10073
4140 8291 18921 -8746 8671 -9832
10795 27375 52155 -8749 8551 -9459
22650 62581 104446 -9087 8831 -9335
28790 83362 135279 -9692 9063 -9622
33135 101641 163105 -10259 9062 -9728
40284 129598 202923 -11249 9111 -9586
18689 57475 99405 -11498 8289 -9590
1720 5581 4683 -11428 6706 -8631
1988 7098 6048 -13755 5150 -6817
2764 10535 11386 -13828 6752 -6454
1671 6474 6041 -11315 8466 -6482
722 2938 2145 -11528 7850 -5639
596 2434 1577 -12392 8259 -5299
1088 4484 4532 -7334 6790 -3733
3035 11980 14629 -8763 72 -1318
4866 18374 23191 -9922 -3229 3096
3810 14236 17280 -5948 -6774 7877
3976 14881 19396 -10356 -14219 11251
7845 27994 38369 -12833 -16807 10081
11837 41404 58008 -13235 -15000 4225
15636 52874 75400 -13814 -14277 1277
19933 65823 94705 -11824 -13670 1911
24546 78777 114614 -9922 -12755 5894
26582 84318 122374 -9828 -14232 9816
29928 92897 135886 -9833 -13561 7891
29928 91210 133211 -9992 -13229 4223
27135 82669 121168 -10791 -14260 5162
22342 68310 101315 -11386 -13976 6805
18832 58671 87121 -10902 -13161 6849
18465 58268 87413 -9830 -12904 6809
21021 65550 99834 -9498 -12567 6807
28332 86947 133002 -9907 -11759 6691
36648 109833 170083 -10039 -10677 7069
63638 188085 291822 -9574 -10040 7600
61317 197716 313961 -8518 -9296 7759
59358 190900 300142 -7696 -8285 8183
66852 228194 339976 -7459 -7880 8166
45296 233116 343274 -7994 -7580 7642
39975 226935 340249 -9447 -7914 7711
39083 222338 337754 -10027 -11725 9386
41184 202554 318299 -8589 -13825 10905
41051 157783 261381 -8064 -11598 10834
32826 104431 169780 -8500 -9901 9021
26851 80224 126212 -8907 -10157 8347
27527 83072 135064 -9277 -9238 7972
32505 103724 167994 -9972 -8122 7552
39361 143787 226490 -11190 -8216 7523
45137 184854 280777 -12006 -7795 7632
49286 213328 313639 -12680 -6838 7383
51652 224797 324547 -13635 -5443 6473
53419 232821 331822 -14627 -4081 5327
54816 238336 336857 -15342 -2999 4236
56415 248413 345461 -16022 -2074 3127
57602 248459 345918 -16494 -701 1445
58784 242176 342686 -16421 678 -413
59970 228442 333325 -16150 1323 -1830
59648 211952 318334 -16152 1575 -2761
57868 205727 312846 -16036 1800 -3450
56397 207022 315401 -15105 2478 -4523
55520 211508 320417 -14409 2736 -4840
55236 221761 329523 -14082 2599 -4724
55337 236986 340755 -14267 2232 -4743
56142 254028 352078 -14609 1970 -5117
57391 264015 357854 -14696 1895 -5509
58556 266959 359142 -14643 2034 -6009
59272 269375 360538 -14904 2060 -6442
59940 272549 362274 -15344 1911 -6834
60566 275045 363790 -15225 1874 -7159
61867 285897 373806 -14751 1900 -7461
64878 296602 385237 -14220 1914 -7799
67345 304078 393729 -13414 2007 -8020
69315 310035 401616 -12922 2121 -8563
69554 309919 401917 -13209 2044 -9369
68894 307978 399890 -13231 2016 -9986
68133 306166 397554 -12896 2491 -11110
67496 304128 394794 -12411 2816 -11585
66945 300097 389936 -11926 2750 -11195
65742 298893 390035 -12164 2856 -11363
65040 298784 391293 -11458 3195 -11583
64290 297687 391241 -9969 3685 -12125
63299 297136 391867 -9215 3948 -12629
62504 297700 393829 -9229 3798 -12620
61781 297508 394382 -9565 3412 -12440
61720 299220 396976 -9513 3207 -12938
62172 301257 399791 -9944 2729 -13526
63546 307581 407254 -10194 2203 -13588
64282 311257 409026 -9496 2194 -13645
64563 312526 408688 -9101 2123 -13632
64684 312526 407993 -9297 1687 -13383
65138 313245 408136 -8919 1858 -13641
65878 315229 409070 -8796 1928 -13709
72179 327913 417605 -8534 5413 -13128
71406 324018 416877 -8095 5693 -13017
69932 318029 412481 -7733 5896 -12906
68441 312698 408241 -7757 5791 -12770
67701 311600 407576 -8014 5845 -12729
67430 312048 408193 -8373 6393 -12331
66621 301042 397277 -9188 8269 -12310
69161 284229 383755 -9353 8930 -11752
72993 279228 381596 -9286 9701 -11117
71035 263674 362351 -8760 10151 -9971
599 1351 3057 -7327 12495 -8372
679 1683 3701 -6877 12014 -9444
846 2483 5000 -6408 11396 -10103
1146 3753 7279 -6038 11071 -10721
1617 5653 10814 -5565 10756 -11443
2446 9014 16930 -4940 10322 -11737
3938 15218 27367 -4230 10151 -11823
6298 25524 43324 -3217 10160 -12188
10831 45036 73503 -1894 9807 -12503
18726 78567 125398 -823 9457 -12485
36281 153387 237726 -224 9562 -12480
53056 233500 347889 5 10013 -12333
43582 246403 354182 -125 10801 -11788
37642 208574 297039 30 11643 -11857
15062 49814 88053 279 12294 -11779
3213 3444 15017 208 13212 -11096
769 875 3864 334 13807 -10517
431 880 2146 1037 13269 -10497
426 906 2160 1966 12469 -12167
472 935 2504 3259 11584 -12153
748 1154 4060 -5766 14013 -3782
438 1146 2171 -5374 14717 -3166
336 1162 1449 -4877 15768 -3313
303 1184 1115 -4613 16420 -3781
293 1204 935 -4585 16361 -4306
291 1217 861 -4299 15689 -4752
290 1221 800 -4391 14598 -3784
294 1219 797 -4427 14723 -3755
296 1224 810 -4418 14982 -3886
299 1228 821 -4438 15025 -4058
303 1244 843 -4334 14762 -4158
306 1265 856 -4096 14595 -4355
311 1284 863 -3797 14630 -4678
313 1294 878 -3574 14815 -5322
314 1290 956 -3456 14660 -5938
322 1282 1146 -3337 14334 -5833
336 1265 1298 -2864 13749 -4854
341 1247 1347 -2752 13872 -5134
345 1230 1383 -2731 14320 -5764
349 1219 1400 -2575 14555 -6366
348 1218 1401 -2509 14321 -6955
348 1220 1386 -2670 14018 -6979
351 1226 1388 -2868 13821 -7105
373 1223 1572 -3056 13659 -7816
372 1184 1501 -3227 13586 -8462
341 1138 1199 -3283 13630 -8662
326 1103 1043 -3264 13650 -8659
323 1086 1009 -3250 13614 -8609
329 1079 1053 -2591 14791 -8313
345 1082 1176 -1809 15730 -8610
373 1096 1398 -1860 14582 -9439
428 1155 1824 -2323 12985 -9692
537 1388 2662 -2801 11863 -9843
769 2068 4451 -3158 11174 -10527
1303 3660 8550 -3377 10971 -11473
2848 8072 19670 -3388 11719 -12512
9081 26041 55954 -3401 11659 -12426
23548 90667 133300 -3416 11619 -12359
27910 113497 154527 -3214 11901 -12359
29786 119862 161054 -2995 12627 -12116
32182 126106 167579 -3216 13450 -10964
35511 135625 176512 -2760 14300 -9162
38841 142633 182986 -1982 14658 -8969
43225 152675 193737 -1929 14255 -10478
51067 173196 218248 -2424 13503 -11286
61497 202373 254962 -2842 13570 -11018
70489 229077 289461 -3109 13406 -10636
77541 248850 314764 -3171 13279 -10365
80023 251196 316462 -2892 13356 -10504
81259 250002 314097 -2382 13447 -10993
82155 248817 310626 -1711 13452 -11284
83912 251485 312750 -1276 13335 -10997
85735 255727 317752 -1323 13142 -10342
87280 259359 321992 -1733 12647 -9758
88926 263477 327205 -2178 12918 -9357
90394 267071 331668 -1998 13089 -8934
91425 269288 334408 -1392 12305 -8580
92119 270039 335051 -1012 11938 -8639
92119 268405 332715 -955 11915 -9129
90890 262301 325488 -956 11973 -9766
68869 184442 231317 -2198 10860 -12248
61183 163423 202785 -1643 10942 -11365
57670 157613 191497 -1014 11619 -10758
56790 163581 196033 -315 12336 -10253
57690 173125 207402 753 12111 -10270
60051 184126 220646 814 12442 -10235
62600 194272 232189 957 12623 -10330
64059 199308 237879 1091 12229 -10600
64719 202914 240846 1378 11716 -11031
65838 208581 246071 1779 11678 -11534
58462 271525 264952 2369 8206 -14085
56494 266495 260725 2581 8465 -14055
54056 259820 255483 2741 8632 -13901
52267 253940 251365 2598 8601 -14012
51502 251025 249674 2474 8725 -14172
52667 253314 251930 2313 9121 -14097
53754 255373 253540 2085 9626 -14091
54425 256635 254720 2156 10036 -13898
54884 257594 255718 2507 10055 -13237
55418 258390 256840 2644 9831 -12783
56130 259346 258331 2519 9943 -12732
57113 260484 260328 2253 10274 -12708
58272 261779 262772 1977 10700 -12544
60378 261698 265934 1849 11228 -12241
62595 258638 267501 1923 11703 -11864
63543 254803 266360 1836 11997 -11519
63042 247037 260825 1673 11973 -11510
62240 239390 254828 1519 11885 -11741
61466 235731 250857 1305 12002 -11677
60645 235619 248766 1523 12038 -11129
59828 236760 247712 2054 11961 -10548
58466 235809 243640 2223 12064 -10581
56542 255938 251805 1838 12446 -10899
40446 273998 244226 3970 13074 -10168
27452 270738 234648 6399 12425 -9420
29169 277248 238744 3500 11702 -10189
30257 279866 240536 1370 11230 -10886
31045 285663 243955 2773 11154 -9789
31911 289243 246973 1568 12121 -8731
32631 290797 248574 -909 14378 -8540
33079 292213 249210 -978 15347 -9839
33341 292393 249107 811 14150 -11167
33540 292344 248978 2812 12745 -10825
33617 291660 248493 3594 12761 -10459
33638 290809 247962 4170 12839 -10135
33632 289818 247412 4203 12879 -9782
33661 289205 247103 3935 12894 -9651
33710 288802 246918 3575 12720 -9744
33749 288291 246730 3277 12534 -9929
33820 288009 246736 3307 12536 -9917
33967 280944 242872 3744 11332 -10847
33981 280379 242220 2904 11741 -10864
34048 280317 241826 1986 12030 -10839
34124 280490 241427 1012 12298 -10776
34145 280533 240913 54 11913 -11164
34228 281260 240899 -911 11300 -11710
34404 283175 240833 -1153 11755 -12060
34240 282457 238770 -1235 11666 -11886
34581 281646 238769 -1656 10745 -11560
34978 281916 239426 -1916 10472 -11726
35286 282414 240079 -1988 10546 -12082
35538 282926 240679 -1797 10484 -12480
35785 283590 241448 -1616 10289 -12800
35999 284266 242225 -1462 10268 -12933
36202 284902 243066 -1029 10403 -13064
36393 285566 243988 -540 10218 -13186
36575 286219 244953 -343 10089 -13142
36759 286557 245710 -213 10531 -13129
36930 286898 246291 409 11206 -12741
37173 287786 247425 911 11875 -12094
37509 289189 249099 1253 12466 -11591
37763 289916 250070 1986 12982 -11424
37850 289695 249984 2603 13402 -11198
37867 288912 249489 2431 13556 -10683
37995 288781 249783 2276 13329 -10287
38013 287703 249196 2243 13154 -10120
37988 286770 248438 2300 13632 -9510
38037 286466 248135 1966 14316 -8823
38067 286014 247834 1211 14525 -8585
38147 286082 248039 983 14416 -8181
38233 286318 248262 1043 14221 -8061
38265 286287 248077 1895 14415 -8079
38247 285796 247488 2130 14344 -8105
38201 284554 246657 1849 14464 -8004
38206 283302 246138 1147 14785 -7486
38261 282620 245968 937 14924 -7009
38344 282412 245972 1296 14499 -6926
38426 282292 246021 1575 14213 -7073
38499 281997 246004 1523 14605 -7069
38575 281727 245965 1327 14896 -6976
38629 281464 245875 1043 14221 -8061
38644 280999 245683 1895 14415 -8079
38641 280295 245404 2130 14344 -8105
38655 279671 245212 1849 14464 -8004
38689 279240 245122 1147 14785 -7486
38725 279173 245017 937 14924 -7009
38720 279308 244670 1296 14499 -6926
38652 279363 244057 1575 14213 -7073
38672 279587 243899 1523 14605 -7069
38752 280136 243871 1327 14896 -6976
38814 280757 243621 644 14632 -6776
38920 281351 243529 840 15068 -6330
39187 281582 244290 1126 15390 -5874
39357 282800 245527 1275 15498 -5535
39480 284472 246990 1261 15566 -5552
39670 285760 248106 978 15630 -5814
39815 286186 248509 734 15552 -5619
39912 286321 248568 490 15390 -4966
40274 286139 249444 -303 15262 -4472
40591 285867 250652 -1173 15415 -3950
40760 286008 251552 -512 15608 -3694
41059 286829 253391 59 15589 -3202
41691 288275 256258 -592 15600 -2758
42111 288960 258091 -1062 15679 -2989
42317 289201 259111 -1643 15902 -3328
42360 289240 259285 -1714 16036 -3664
42326 289057 258946 -1664 15957 -4104
42268 288842 258595 -1942 15703 -4002
42173 288325 258107 -1103 15920 -3152
42035 287498 257259 -380 16022 -3054
41912 286919 256501 -659 15729 -3601
41831 286696 256064 -487 16231 -4254
41808 286749 255905 296 16507 -4701
41834 286907 255867 1646 16243 -4415
41942 287065 255971 2429 16205 -3990
42139 287306 256227 2009 16052 -3907
42362 287634 256687 1628 15817 -3898
42575 287927 257121 1653 15804 -3863
42778 288104 257435 1584 15941 -3834
42963 288184 257644 1243 15988 -3810
43111 288142 257764 892 16033 -3896
43216 288028 257776 581 16085 -4115
43283 287772 257623 378 16007 -4389
43321 287331 257268 -47 15780 -4472
43365 286862 256732 -493 15564 -4275
43361 286512 256170 -548 15450 -4062
43224 286412 255417 -704 15405 -3991
42973 286632 254377 -932 15475 -4004
42693 286878 253189 -987 15581 -3955
42653 287835 253557 -966 15565 -3769
42282 288824 253753 -980 16730 -2625
42254 288976 253880 -1083 16339 -2346
42265 289346 254014 -1274 16187 -2216
42249 289339 253795 -1431 16279 -2044
42195 289120 253402 -1369 16441 -1962
42147 289013 253222 -1299 16370 -1962
42167 289221 253561 -1572 16149 -1993
42228 289540 254335 -1709 16137 -2001
42311 289932 255306 -1776 16162 -1978
42288 290144 255716 -1517 16551 -1867
42172 289895 255336 -1764 16710 -1943
41994 289264 254519 -2532 16433 -2102
41935 289145 254383 -2867 16224 -1974
41918 289242 254509 -3183 16130 -1853
41902 289313 254690 -3415 16083 -1852
41998 290409 255826 -3431 16018 -1878
42042 290787 256308 -2795 15286 -2113
41920 289448 255464 -2273 14696 -2412
41737 287866 254297 -2645 15293 -2307
41606 287211 253689 -2928 16452 -1748
41075 288415 254499 -3195 15895 -2485
41002 288529 254254 -2980 15736 -2135
40911 288444 254092 -2521 15253 -1970
40839 288404 254079 -2275 14959 -1832
40775 288406 254084 -2421 14852 -1797
40713 288393 254057 -2580 14868 -2010
40652 288373 254020 -2218 15585 -2249
40599 288363 254013 -1622 17044 -2461
40553 288339 254001 -1465 17654 -2705
40508 288355 254004 -1497 16575 -2993
39757 288874 254791 210 14997 -6024
39422 285748 252136 -1065 14718 -6198
39195 283770 250787 -816 15808 -5056
39186 284065 250994 -382 16498 -4145
39311 285408 252085 -614 16405 -3904
39439 286738 253142 -878 16069 -3662
39491 287746 253792 -471 16737 -4642
39483 288326 254241 -1465 16580 -3626
39474 288651 254821 -1743 16051 -2944
39409 288574 254797 -1711 15303 -3322
39381 288643 254940 -1670 15015 -3926
39432 289589 255653 -1828 15218 -4198
39367 288740 254374 -1771 15630 -4095
39106 285571 252056 -926 15053 -4198
39030 284578 251514 -509 15493 -3992
39127 285447 252150 -106 16301 -3304
39289 286868 253288 -41 16320 -3955
39440 288162 254542 -1324 16394 -3921
39541 289443 255801 -2285 16268 -2520
39548 290230 256523 -2344 15883 -1815
39483 290021 256408 -2109 15287 -2154
39404 289570 255995 -1994 15206 -2770
39412 289810 256255 -2008 15558 -3136
39460 290304 256816 -1892 15990 -3199
39638 291532 258223 -1396 16472 -3012
39774 292405 259252 -939 16578 -2802
39849 292858 259893 -823 16158 -2786
39884 293005 260343 -885 15965 -2911
39893 292989 260674 -773 16092 -2887
39880 292847 260761 -796 15982 -3008
39852 292754 260771 -1258 15806 -3178
39779 292438 260393 -1338 15756 -3180
39521 290554 258258 -922 15765 -3142
39112 287507 255027 -375 15924 -2775
38798 285417 252800 -130 15980 -2324
38689 284837 252152 182 16105 -2315
38683 284996 252170 451 16349 -2707
38709 285309 252316 258 16395 -2736
38750 285670 252468 -76 16487 -2163
38812 286160 252727 -616 16502 -1685
39709 289526 257625 -1925 16559 -1690
39703 289880 257636 -2309 16329 -1639
39678 290011 257407 -2113 16436 -1547
39599 289677 256707 -1723 16533 -1342
39539 289353 256108 -1982 16070 -1285
39532 289196 255867 -2116 15369 -1689
39535 289110 255730 -2105 15692 -2027
39548 289081 255663 -1685 15999 -2496
39562 289056 255596 -1190 16070 -2812
39577 289022 255531 -1482 16088 -2929
39682 289147 255471 -44 15923 -2789
39647 289206 255524 45 15932 -2972
39611 289239 255527 156 15993 -3176
39555 289179 255396 176 16107 -3376
39506 289132 255265 166 16283 -3525
39460 289104 255158 248 16397 -3550
39417 289075 255040 361 16331 -3390
39382 289063 254959 464 16187 -3288
39354 289073 254909 508 16109 -3338
39332 289117 254871 480 16150 -3360
39311 289137 254840 615 16302 -3338
39294 289189 254878 901 16347 -3311
39281 289239 254937 896 16251 -3470
39261 289307 254984 628 16175 -3778
39235 289358 255010 488 16033 -4036
39208 289391 254997 408 15876 -4155
39191 289440 255001 317 15767 -4166
39170 289486 255010 316 15617 -4199
39153 289525 255021 419 15521 -4220
39140 289564 255026 589 15490 -4183
39131 289604 255018 757 15470 -4148
39126 289643 255039 892 15514 -4135
39126 289695 255073 1035 15618 -4148
39131 289777 255157 1169 15739 -4170
39142 289864 255252 1218 15791 -4146
39154 289967 255374 1187 15815 -4094
39165 290062 255492 1121 15838 -4065
39173 290131 255561 1096 15844 -4053
39177 290206 255624 1076 15848 -4061
39181 290265 255655 1070 15802 -4072
39180 290296 255640 1129 15695 -4063
39175 290310 255589 1208 15570 -4067
39168 290312 255511 1278 15508 -4100
39162 290319 255431 1284 15496 -4126
39155 290319 255319 1226 15593 -4287
39142 290281 255131 1149 15695 -4332
39126 290197 254905 1052 15692 -4353
39096 289974 254568 847 15613 -4291
39057 289702 254217 626 15526 -4259
39000 289419 253804 544 15573 -4273
39020 290670 254585 920 16226 -3654
39053 290875 254833 889 16136 -3672
39081 291043 255024 813 16050 -4095
39103 291180 255201 576 15994 -4330
39129 291300 255398 390 15893 -4535
39156 291450 255636 361 15764 -4661
39186 291593 255880 540 15649 -4798
39214 291707 256105 841 15595 -4983
39238 291807 256300 1150 15623 -5167
39268 291940 256583 1472 15581 -5337
39306 292106 256908 1795 15410 -5498
39346 292280 257255 2123 15209 -5715
39386 292492 257628 2344 15043 -5989
39437 292793 258127 2315 14885 -6232
39495 293105 258681 2274 14678 -6499
39568 293572 259465 2536 14505 -6828
39627 294001 260036 2762 14344 -7172
39667 294333 260486 3002 14325 -7623
39697 294630 260837 3116 14361 -8171
39718 294814 261026 2870 14248 -8661
39738 294983 261198 2628 14109 -8964
39766 295156 261447 2386 14007 -9046
39788 295274 261630 2299 13973 -9091
39807 295363 261755 2491 13973 -9183
39818 295428 261806 2710 13853 -9209
39823 295455 261812 2734 13642 -9220
39812 295396 261741 2589 13599 -9311
39794 295342 261711 2395 13686 -9420
39766 295290 261662 2263 13736 -9423
39731 295207 261581 2186 13796 -9370
39692 295053 261394 2157 13873 -9336
39657 294965 261253 2086 13903 -9185
39620 294773 261008 1978 13882 -8991
39594 294641 260846 1881 13899 -8779
39571 294481 260705 1751 14000 -8494
39558 294384 260622 1635 14163 -8242
39544 294230 260473 1546 14361 -8095
39528 294050 260280 1492 14506 -8008
39521 293901 260147 1432 14643 -7911
39520 293804 260131 1287 14777 -7791
39510 293646 260013 1135 14895 -7655
39495 293504 259918 1139 15091 -7574
39485 293412 259840 1161 15211 -7421
39473 293276 259737 1084 15172 -7231
39462 293167 259639 1066 15159 -7100
39450 293032 259512 1088 15230 -6910
39439 292866 259304 1118 15369 -6710
39438 292753 259193 1097 15468 -6538
39457 292809 259241 1029 15433 -6341
39465 292743 259152 1002 15245 -6266
39491 292796 259178 979 15244 -6199
39530 292921 259278 849 15270 -5929
39574 292985 259311 553 15172 -5391
39613 293064 259313 607 15418 -5094
39664 293155 259347 631 15433 -4889
39711 293203 259332 558 15419 -4728
39773 293291 259392 443 15486 -4487
39839 293395 259479 327 15479 -4236
39909 293492 259565 321 15480 -4041
39978 293571 259645 423 15552 -3913
40047 293623 259703 533 15668 -3868
40107 293592 259672 437 15745 -3673
40170 293599 259694 293 15783 -3621
40219 293529 259685 254 15768 -3648
40260 293519 259746 273 15772 -3645
40282 293465 259752 230 15861 -3610
40300 293339 259684 188 16005 -3503
40310 293214 259643 244 16015 -3410
40324 293092 259597 272 15920 -3377
40337 292986 259575 230 15951 -3392
40348 292849 259519 163 15955 -3442
40362 292733 259467 153 15967 -3497
40382 292659 259488 182 16009 -3594
40403 292628 259533 142 16051 -3756
40433 292630 259617 0 16081 -3916
40465 292650 259741 -10 16097 -4024
40489 292664 259862 122 16120 -4115
40503 292656 259944 230 16141 -4168
40514 292605 259966 268 16141 -4208
40521 292561 259988 188 16106 -4275
40523 292482 259993 99 16024 -4293
40523 292385 259968 74 15934 -4246
40527 292252 259892 107 15913 -4175
40527 292092 259798 155 15913 -4109
40533 291935 259690 96 15843 -4077
40540 291797 259610 -90 15686 -4108
40556 291696 259559 -258 15587 -4166
40578 291620 259524 -254 15605 -4193
40602 291568 259500 -133 15649 -4194
40629 291538 259488 -27 15673 -4146
40653 291531 259489 23 15653 -4116
40681 291576 259522 35 15618 -4175
40708 291598 259555 71 15611 -4212
40734 291626 259552 123 15626 -4171
40759 291665 259568 106 15631 -4125
40789 291708 259604 44 15640 -4113
40814 291790 259654 30 15656 -4145
40835 291900 259703 81 15687 -4203
40845 292030 259718 138 15727 -4258
40851 292139 259752 153 15767 -4386
40608 293881 260968 175 15861 -4555
40607 294008 261045 343 16007 -4695
40606 294095 261116 409 15962 -4645
40606 294211 261180 450 15928 -4567
40606 294283 261251 468 15919 -4465
40600 294318 261270 479 15906 -4372
40597 294332 261279 497 15860 -4308
40587 294346 261267 480 15804 -4234
40587 294355 261245 422 15822 -4157
40584 294357 261232 341 15899 -4115
40587 294375 261238 290 16006 -4063
40591 294393 261243 322 16138 -3992
40599 294398 261238 301 16166 -3934
40607 294411 261246 284 16107 -3890
40618 294438 261260 299 16077 -3841
40630 294457 261277 332 16109 -3737
40645 294492 261308 339 16151 -3617
40661 294530 261346 274 16153 -3539
40678 294546 261347 138 16122 -3484
40695 294551 261347 12 16080 -3425
40714 294551 261348 -23 16032 -3364
40736 294571 261359 0 16015 -3277
40752 294599 261371 13 16018 -3198
40769 294618 261383 -16 16006 -3168
40777 294625 261380 -43 16010 -3146
40770 294593 261368 -52 16025 -3106
40749 294575 261362 -43 16006 -3079
40724 294551 261359 -28 15967 -3035
40701 294540 261355 -64 15948 -2992
40679 294529 261339 -128 15926 -2983
40658 294516 261330 -188 15916 -2946
40645 294534 261345 -239 15932 -2870
40641 294569 261389 -238 15932 -2850
40636 294622 261445 -203 15916 -2914
40635 294656 261478 -130 15927 -2956
