2025-07-20 19:16:12    绿光---红外光---红光---X轴---Y轴---Z轴
22573 111212 124314 -14350 6774 3570
22577 111221 124320 -14366 6791 3562
22578 111223 124327 -14397 6810 3548
22580 111226 124330 -14415 6821 3571
22581 111229 124331 -14411 6824 3619
22582 111239 124330 -14402 6840 3634
22586 111238 124331 -14392 6861 3633
22591 111247 124333 -14377 6860 3637
22596 111258 124340 -14357 6841 3643
22597 111264 124347 -14341 6831 3651
22602 111270 124355 -14332 6850 3660
22606 111279 124353 -14328 6875 3653
22611 111282 124359 -14324 6868 3640
22614 111287 124358 -14313 6833 3630
22618 111276 124351 -14317 6801 3627
22613 111247 124330 -14343 6797 3620
22601 111218 124311 -14370 6815 3629
22591 111202 124303 -14387 6816 3650
22585 111197 124304 -14382 6796 3654
22578 111195 124307 -14364 6764 3644
22574 111194 124309 -14353 6728 3627
22573 111197 124311 -14353 6709 3633
22573 111199 124317 -14384 6702 3605
22574 111207 124321 -14376 6677 3624
22576 111218 124328 -14364 6667 3636
22578 111226 124328 -14355 6661 3635
22581 111226 124329 -14349 6662 3625
22582 111228 124329 -14358 6661 3643
22584 111227 124331 -14372 6656 3666
22583 111227 124325 -14369 6654 3664
22582 111225 124330 -14359 6654 3656
22584 111232 124333 -14378 6691 3610
22585 111237 124333 -14375 6696 3619
22584 111236 124335 -14372 6706 3632
22589 111240 124341 -14373 6720 3642
22591 111238 124340 -14366 6728 3641
22595 111253 124343 -14362 6728 3631
22595 111258 124351 -14360 6728 3611
22602 111268 124354 -14362 6730 3610
22607 111277 124358 -14356 6740 3622
22613 111288 124362 -14347 6755 3601
22615 111299 124371 -14354 6760 3575
22621 111309 124377 -14354 6759 3576
22624 111313 124377 -14354 6771 3590
22627 111302 124372 -14364 6783 3583
22623 111279 124354 -14377 6785 3550
22616 111259 124348 -14390 6768 3520
22607 111245 124339 -14392 6744 3486
22603 111238 124342 -14390 6737 3451
22597 111236 124345 -14380 6735 3421
22595 111237 124351 -14387 6742 3396
22592 111244 124356 -14415 6758 3384
22591 111246 124357 -14418 6767 3408
22591 111249 124360 -14397 6764 3450
22595 111262 124369 -14388 6760 3484
22598 111266 124366 -14380 6761 3503
22599 111272 124366 -14366 6755 3508
22599 111270 124369 -14366 6754 3523
22603 111268 124370 -14369 6763 3537
22601 111270 124366 -14368 6761 3533
22629 111320 124386 -14349 6807 3561
22635 111337 124390 -14381 6817 3512
22640 111345 124396 -14374 6787 3513
22645 111349 124397 -14369 6756 3510
22650 111348 124393 -14367 6752 3515
22650 111328 124382 -14365 6762 3509
22645 111306 124368 -14384 6778 3522
22637 111281 124355 -14404 6802 3526
22629 111262 124348 -14398 6812 3509
22622 111253 124348 -14384 6805 3497
22615 111249 124339 -14349 6807 3561
22611 111248 124344 -14381 6817 3512
22611 111251 124346 -14374 6787 3513
22608 111250 124348 -14369 6756 3510
22608 111255 124353 -14367 6752 3515
22609 111266 124358 -14365 6762 3509
22612 111270 124363 -14384 6778 3522
22614 111274 124358 -14404 6802 3526
22617 111274 124362 -14398 6812 3509
22617 111273 124361 -14384 6805 3497
22619 111272 124358 -14371 6777 3437
22619 111264 124350 -14370 6746 3456
22617 111262 124350 -14371 6756 3477
22620 111262 124349 -14373 6781 3484
22620 111272 124350 -14376 6795 3488
22621 111274 124352 -14376 6803 3470
22626 111285 124358 -14373 6799 3454
22627 111290 124362 -14384 6804 3486
22632 111295 124363 -14383 6823 3525
22635 111307 124368 -14369 6843 3531
22640 111308 124373 -14354 6861 3548
22644 111323 124375 -14340 6866 3582
22648 111325 124378 -14335 6850 3608
22652 111339 124381 -14336 6832 3621
22658 111340 124384 -14344 6806 3614
22662 111342 124383 -14353 6782 3590
22665 111339 124380 -14359 6767 3559
22663 111318 124366 -14366 6741 3543
22658 111290 124351 -14371 6715 3532
22647 111270 124344 -14379 6723 3513
22627 111272 124360 -14425 6741 3482
22629 111267 124359 -14428 6735 3484
22631 111270 124362 -14399 6721 3513
22633 111270 124362 -14389 6717 3518
22630 111273 124363 -14383 6716 3517
22631 111276 124366 -14380 6712 3520
22635 111285 124369 -14383 6719 3532
22636 111289 124370 -14375 6729 3559
22640 111295 124370 -14366 6740 3579
22641 111301 124378 -14371 6745 3583
22643 111308 124381 -14396 6752 3556
22647 111313 124382 -14404 6767 3536
22652 111320 124383 -14384 6765 3547
22654 111326 124387 -14373 6768 3542
22660 111335 124392 -14364 6773 3532
22665 111345 124396 -14364 6764 3538
22670 111352 124392 -14369 6758 3544
22674 111355 124396 -14373 6765 3541
22679 111354 124394 -14381 6773 3526
22678 111341 124379 -14384 6768 3513
22673 111311 124365 -14406 6754 3452
22665 111282 124353 -14379 6763 3475
22656 111268 124347 -14372 6771 3504
22648 111257 124345 -14373 6773 3524
22644 111249 124343 -14373 6774 3529
22641 111253 124348 -14370 6750 3535
22638 111256 124352 -14372 6706 3528
22634 111257 124355 -14383 6682 3510
22635 111263 124358 -14395 6704 3493
22635 111268 124361 -14467 6746 3478
22635 111279 124365 -14451 6725 3485
22641 111284 124374 -14425 6702 3485
22643 111285 124373 -14402 6685 3484
22643 111288 124378 -14389 6668 3503
22642 111278 124374 -14385 6663 3542
22643 111282 124369 -14381 6674 3563
22645 111277 124372 -14379 6684 3562
22645 111279 124379 -14382 6689 3565
22647 111289 124381 -14385 6680 3551
22650 111299 124388 -14380 6672 3526
22652 111309 124395 -14381 6672 3539
22655 111318 124401 -14387 6686 3576
22661 111325 124415 -14387 6706 3601
22665 111335 124420 -14375 6703 3606
22670 111345 124428 -14358 6696 3599
22675 111352 124432 -14356 6694 3585
22680 111360 124434 -14366 6699 3574
22684 111374 124437 -14374 6725 3573
22689 111382 124444 -14375 6760 3566
22695 111387 124447 -14387 6785 3540
22699 111398 124450 -14394 6785 3543
22706 111404 124454 -14385 6774 3571
22706 111390 124449 -14372 6772 3582
22702 111366 124430 -14363 6764 3578
22695 111340 124415 -14362 6748 3570
22687 111319 124405 -14367 6733 3573
22678 111309 124404 -14371 6732 3577
22671 111303 124409 -14377 6735 3566
22669 111305 124414 -14383 6720 3534
22665 111308 124417 -14403 6701 3484
22666 111310 124416 -14417 6695 3479
22663 111319 124417 -14409 6700 3510
22663 111323 124425 -14403 6710 3527
22666 111329 124427 -14399 6714 3540
22669 111333 124430 -14395 6705 3520
22672 111338 124432 -14384 6695 3484
22672 111338 124433 -14374 6686 3476
22673 111334 124434 -14375 6679 3490
22672 111330 124433 -14372 6693 3511
22671 111335 124436 -14377 6726 3504
22673 111334 124434 -14380 6738 3511
22673 111337 124439 -14372 6733 3565
22674 111344 124442 -14364 6729 3588
22676 111347 124442 -14358 6726 3578
22679 111354 124447 -14370 6730 3587
22682 111358 124452 -14381 6743 3600
22683 111364 124452 -14380 6747 3586
22686 111373 124458 -14377 6738 3564
22690 111379 124456 -14369 6734 3564
22693 111383 124459 -14384 6755 3559
22695 111392 124458 -14382 6749 3571
22701 111397 124457 -14379 6741 3568
22704 111404 124457 -14382 6723 3565
22708 111406 124453 -14380 6708 3569
22710 111401 124451 -14369 6704 3574
22705 111372 124427 -14360 6676 3580
22698 111340 124413 -14361 6649 3583
22689 111320 124403 -14360 6655 3578
22681 111306 124401 -14372 6677 3562
22673 111302 124398 -14399 6699 3545
22666 111292 124396 -14395 6701 3538
22666 111296 124404 -14382 6699 3545
22660 111296 124400 -14390 6709 3554
22659 111295 124395 -14404 6719 3552
22660 111303 124406 -14427 6726 3549
22662 111312 124402 -14429 6716 3541
22664 111310 124406 -14407 6698 3524
22665 111314 124399 -14387 6679 3514
22664 111307 124399 -14379 6671 3514
22663 111306 124399 -14383 6684 3510
22662 111302 124398 -14380 6698 3531
22663 111300 124400 -14369 6705 3573
22662 111304 124397 -14364 6713 3612
22662 111307 124399 -14360 6722 3642
22662 111305 124397 -14352 6720 3628
22664 111308 124397 -14357 6709 3612
22665 111316 124396 -14374 6703 3604
22667 111313 124396 -14386 6706 3575
22670 111321 124395 -14385 6715 3542
22672 111322 124395 -14390 6732 3514
22670 111265 124332 -14361 6769 3603
22657 111251 124328 -14357 6758 3606
22649 111249 124331 -14357 6751 3612
22643 111245 124331 -14352 6745 3607
22637 111244 124334 -14350 6746 3593
22636 111244 124335 -14353 6766 3583
22634 111245 124333 -14365 6785 3595
22631 111250 124336 -14380 6778 3608
22633 111252 124334 -14382 6772 3561
22633 111255 124337 -14373 6774 3573
22631 111251 124331 -14363 6784 3599
22633 111254 124331 -14361 6785 3610
22632 111246 124333 -14371 6769 3597
22629 111247 124334 -14376 6746 3591
22630 111247 124337 -14371 6739 3614
22627 111248 124336 -14353 6744 3628
22627 111247 124335 -14333 6749 3625
22626 111251 124337 -14338 6765 3617
22627 111256 124340 -14358 6781 3596
22627 111257 124341 -14366 6781 3592
22631 111262 124343 -14365 6768 3596
22635 111268 124345 -14360 6768 3598
22637 111275 124345 -14359 6777 3599
22637 111281 124351 -14362 6783 3603
22641 111289 124357 -14363 6785 3606
22644 111299 124357 -14358 6791 3604
22646 111304 124360 -14350 6793 3613
22651 111311 124363 -14355 6788 3608
22655 111321 124360 -14370 6803 3583
22658 111318 124359 -14368 6813 3577
22659 111310 124348 -14359 6796 3589
22654 111278 124331 -14356 6787 3595
22644 111250 124319 -14354 6781 3597
22632 111227 124312 -14365 6775 3600
22622 111210 124303 -14376 6784 3609
22611 111195 124300 -14368 6779 3620
22601 111198 124302 -14351 6758 3608
22595 111195 124304 -14348 6733 3578
22591 111194 124303 -14377 6739 3532
22588 111194 124305 -14405 6758 3525
22587 111195 124306 -14403 6767 3566
22583 111209 124316 -14393 6777 3580
22584 111210 124317 -14385 6757 3575
22587 111211 124312 -14375 6745 3572
22586 111212 124317 -14356 6754 3585
22585 111207 124314 -14339 6764 3600
22583 111210 124314 -14338 6773 3607
22581 111200 124310 -14344 6764 3607
22579 111203 124312 -14367 6759 3553
22578 111208 124312 -14354 6731 3574
22578 111209 124316 -14363 6729 3589
22578 111207 124315 -14377 6742 3612
22578 111213 124316 -14373 6763 3615
22578 111221 124318 -14357 6767 3604
22582 111224 124325 -14349 6771 3594
22584 111234 124330 -14352 6780 3588
22588 111243 124334 -14359 6775 3595
22590 111250 124337 -14375 6799 3568
22596 111261 124345 -14366 6798 3580
22600 111266 124349 -14358 6793 3600
22604 111278 124349 -14352 6789 3609
22608 111286 124356 -14348 6777 3612
22612 111293 124358 -14347 6764 3615
22615 111300 124359 -14350 6759 3607
22616 111298 124357 -14355 6764 3589
22616 111279 124342 -14359 6768 3575
22608 111247 124326 -14393 6771 3554
22598 111223 124313 -14395 6763 3561
22587 111205 124311 -14383 6734 3587
22576 111193 124313 -14377 6711 3604
22566 111186 124314 -14369 6706 3604
22558 111189 124312 -14368 6733 3605
22555 111187 124318 -14379 6762 3618
22551 111193 124323 -14381 6767 3621
22551 111191 124320 -14375 6762 3605
22554 111205 124331 -14371 6758 3578
22553 111212 124340 -14370 6761 3576
22554 111219 124342 -14367 6764 3592
22554 111219 124345 -14358 6760 3610
22556 111215 124341 -14355 6760 3618
22561 111251 124370 -14363 6781 3593
22564 111255 124366 -14362 6793 3609
22572 111269 124371 -14357 6807 3612
22573 111274 124367 -14350 6805 3605
22576 111283 124379 -14348 6796 3595
22583 111295 124381 -14356 6786 3589
22590 111303 124384 -14400 6779 3547
22591 111309 124389 -14379 6760 3567
22594 111304 124385 -14367 6750 3579
22589 111281 124370 -14365 6739 3588
22580 111252 124356 -14365 6716 3595
22567 111223 124347 -14359 6703 3602
22559 111217 124338 -14354 6720 3623
22549 111205 124335 -14353 6758 3637
22543 111204 124343 -14360 6784 3640
22538 111202 124341 -14384 6759 3601
22534 111202 124343 -14367 6736 3599
22533 111208 124347 -14352 6724 3599
22533 111212 124347 -14350 6727 3594
22536 111220 124353 -14354 6742 3603
22538 111227 124355 -14368 6759 3621
22539 111228 124353 -14378 6763 3624
22539 111226 124355 -14374 6769 3632
22539 111227 124348 -14368 6767 3646
22538 111219 124347 -14366 6760 3598
22535 111215 124342 -14374 6756 3592
22536 111217 124342 -14373 6749 3592
22539 111219 124340 -14375 6742 3594
22536 111218 124340 -14373 6738 3588
22535 111223 124342 -14370 6743 3592
22539 111225 124341 -14368 6755 3598
22538 111228 124341 -14362 6760 3600
22541 111230 124340 -14356 6776 3609
22544 111236 124339 -14355 6788 3611
22548 111237 124339 -14363 6790 3606
22554 111246 124333 -14363 6783 3600
22558 111253 124344 -14358 6768 3596
22562 111262 124344 -14358 6760 3617
22566 111270 124358 -14357 6756 3632
22574 111293 124381 -14355 6751 3617
22581 111304 124392 -14359 6746 3605
22583 111301 124395 -14358 6741 3648
22578 111278 124386 -14351 6716 3588
22570 111264 124379 -14370 6721 3572
22562 111263 124385 -14393 6748 3605
22557 111256 124379 -14387 6743 3548
22552 111259 124382 -14380 6738 3573
22549 111277 124416 -14374 6736 3610
22547 111296 124445 -14360 6712 3581
22544 111313 124458 -14334 6625 3426
22544 111314 124456 -14297 6548 3410
22547 111316 124452 -14176 6628 3632
22549 111328 124458 -14130 6776 3780
22553 111335 124470 -14271 6880 3767
22557 111346 124482 -14532 6970 3513
22555 111353 124493 -14521 6984 3459
22560 111358 124499 -14460 6997 3499
22560 111370 124503 -14397 7005 3533
22563 111384 124525 -14363 7003 3523
22565 111394 124545 -14360 6947 3468
22563 111395 124548 -14373 6873 3396
22565 111399 124548 -14369 6861 3398
22565 111398 124545 -14348 6917 3459
22568 111400 124538 -14326 6972 3523
22568 111399 124535 -14325 6966 3552
22571 111403 124529 -14322 6950 3561
22576 111414 124533 -14319 6938 3554
22580 111424 124545 -14327 6928 3554
22586 111431 124547 -14321 6925 3579
22589 111440 124546 -14319 6921 3598
22595 111444 124550 -14327 6926 3599
22601 111451 124548 -14330 6936 3595
22602 111445 124534 -14334 6939 3608
22598 111424 124513 -14364 6926 3553
22590 111389 124489 -14352 6929 3567
22581 111356 124474 -14340 6933 3593
22571 111336 124460 -14333 6942 3627
22559 111324 124455 -14342 6944 3657
22555 111317 124454 -14343 6940 3654
22548 111312 124453 -14339 6910 3649
22547 111319 124453 -14337 6868 3637
22547 111321 124459 -14328 6839 3634
22549 111330 124466 -14318 6826 3624
22549 111338 124473 -14319 6830 3589
22551 111350 124474 -14329 6833 3586
22553 111357 124484 -14333 6839 3614
22556 111361 124480 -14335 6846 3617
22557 111360 124479 -14342 6843 3601
22556 111357 124480 -14349 6844 3598
22557 111357 124481 -14356 6850 3608
22558 111359 124488 -14354 6846 3617
22559 111364 124486 -14341 6844 3602
22560 111369 124493 -14334 6848 3581
22561 111374 124491 -14347 6858 3571
22563 111381 124497 -14353 6869 3579
22568 111391 124503 -14346 6872 3583
22572 111404 124527 -14344 6883 3583
22578 111426 124534 -14347 6887 3591
22584 111436 124546 -14351 6877 3604
22590 111444 124550 -14342 6866 3619
22592 111453 124551 -14337 6872 3602
22596 111451 124544 -14344 6884 3586
22600 111448 124537 -14357 6886 3570
22600 111429 124517 -14395 6915 3567
22595 111391 124486 -14375 6905 3617
22585 111347 124454 -14376 6882 3629
22579 111308 124432 -14376 6871 3612
22566 111288 124421 -14371 6826 3542
22555 111274 124412 -14363 6788 3516
22547 111266 124411 -14352 6783 3550
22543 111264 124409 -14343 6771 3557
22539 111266 124412 -14344 6770 3580
22534 111269 124414 -14341 6779 3581
22533 111273 124415 -14335 6786 3617
22536 111276 124416 -14342 6796 3645
22538 111278 124418 -14339 6790 3664
22539 111277 124414 -14334 6782 3671
22537 111273 124409 -14348 6760 3660
22537 111266 124407 -14365 6743 3651
22536 111264 124401 -14357 6738 3631
22533 111262 124400 -14345 6722 3594
22536 111263 124395 -14361 6715 3569
22537 111266 124398 -14395 6711 3533
22533 111274 124406 -14408 6710 3522
22539 111280 124411 -14388 6737 3551
22543 111291 124424 -14377 6741 3571
22552 111298 124452 -14442 6690 3607
22556 111285 124452 -14469 6658 3595
22561 111285 124452 -14404 6690 3539
22561 111282 124442 -14366 6720 3530
22562 111278 124430 -14370 6715 3547
22560 111270 124425 -14398 6709 3550
22560 111267 124413 -14438 6699 3515
22554 111261 124404 -14428 6683 3467
22550 111246 124392 -14365 6702 3523
22544 111239 124386 -14301 6731 3633
22540 111248 124398 -14292 6702 3643
22533 111256 124412 -14347 6659 3551
22528 111269 124430 -14404 6656 3481
22523 111284 124451 -14418 6693 3500
22520 111296 124464 -14397 6742 3538
22516 111302 124468 -14398 6783 3525
22517 111308 124469 -14442 6826 3497
22516 111314 124468 -14458 6874 3492
22516 111321 124466 -14426 6886 3482
22518 111318 124458 -14413 6884 3470
22516 111312 124454 -14405 6890 3456
22518 111311 124448 -14380 6892 3453
22516 111306 124444 -14359 6885 3450
22516 111310 124438 -14351 6882 3472
22516 111310 124438 -14347 6904 3533
22516 111308 124435 -14344 6915 3562
22517 111311 124443 -14347 6913 3519
22517 111318 124436 -14343 6909 3483
22518 111316 124437 -14338 6914 3517
22518 111322 124441 -14343 6928 3556
22522 111320 124441 -14347 6940 3582
22522 111325 124440 -14345 6932 3584
22525 111332 124433 -14342 6907 3567
22528 111330 124434 -14339 6889 3566
22532 111334 124431 -14345 6874 3568
22535 111343 124430 -14353 6883 3565
22538 111344 124426 -14371 6879 3549
22540 111331 124413 -14355 6863 3551
22536 111308 124402 -14357 6862 3557
22526 111285 124387 -14360 6878 3584
22518 111259 124381 -14360 6901 3624
22509 111245 124364 -14359 6914 3657
22502 111232 124359 -14353 6886 3654
22495 111232 124358 -14348 6836 3632
22492 111235 124361 -14333 6812 3634
22493 111236 124366 -14320 6837 3635
22492 111239 124368 -14333 6863 3661
22494 111236 124367 -14338 6860 3671
22499 111247 124372 -14335 6842 3667
22501 111242 124370 -14324 6836 3656
22504 111246 124367 -14319 6838 3672
22501 111231 124353 -14324 6825 3695
22500 111227 124349 -14328 6828 3695
22502 111225 124346 -14324 6839 3688
22502 111226 124349 -14328 6844 3681
22504 111232 124356 -14330 6852 3676
22507 111248 124365 -14324 6863 3691
22509 111256 124373 -14323 6883 3719
22511 111273 124382 -14323 6903 3733
22516 111281 124390 -14324 6893 3728
22519 111293 124396 -14313 6878 3711
22524 111302 124402 -14301 6872 3695
22527 111306 124413 -14303 6879 3676
22532 111312 124417 -14314 6904 3684
22540 111321 124425 -14316 6905 3694
22545 111324 124424 -14304 6902 3669
22545 111307 124408 -14304 6911 3653
22540 111275 124384 -14321 6916 3641
22531 111245 124370 -14339 6897 3621
22523 111231 124360 -14350 6844 3601
22516 111218 124361 -14351 6822 3569
22508 111217 124360 -14349 6855 3550
22504 111215 124364 -14359 6869 3545
22500 111220 124365 -14371 6849 3566
22497 111219 124363 -14375 6855 3597
22496 111221 124362 -14396 6873 3576
22500 111239 124380 -14406 6855 3563
22507 111270 124406 -14388 6805 3596
22512 111278 124412 -14373 6775 3621
22522 111288 124437 -14415 6724 3629
22529 111255 124430 -14480 6699 3637
22523 111212 124398 -14431 6751 3671
22517 111186 124375 -14343 6758 3697
22510 111176 124363 -14327 6692 3663
22503 111170 124355 -14343 6644 3617
22498 111168 124351 -14373 6661 3627
22498 111175 124349 -14378 6716 3688
22498 111187 124350 -14343 6759 3738
22499 111200 124359 -14332 6747 3732
22502 111223 124369 -14340 6722 3704
22505 111244 124380 -14336 6719 3697
22509 111270 124392 -14336 6723 3690
22514 111287 124396 -14348 6703 3654
22521 111308 124405 -14356 6689 3628
22526 111309 124398 -14357 6689 3648
22521 111287 124389 -14392 6757 3706
22518 111263 124373 -14384 6794 3701
22509 111248 124364 -14393 6790 3647
22506 111241 124358 -14399 6781 3575
22502 111239 124367 -14382 6787 3541
22503 111245 124369 -14368 6816 3543
22500 111250 124379 -14364 6840 3549
22499 111253 124388 -14356 6854 3570
22497 111263 124397 -14333 6880 3601
22499 111277 124413 -14346 6901 3612
22500 111291 124420 -14341 6894 3590
22504 111296 124419 -14340 6886 3615
22506 111303 124425 -14347 6881 3668
22507 111304 124432 -14343 6885 3694
22509 111298 124426 -14339 6871 3687
22509 111300 124423 -14337 6835 3677
22509 111299 124424 -14330 6826 3674
22511 111299 124422 -14322 6821 3682
22512 111299 124424 -14315 6818 3673
22514 111301 124423 -14310 6830 3640
22516 111301 124425 -14311 6837 3624
22518 111315 124422 -14321 6840 3638
22523 111321 124426 -14337 6853 3650
22525 111324 124421 -14346 6871 3638
22529 111330 124428 -14348 6866 3627
22536 111336 124431 -14339 6842 3625
22540 111341 124428 -14341 6828 3617
22543 111333 124420 -14355 6831 3604
22538 111301 124395 -14365 6829 3588
22531 111276 124372 -14393 6827 3571
22522 111247 124357 -14407 6825 3580
22514 111230 124344 -14393 6814 3602
22507 111215 124333 -14381 6788 3599
22502 111208 124332 -14363 6765 3595
22499 111209 124332 -14347 6761 3610
22498 111214 124338 -14343 6751 3633
22497 111211 124337 -14339 6745 3643
22498 111220 124340 -14335 6745 3653
22499 111223 124343 -14331 6758 3659
22500 111223 124338 -14393 6827 3571
22504 111223 124339 -14407 6825 3580
22507 111224 124338 -14393 6814 3602
22508 111220 124339 -14381 6788 3599
22508 111223 124343 -14363 6765 3595
22508 111230 124341 -14347 6761 3610
22511 111229 124346 -14343 6751 3633
22512 111230 124346 -14339 6745 3643
22515 111239 124346 -14335 6745 3653
22514 111240 124344 -14331 6758 3659
22521 111243 124344 -14332 6803 3629
22521 111247 124349 -14352 6811 3656
22524 111248 124350 -14364 6828 3675
22526 111247 124348 -14364 6845 3671
22529 111256 124347 -14362 6828 3642
22535 111257 124344 -14367 6800 3628
22537 111240 124338 -14365 6792 3626
22534 111211 124319 -14356 6801 3625
22528 111189 124312 -14351 6798 3624
22519 111168 124300 -14352 6792 3615
22511 111156 124297 -14349 6807 3629
22507 111155 124298 -14344 6817 3651
22508 111158 124307 -14348 6811 3666
22504 111163 124314 -14344 6795 3666
22507 111170 124322 -14339 6783 3650
22509 111178 124323 -14339 6775 3645
22513 111186 124330 -14343 6778 3640
22516 111191 124333 -14353 6798 3636
22520 111191 124331 -14365 6789 3632
22522 111192 124331 -14450 6752 3562
22526 111198 124351 -14428 6708 3527
22539 111229 124392 -14399 6704 3550
22545 111226 124408 -14388 6687 3571
22548 111197 124390 -14387 6667 3572
22545 111178 124378 -14383 6645 3570
22544 111188 124380 -14374 6628 3587
22545 111201 124389 -14365 6620 3587
22546 111218 124389 -14375 6608 3586
22546 111233 124395 -14391 6584 3599
22550 111247 124401 -14511 6613 3595
22556 111267 124407 -14462 6699 3614
22559 111296 124423 -14368 6747 3636
22566 111319 124438 -14325 6716 3634
22570 111338 124448 -14370 6658 3622
22573 111340 124447 -14413 6618 3590
22571 111327 124438 -14397 6638 3561
22567 111308 124428 -14361 6678 3590
22558 111281 124409 -14338 6660 3632
22552 111264 124398 -14354 6710 3627
22547 111263 124400 -14371 6753 3635
22542 111267 124407 -14400 6743 3660
22543 111277 124417 -14396 6717 3688
22542 111285 124426 -14367 6722 3723
22542 111288 124432 -14366 6742 3722
22543 111299 124440 -14374 6734 3667
22549 111311 124451 -14348 6702 3592
22551 111317 124451 -14313 6684 3541
22553 111320 124449 -14276 6724 3508
22554 111321 124452 -14249 6814 3492
22556 111321 124445 -14268 6896 3500
22553 111313 124440 -14317 6947 3517
22554 111309 124434 -14355 6993 3541
22559 111303 124422 -14382 7030 3549
22557 111303 124415 -14397 7049 3542
22560 111309 124424 -14403 7050 3533
22562 111317 124419 -14414 7017 3537
22565 111319 124427 -14418 6959 3538
22569 111326 124426 -14430 6888 3532
22572 111330 124424 -14442 6809 3522
22577 111337 124426 -14412 6714 3519
22581 111341 124420 -14379 6638 3540
22587 111342 124420 -14381 6618 3576
22589 111343 124414 -14404 6617 3598
22589 111326 124412 -14414 6587 3600
22586 111302 124398 -14396 6545 3614
22579 111282 124386 -14377 6513 3634
22575 111272 124380 -14388 6503 3633
22569 111264 124387 -14443 6513 3623
22567 111271 124394 -14514 6521 3590
22565 111273 124398 -14503 6496 3570
22591 111304 124421 -14427 6500 3735
22593 111304 124420 -14405 6499 3729
22596 111312 124428 -14390 6515 3721
22599 111314 124428 -14383 6530 3688
22603 111328 124439 -14399 6556 3671
22605 111332 124439 -14421 6587 3689
22611 111332 124443 -14405 6621 3676
22615 111339 124438 -14335 6674 3607
22619 111350 124440 -14272 6754 3554
22623 111346 124437 -14292 6808 3579
22628 111348 124436 -14338 6833 3635
22627 111319 124422 -14343 6863 3671
22623 111298 124400 -14334 6895 3684
22614 111273 124389 -14330 6911 3672
22606 111253 124377 -14328 6901 3654
22602 111241 124374 -14331 6881 3641
22598 111235 124372 -14350 6869 3654
22598 111232 124374 -14390 6849 3641
22598 111236 124378 -14393 6835 3651
22596 111241 124387 -14392 6809 3669
22600 111251 124396 -14387 6787 3687
22603 111253 124391 -14384 6741 3687
22606 111246 124388 -14375 6688 3656
22604 111241 124381 -14361 6663 3623
22605 111240 124382 -14350 6673 3606
22607 111237 124383 -14345 6713 3615
22607 111234 124379 -14354 6742 3656
22605 111231 124377 -14353 6782 3685
22607 111238 124378 -14329 6810 3703
22607 111236 124374 -14309 6820 3739
22610 111238 124375 -14304 6813 3764
22612 111241 124372 -14303 6783 3793
22617 111251 124393 -14294 6772 3820
22628 111280 124426 -14285 6766 3808
22641 111292 124443 -14290 6749 3790
22647 111272 124433 -14301 6720 3774
22646 111261 124416 -14310 6708 3748
22646 111268 124421 -14292 6728 3687
22648 111280 124434 -14267 6708 3620
22649 111277 124430 -14342 6652 3613
22645 111267 124417 -14443 6685 3630
22635 111253 124401 -14443 6806 3606
22626 111245 124393 -14387 6880 3559
22621 111247 124394 -14359 6860 3514
22616 111257 124400 -14418 6804 3496
22610 111260 124409 -14482 6788 3480
22607 111273 124413 -14477 6818 3474
22608 111279 124412 -14484 6848 3510
22607 111286 124413 -14460 6832 3546
22609 111289 124409 -14403 6777 3557
22611 111288 124411 -14384 6734 3510
22615 111298 124410 -14376 6734 3485
22615 111299 124410 -14379 6732 3533
22616 111303 124416 -14389 6727 3596
22617 111303 124416 -14387 6713 3638
22617 111304 124417 -14381 6667 3663
22618 111304 124423 -14374 6627 3651
22619 111307 124421 -14411 6613 3623
22622 111315 124421 -14410 6583 3652
22624 111315 124419 -14404 6551 3646
22627 111320 124424 -14403 6522 3605
22626 111324 124419 -14405 6506 3561
22628 111321 124416 -14408 6506 3531
22634 111330 124418 -14405 6529 3514
22638 111341 124427 -14404 6569 3520
22640 111342 124426 -14408 6609 3540
22644 111344 124418 -14441 6700 3532
22641 111331 124404 -14436 6709 3558
22638 111303 124386 -14415 6721 3566
22630 111279 124369 -14410 6726 3574
22624 111260 124361 -14395 6694 3575
22617 111251 124360 -14376 6669 3559
22609 111244 124358 -14368 6676 3548
22604 111238 124358 -14379 6685 3551
22604 111235 124356 -14400 6678 3563
22604 111233 124352 -14414 6675 3544
22598 111228 124347 -14434 6689 3495
22598 111233 124349 -14424 6698 3479
22599 111228 124343 -14407 6700 3492
22596 111223 124341 -14402 6714 3498
22592 111214 124322 -14390 6739 3515
22590 111198 124298 -14384 6760 3545
22588 111183 124284 -14372 6775 3572
22586 111176 124275 -14347 6792 3578
22584 111167 124276 -14334 6803 3577
22581 111167 124271 -14354 6811 3592
22585 111171 124281 -14397 6824 3596
22586 111179 124284 -14416 6807 3600
22592 111190 124301 -14399 6767 3598
22597 111204 124324 -14382 6752 3584
22603 111219 124347 -14363 6753 3578
22608 111237 124369 -14344 6764 3588
22614 111250 124383 -14331 6788 3628
22618 111268 124390 -14333 6802 3646
22621 111277 124398 -14354 6796 3617
22622 111277 124391 -14357 6796 3609
22617 111264 124389 -14373 6828 3578
22612 111247 124381 -14369 6820 3591
22604 111224 124369 -14360 6824 3609
22596 111222 124383 -14360 6822 3633
22588 111213 124378 -14349 6836 3648
22583 111210 124378 -14339 6829 3669
22577 111204 124377 -14351 6782 3632
22573 111203 124381 -14356 6760 3592
22571 111201 124375 -14354 6768 3619
22569 111198 124371 -14363 6771 3532
22568 111196 124367 -14359 6755 3562
22565 111196 124360 -14352 6737 3604
22563 111188 124351 -14354 6731 3633
22561 111184 124346 -14346 6739 3640
22555 111169 124328 -14328 6758 3633
22550 111157 124317 -14330 6791 3651
22546 111147 124306 -14340 6814 3668
22543 111136 124298 -14345 6826 3666
22541 111114 124271 -14328 6844 3637
22535 111097 124245 -14344 6863 3678
22535 111076 124225 -14377 6852 3710
22531 111051 124203 -14383 6817 3721
22529 111018 124172 -14362 6778 3716
22524 111004 124154 -14364 6752 3719
22522 111005 124147 -14384 6741 3714
22523 111019 124154 -14376 6744 3672
22524 111029 124155 -14363 6734 3652
22521 111033 124156 -14363 6694 3648
22518 111022 124143 -14375 6640 3606
22513 111022 124147 -14366 6622 3609
22504 111018 124157 -14322 6648 3680
22496 111020 124170 -14293 6663 3697
22490 111033 124186 -14318 6641 3622
22485 111041 124208 -14376 6642 3591
22480 111053 124216 -14397 6662 3614
22476 111067 124240 -14385 6672 3610
22478 111087 124261 -14383 6689 3566
22478 111104 124275 -14405 6713 3489
22479 111117 124276 -14452 6727 3419
22481 111122 124282 -14460 6747 3413
22483 111128 124285 -14432 6788 3457
22483 111128 124286 -14415 6811 3480
22482 111131 124289 -14400 6812 3459
22482 111132 124294 -14392 6820 3437
22480 111140 124301 -14394 6840 3454
22482 111142 124306 -14391 6857 3476
22482 111142 124307 -14377 6854 3475
22480 111148 124310 -14361 6839 3477
22483 111158 124318 -14352 6843 3434
22483 111158 124316 -14361 6830 3452
22484 111161 124320 -14366 6830 3464
22486 111169 124326 -14372 6830 3474
22488 111172 124327 -14373 6809 3466
22491 111177 124328 -14370 6797 3450
22494 111179 124323 -14368 6805 3442
22500 111186 124326 -14366 6814 3438
22499 111182 124321 -14374 6814 3443
22492 111155 124302 -14375 6790 3408
22483 111129 124283 -14376 6784 3418
22470 111108 124272 -14375 6789 3431
22458 111086 124265 -14388 6793 3452
22451 111075 124259 -14398 6800 3463
22445 111070 124262 -14400 6802 3457
22437 111065 124254 -14392 6777 3440
22432 111064 124257 -14382 6745 3422
22429 111064 124252 -14378 6722 3413
22428 111066 124249 -14401 6715 3404
22429 111067 124249 -14397 6696 3421
22431 111070 124254 -14379 6677 3434
22429 111071 124249 -14367 6680 3439
22429 111066 124246 -14377 6690 3456
22427 111063 124243 -14394 6700 3471
22424 111059 124242 -14402 6712 3470
22423 111063 124245 -14401 6717 3445
