2025-08-20 02:42:05    绿光---红外光---红光---X轴---Y轴---Z轴
34702 301678 332061 -13657 7220 -5358
34742 301711 332074 -13666 7207 -5328
34787 301746 332089 -13676 7176 -5328
34839 301814 332131 -13680 7137 -5336
34898 301884 332198 -13685 7126 -5351
34960 301963 332247 -13687 7121 -5384
35022 302055 332316 -13662 7112 -5390
35085 302157 332399 -13629 7106 -5385
35150 302262 332481 -13612 7116 -5397
35220 302365 332547 -13612 7133 -5417
35291 302436 332586 -13618 7145 -5432
35354 302552 332688 -13614 7161 -5437
35397 302631 332765 -13600 7182 -5458
35366 302613 332782 -13591 7201 -5465
35224 302495 332704 -13581 7190 -5452
35018 302361 332663 -13569 7166 -5456
34811 302276 332642 -13568 7171 -5477
34644 302230 332645 -13583 7195 -5517
34534 302243 332722 -13616 7209 -5538
34467 302286 332766 -13653 7216 -5528
34423 302323 332817 -13651 7197 -5502
34407 302438 332953 -13614 7161 -5488
34401 302571 333091 -13596 7136 -5510
34412 302652 333166 -13607 7110 -5543
34447 302813 333324 -13609 7085 -5558
34498 302957 333481 -13603 7086 -5623
34541 303085 333593 -13574 7081 -5646
34570 303194 333694 -13524 7093 -5658
34581 303288 333778 -13504 7111 -5700
34578 303351 333865 -13522 7121 -5733
34569 303452 333978 -13530 7138 -5718
34567 303596 334130 -13516 7154 -5681
34582 303763 334289 -13484 7159 -5621
34609 303874 334405 -13443 7182 -5553
34642 303989 334503 -13510 7273 -5627
34685 304131 334638 -13570 7300 -5681
34735 304277 334771 -13566 7318 -5691
34786 304402 334874 -13539 7320 -5674
34848 304543 334986 -13518 7301 -5666
34914 304693 335112 -13488 7273 -5696
34989 304840 335238 -13450 7240 -5754
35066 304984 335369 -13406 7209 -5798
35141 305118 335480 -13366 7194 -5807
35219 305225 335555 -13333 7187 -5819
35294 305333 335637 -13317 7195 -5845
35368 305388 335668 -13311 7224 -5875
35440 305459 335706 -13304 7263 -5910
35517 305505 335707 -13308 7308 -5940
35595 305551 335730 -13315 7350 -5975
35669 305566 335721 -13301 7380 -6013
35705 305540 335697 -13279 7400 -6051
35625 305373 335544 -13268 7408 -6069
35431 305154 335407 -13276 7414 -6055
35192 304928 335280 -13357 7406 -6048
34963 304779 335194 -13395 7396 -6046
34795 304738 335206 -13431 7374 -6057
34687 304733 335231 -13448 7309 -6031
34618 304789 335317 -13452 7242 -5976
34578 304845 335368 -13452 7195 -5942
34552 304953 335495 -13450 7159 -5925
34545 305084 335641 -13445 7132 -5930
34548 305230 335794 -13443 7119 -5963
34580 305403 335913 -13450 7118 -5991
34625 305616 336121 -13460 7124 -5950
34669 305822 336325 -13445 7136 -5973
34705 305977 336478 -13479 7174 -6043
34718 306104 336626 -13558 7216 -6103
34726 306312 336831 -13560 7258 -6085
34724 306530 337092 -13396 7327 -6013
34726 306732 337326 -13136 7438 -5991
34737 306792 337380 -12946 7606 -6084
34750 306780 337338 -12825 7799 -6183
34773 306719 337249 -12430 8057 -5865
34795 306584 337083 -12337 8154 -5624
34827 306448 336934 -12424 8239 -5513
34857 306275 336747 -12605 8325 -5512
34894 306093 336545 -12853 8394 -5579
34937 305898 336316 -13173 8401 -5647
34985 305748 336120 -13522 8336 -5668
35043 305667 335999 -13822 8240 -5645
35109 305614 335931 -14001 8112 -5576
35179 305644 335922 -14038 7917 -5507
35257 305792 336039 -13985 7656 -5453
35338 305995 336224 -13884 7365 -5406
35419 306223 336411 -13751 7097 -5379
35501 306534 336713 -13609 6885 -5384
35592 306908 337076 -13472 6775 -5459
35683 307292 337454 -13352 6750 -5611
35779 307681 337839 -13228 6776 -5812
35856 307992 338132 -13111 6861 -6020
35847 308130 338306 -13029 6994 -6190
35719 308117 338382 -12964 7156 -6325
35504 308036 338396 -12932 7320 -6427
35283 307915 338359 -12899 7454 -6481
35100 307804 338285 -12858 7543 -6475
34977 307747 338262 -12844 7591 -6425
34901 307708 338225 -12851 7613 -6360
34861 307680 338201 -12872 7637 -6312
34842 307649 338184 -12891 7677 -6281
34837 307639 338165 -12900 7712 -6238
34835 307590 338107 -12918 7751 -6206
34859 307601 338098 -12953 7799 -6156
34902 307664 338150 -13076 7829 -6092
34950 307677 338144 -13114 7884 -6158
34978 307648 338091 -13131 7919 -6178
34985 307607 338043 -13118 7927 -6130
34975 307539 337974 -13097 7923 -6053
34960 307484 337904 -13101 7906 -5976
34958 307434 337861 -13111 7870 -5910
34963 307438 337841 -13104 7837 -5852
34980 307459 337846 -13083 7816 -5808
35010 307487 337853 -13107 7776 -5810
35051 307510 337882 -13129 7783 -5807
35097 307549 337889 -13164 7801 -5794
35152 307609 337912 -13209 7814 -5776
35214 307645 337937 -13248 7806 -5758
35282 307686 337957 -13271 7782 -5756
35355 307720 337958 -13287 7753 -5756
35429 307775 337970 -13282 7715 -5742
35506 307836 338000 -13242 7676 -5719
35584 307898 338056 -13199 7646 -5719
35670 308005 338116 -13178 7634 -5760
35753 308096 338177 -13162 7648 -5820
35836 308188 338248 -13162 7660 -5884
35919 308302 338314 -13181 7660 -5921
36002 308398 338382 -13198 7658 -5927
36082 308497 338440 -13209 7659 -5913
36168 308590 338516 -13214 7658 -5874
36258 308668 338561 -13213 7649 -5816
36342 308749 338601 -13191 7635 -5766
36417 308859 338668 -13191 7638 -5778
36448 308844 338662 -13235 7648 -5827
36366 308732 338555 -13256 7674 -5823
36173 308571 338460 -13259 7723 -5800
35944 308399 338380 -13266 7744 -5807
35744 308303 338340 -13271 7734 -5822
35604 308263 338343 -13278 7715 -5836
35515 308238 338325 -13272 7676 -5827
35470 308241 338337 -13259 7627 -5786
35461 308290 338378 -13242 7594 -5756
35469 308343 338422 -13240 7570 -5738
35490 308406 338476 -13242 7530 -5726
35533 308518 338578 -13225 7556 -5758
35585 308638 338681 -13226 7591 -5802
35647 308737 338759 -13227 7617 -5805
35689 308805 338809 -13217 7645 -5796
35713 308881 338879 -13208 7677 -5800
35724 308942 338939 -13205 7699 -5812
35724 308981 338991 -13200 7708 -5838
35725 309036 339042 -13196 7720 -5867
35738 309081 339095 -13206 7702 -5875
35758 309162 339150 -13220 7674 -5864
35791 309221 339195 -13213 7671 -5852
35836 309285 339247 -13203 7673 -5842
35888 309369 339307 -13194 7677 -5832
35944 309466 339378 -13179 7668 -5822
36009 309578 339459 -13162 7656 -5834
36080 309678 339540 -13144 7662 -5848
36156 309796 339642 -13119 7684 -5861
36239 309918 339729 -13109 7714 -5867
36321 310050 339845 -13141 7741 -5848
36406 310188 339935 -13129 7772 -5848
36490 310311 340030 -13080 7813 -5866
36578 310438 340127 -13042 7840 -5877
36666 310560 340222 -13035 7872 -5906
36750 310657 340306 -13047 7897 -5933
36838 310774 340397 -13072 7913 -5948
36921 310873 340463 -13084 7925 -5941
37004 310956 340519 -13074 7905 -5901
37090 311020 340524 -13070 7868 -5871
36299 310300 339996 -13151 7887 -5778
36308 310358 340037 -13176 7907 -5745
36333 310456 340133 -13175 7976 -5720
36378 310552 340216 -13190 8021 -5708
36438 310633 340268 -13222 8051 -5689
36497 310688 340295 -13298 8091 -5660
36536 310729 340337 -13389 8114 -5605
36546 310720 340316 -13447 8092 -5530
36546 310688 340282 -13477 8049 -5457
36539 310725 340307 -13493 8010 -5405
36540 310811 340374 -13528 7947 -5371
36552 310888 340462 -13559 7877 -5323
36578 311013 340573 -13545 7833 -5271
36620 311206 340726 -13537 7787 -5263
36671 311400 340916 -13565 7723 -5284
36733 311649 341127 -13605 7640 -5290
36805 311896 341330 -13666 7545 -5274
36880 312160 341553 -13777 7432 -5232
36965 312405 341756 -13896 7272 -5141
37048 312645 341940 -13996 7078 -5067
37144 312926 342165 -14049 6697 -5055
37243 313212 342403 -14053 6523 -5022
37344 313478 342589 -14143 6335 -4934
37447 313700 342748 -14255 6052 -4793
37542 313861 342805 -14405 5697 -4650
37640 314048 342908 -14584 5351 -4522
37743 314352 343111 -14718 5034 -4372
37865 314826 343501 -14795 4726 -4161
37990 315334 343896 -14833 4429 -3904
38118 315814 344256 -14881 4133 -3670
38225 316028 344375 -14978 3851 -3537
38286 316001 344296 -15048 3606 -3438
38258 315778 344049 -15073 3304 -3156
38099 315098 343356 -15177 2873 -2727
37831 314120 342341 -15388 2438 -2324
37542 312942 341135 -15647 2090 -1997
37318 312035 340202 -15855 1803 -1727
37154 311304 339452 -15983 1558 -1437
37052 310603 338682 -16111 1357 -1118
36967 309605 337635 -16232 1193 -821
36902 308690 336675 -16305 1029 -555
36852 307756 335660 -16347 878 -323
36817 306934 334775 -16363 765 -142
36809 306343 334099 -16380 681 -33
36823 305943 333666 -16427 595 52
36832 305487 333138 -16465 498 177
36818 304838 332436 -16486 394 356
36787 304134 331680 -16502 284 561
36745 303499 331011 -16507 200 713
36695 303048 330557 -16486 171 798
36663 302783 330291 -16305 1029 -555
36640 302591 330068 -16347 878 -323
36633 302407 329883 -16363 765 -142
36641 302248 329706 -16380 681 -33
36658 302236 329716 -16427 595 52
36699 302494 330006 -16465 498 177
36740 302701 330211 -16486 394 356
36789 302822 330356 -16502 284 561
36843 302941 330453 -16507 200 713
36898 303084 330621 -16486 171 798
36958 303247 330799 -16437 149 884
37027 303561 331145 -16486 177 915
37102 303877 331475 -16527 242 946
37184 304223 331850 -16545 378 931
37271 304611 332241 -16559 561 917
37358 304943 332568 -16583 756 919
37445 305257 332847 -16607 992 906
37539 305655 333299 -16618 1276 915
37641 306214 333876 -16605 1561 939
37744 306728 334391 -16578 1830 866
37824 306990 334675 -16579 2059 711
37818 307018 334729 -16593 2276 552
37688 306928 334704 -16566 2547 385
37485 306869 334749 -16485 2830 249
37264 306760 334728 -16384 3080 183
37074 306565 334596 -16321 3299 102
36931 306386 334476 -16279 3524 -92
36839 306371 334524 -16168 3758 -347
36792 306514 334741 -16007 3948 -549
36765 306412 334662 -15857 4105 -667
36731 305886 334125 -15760 4255 -746
36694 305193 333419 -15753 4374 -821
36682 304632 332845 -15776 4496 -892
36695 304154 332352 -15776 4636 -931
36705 303677 331852 -15744 4763 -942
36699 303188 331336 -15685 4889 -1027
36677 302790 330943 -15577 5086 -1278
36642 302466 330633 -15388 5415 -1626
36603 302138 330305 -15171 5743 -1843
36566 301822 329971 -15016 5915 -1821
36534 301494 329638 -14954 5933 -1686
36517 301250 329391 -14970 5864 -1513
36516 301051 329183 -15072 5748 -1319
36526 300844 328971 -15223 5595 -1125
36536 300648 328765 -15344 5454 -933
36564 300502 328587 -15430 5371 -794
36597 300303 328343 -15471 5341 -710
36628 299997 328006 -15435 5343 -628
36671 299821 327787 -15353 5375 -557
36726 299730 327666 -15279 5421 -494
36779 299565 327449 -15308 5563 -427
36823 299214 327001 -15432 5575 -438
36869 298861 326585 -15592 5501 -454
36930 298815 326499 -15748 5371 -433
37010 298950 326577 -15877 5206 -370
37093 299104 326695 -15984 5023 -286
37192 299593 327170 -16104 4859 -207
37312 300481 328096 -16219 4704 -142
37426 301669 329363 -16308 4550 -49
37487 303457 331249 -16363 4400 172
36983 307608 334285 -13502 6763 -2921
36957 307019 333725 -13103 7169 -3332
36953 306491 333147 -12871 7496 -3720
36946 306118 332666 -12614 7797 -4290
36925 306044 332502 -12281 8075 -5027
36884 305927 332379 -11984 8308 -5616
36835 305727 332179 -11766 8474 -6120
36763 305071 331503 -11409 8667 -6491
36688 304366 330808 -11023 8866 -6543
36614 303604 330043 -10785 9081 -6672
36565 303204 329658 -10534 9350 -6991
36534 302772 329208 -10248 9632 -7264
36480 301887 328342 -10013 9944 -7507
36443 301204 327699 -9880 10232 -7706
36425 300760 327262 -9769 10463 -7891
36418 300297 326805 -9608 10711 -8109
36384 299525 326052 -9460 10958 -8190
36409 299639 326186 -9370 11127 -8190
36426 299506 326022 -9291 11220 -8252
36428 299102 325624 -9131 11317 -8380
36452 299048 325572 -8781 11546 -8572
36507 299250 325790 -8584 11643 -8585
36547 299247 325764 -8428 11732 -8620
36544 299078 325595 -8306 11834 -8618
36464 298937 325513 -8154 11889 -8564
36282 298648 325319 -8101 11896 -8550
36041 298334 325096 -8169 11827 -8536
35807 298154 324984 -8219 11699 -8503
35617 297985 324905 -8261 11611 -8502
35481 297908 324874 -8227 11403 -8563
35397 297886 324877 -8207 11356 -8568
35340 297856 324869 -8186 11353 -8632
35303 297747 324764 -8130 11380 -8740
35279 297658 324698 -8042 11392 -8856
35284 297726 324765 -7955 11338 -8970
35311 297830 324864 -7932 11232 -9091
35344 297848 324877 -7911 11169 -9223
35358 297796 324803 -7861 11174 -9295
35355 297653 324656 -7849 11156 -9320
35331 297506 324515 -7898 11104 -9313
35307 297473 324495 -8014 11048 -9285
35283 297484 324495 -8157 10967 -9252
35268 297445 324469 -8281 10854 -9215
35262 297403 324441 -8385 10750 -9227
35275 297379 324418 -8441 10647 -9223
35295 297409 324447 -8444 10518 -9147
35329 297472 324510 -8451 10390 -9068
35363 297526 324544 -8464 10291 -9026
35407 297608 324641 -8473 10223 -9074
35454 297695 324737 -8480 10166 -9173
35504 297743 324763 -8464 10119 -9268
35553 297698 324729 -8417 10106 -9365
35611 297804 324829 -8364 10095 -9450
35673 297944 324986 -8328 10074 -9547
35735 297972 324989 -8297 10052 -9626
35796 297998 325015 -8250 10035 -9693
35862 298090 325072 -8206 10042 -9780
35926 298164 325125 -8178 10067 -9880
35992 298177 325144 -8167 10084 -9968
36016 298182 325154 -8140 10066 -10007
35944 298115 325125 -8116 10071 -10061
35768 297942 325041 -8109 10108 -10158
35550 297769 324946 -8093 10114 -10248
35341 297672 324917 -8082 10112 -10317
35179 297627 324938 -8093 10104 -10358
35072 297574 324911 -8104 10054 -10381
35007 297591 324944 -8066 10001 -10388
34973 297677 325054 -8039 9969 -10412
34952 297689 325078 -8060 9934 -10461
34938 297670 325075 -8080 9835 -10520
34946 297681 325077 -8102 9838 -10585
34974 297706 325108 -8099 9847 -10714
35008 297760 325158 -8048 9798 -10809
35026 297792 325164 -7976 9673 -10833
35025 297736 325125 -7935 9541 -10878
35013 297757 325147 -7947 9453 -11003
34989 297754 325140 -7979 9380 -11172
34968 297750 325147 -7957 9242 -11266
34959 297778 325149 -7778 8878 -11348
34960 297784 325152 -7751 8705 -11425
34974 297781 325138 -7769 8535 -11510
34997 297743 325085 -7763 8406 -11593
35028 297759 325087 -7757 8323 -11671
35061 297710 325006 -7802 8277 -11775
35104 297605 324885 -7890 8229 -11879
35148 297542 324812 -7936 8159 -11918
35197 297459 324709 -7946 8121 -11951
35241 297317 324538 -7983 8106 -11973
35290 297173 324377 -8032 8066 -11951
35345 297106 324293 -8114 8023 -11980
35401 297076 324223 -8181 7975 -12027
35463 297086 324196 -8194 7936 -12024
35514 296945 324022 -8208 7919 -12039
35570 296817 323912 -8234 7880 -12094
35694 297766 324827 -8269 7804 -12156
35811 298501 325511 -8312 7708 -12218
35868 298245 325218 -8343 7576 -12282
35854 297692 324656 -8366 7351 -12306
35723 296960 323935 -8402 7034 -12267
35557 297246 324271 -8439 6709 -12268
35353 297324 324401 -8454 6467 -12375
35183 297265 324349 -8453 6198 -12494
35049 297000 324074 -8492 5826 -12549
34958 296714 323801 -8696 5478 -12577
34915 296764 323906 -9026 5194 -12629
34895 296849 323994 -9172 5021 -12684
34887 296697 323828 -9174 4886 -12753
34884 296428 323529 -9244 4795 -12873
34901 296340 323384 -9290 4731 -12945
34941 296512 323558 -9218 4571 -12899
34977 296616 323670 -9127 4415 -12850
35001 296587 323635 -9205 4370 -12905
35009 296604 323643 -9535 4391 -13056
35002 296693 323779 -9939 4329 -13174
34985 296722 323841 -10100 4158 -13073
34968 296657 323781 -9835 3973 -12759
34972 296705 323858 -9414 3904 -12537
34997 296857 324033 -9273 3974 -12572
35032 296847 323951 -9274 4225 -12724
35069 296831 323912 -9072 4411 -12726
35114 296998 324055 -8952 4679 -12765
35168 297221 324258 -9029 4934 -12755
35229 297324 324311 -9158 5160 -12647
35288 297346 324301 -9171 5481 -12588
35350 297444 324407 -9069 5811 -12515
35406 297443 324392 -8864 6035 -12272
35467 297405 324328 -8619 6282 -12054
35527 297381 324273 -8275 7085 -12010
35583 297381 324269 -8084 7447 -11919
35641 297436 324341 -7810 7751 -11784
35697 297376 324241 -7566 8029 -11636
35752 297205 324021 -7318 8262 -11378
35797 296926 323657 -7073 8542 -11050
35833 296633 323302 -6906 8861 -10759
35871 296422 323052 -6877 9247 -10634
35895 296355 322949 -7006 9650 -10624
35846 296098 322695 -7080 9901 -10519
35681 295658 322315 -7046 9984 -10196
35451 295325 322043 -7070 9965 -9746
35207 294948 321715 -7158 9906 -9398
35012 294732 321562 -7126 9915 -9272
34875 294560 321397 -6964 10057 -9395
34787 294347 321205 -6813 10246 -9658
34735 294160 321003 -6699 10448 -9888
34706 293964 320788 -6624 10685 -10065
34686 293735 320547 -6510 11001 -10195
34677 293553 320359 -6388 11368 -10326
34687 293428 320219 -6137 11902 -10494
34702 293294 320077 -5996 12071 -10511
34712 293177 319958 -5766 12141 -10517
34702 293058 319855 -5456 12122 -10502
34676 292916 319717 -5110 12069 -10492
34644 292767 319566 -4807 12018 -10511
34610 292640 319497 -4589 11964 -10549
34584 292546 319433 -4420 11931 -10586
34568 292452 319335 -4302 11906 -10616
34569 292331 319216 -4225 11835 -10634
34578 292235 319118 -4143 11721 -10619
34595 292168 319026 -4038 11634 -10574
34615 292088 318947 -3909 11607 -10553
34640 291959 318812 -3809 11621 -10574
34668 291879 318725 -3762 11663 -10630
34703 291835 318701 -3738 11697 -10693
34743 291852 318722 -3712 11710 -10723
34790 291835 318684 -3635 11741 -10718
34832 291709 318557 -3537 11775 -10707
34875 291576 318421 -3455 11817 -10705
34923 291515 318384 -3201 12015 -10982
34976 291437 318300 -2950 12208 -11152
35017 291310 318170 -2735 12343 -11223
34557 289644 316736 -4013 9555 -12330
34451 289473 316560 -4218 9075 -12354
34383 289278 316362 -4412 8700 -12421
34342 289162 316243 -4549 8456 -12520
34318 289053 316111 -4635 8297 -12590
34296 288874 315923 -4765 8128 -12544
34291 288679 315704 -4986 7923 -12427
34302 288486 315486 -5293 7765 -12372
34312 288324 315299 -5652 7690 -12414
34305 288076 315034 -5966 7669 -12466
34285 287839 314791 -6162 7735 -12494
34251 287594 314552 -6274 7879 -12485
34205 287325 314277 -6352 8025 -12428
34157 286990 313954 -6407 8153 -12355
34131 286758 313725 -6448 8295 -12333
34122 286536 313478 -6484 8498 -12343
34114 286228 313122 -6529 8734 -12291
34116 285893 312775 -6575 8941 -12221
34133 285680 312539 -6608 9127 -12186
34153 285473 312312 -6650 9268 -12115
34180 285306 312110 -6771 9326 -11964
34213 285195 311981 -7020 9312 -11755
34249 285071 311836 -7298 9275 -11466
34295 285031 311749 -7522 9243 -11119
34343 285035 311707 -7731 9233 -10839
34394 285083 311706 -8028 9345 -10550
34455 285201 311805 -8122 9436 -10395
34514 285312 311871 -8174 9561 -10230
34573 285484 312026 -8207 9701 -10108
34648 285880 312409 -8232 9836 -10029
34728 286267 312761 -8231 9937 -9938
34796 286416 312843 -8210 10032 -9833
34851 286515 312922 -8156 10165 -9879
34910 286749 313151 -8007 10330 -10024
34982 287098 313486 -7791 10437 -9958
35044 287255 313611 -7644 10439 -9691
35103 287402 313732 -7660 10423 -9505
35157 287489 313803 -7767 10531 -9453
35196 287597 313915 -7834 10756 -9374
35159 287548 313879 -7853 10989 -9243
35036 287357 313734 -7827 11221 -9142
34855 287175 313601 -7739 11430 -9083
34673 287099 313579 -7618 11628 -9065
34523 287037 313536 -7507 11808 -9023
34417 286990 313515 -7467 11923 -8927
34348 287027 313563 -7422 12028 -8872
34312 287064 313597 -7370 12069 -8837
34289 287087 313636 -7320 12092 -8812
34286 287146 313710 -7295 12087 -8804
34295 287180 313737 -7316 12044 -8777
34320 287245 313792 -7364 11973 -8758
34344 287279 313813 -7443 11895 -8743
34363 287253 313788 -7500 11820 -8707
34363 287226 313778 -7493 11728 -8669
34348 287160 313730 -7455 11643 -8658
34326 287130 313713 -7430 11584 -8673
34307 287106 313689 -7453 11525 -8698
34292 287085 313670 -7521 11462 -8725
34294 287059 313639 -7593 11404 -8750
34307 287115 313697 -7640 11374 -8759
34327 287131 313704 -7655 11377 -8751
34353 287109 313680 -7663 11401 -8755
34385 287105 313661 -7692 11425 -8831
34418 287061 313603 -7715 11421 -8938
34457 287062 313589 -7662 11410 -9001
34504 287055 313578 -7558 11375 -9036
34556 287079 313585 -7479 11300 -9053
34612 287048 313537 -7461 11214 -9095
34668 287057 313526 -7456 11134 -9190
34729 287083 313532 -7460 11026 -9268
34789 286997 313415 -7529 10866 -9284
34836 286741 313114 -7691 10725 -9254
34892 286762 313143 -7908 10651 -9217
34968 287048 313420 -8073 10608 -9188
35044 287238 313606 -8158 10565 -9186
35118 287375 313706 -8268 10541 -9339
35190 287542 313889 -8317 10506 -9484
35263 287691 314029 -8342 10453 -9602
35345 287900 314231 -8361 10382 -9710
35418 287994 314305 -8396 10315 -9840
35481 288063 314372 -8417 10259 -9944
35489 288059 314400 -8409 10208 -10009
35406 287903 314279 -8397 10129 -10044
35274 287777 314194 -8408 10020 -10121
35118 287572 314012 -8474 9853 -10246
34986 287508 313983 -8573 9620 -10317
34895 287544 314038 -8669 9267 -10301
34840 287592 314085 -8740 8852 -10242
34811 287556 314022 -8728 8531 -10184
34810 287551 313999 -8682 8308 -10182
34838 287784 314225 -8756 8116 -10242
34885 288052 314521 -8953 7903 -10304
34951 288318 314758 -9114 7717 -10378
35011 288352 314773 -9185 7616 -10523
35056 288329 314731 -9135 7595 -10803
35085 288302 314684 -9047 7596 -11145
35096 288335 314726 -9038 7545 -11378
35097 288440 314852 -9116 7382 -11462
35092 288520 314927 -9222 7147 -11453
35087 288488 314868 -9255 6982 -11453
35074 288187 314532 -9272 6925 -11539
35073 287966 314306 -9331 6899 -11641
35095 288054 314351 -9463 6811 -11655
35124 288161 314445 -9642 6675 -11575
35155 288203 314486 -9819 6564 -11442
35184 288167 314446 -9990 6529 -11361
35223 288137 314381 -10076 6547 -11319
35266 288170 314400 -10128 6560 -11203
35310 288217 314435 -10167 6554 -11069
35361 288233 314426 -10133 6527 -10966
35417 288311 314475 -10057 6501 -10896
35474 288371 314518 -10052 6486 -10912
35534 288506 314632 -10140 6478 -10971
35596 288570 314673 -10219 6468 -10990
35653 288471 314528 -10267 6430 -11013
35710 288425 314447 -10247 6394 -11281
35772 288488 314485 -10354 6299 -11410
35832 288440 314425 -10391 6161 -11401
35891 288319 314279 -10368 6072 -11347
35957 288294 314211 -10356 5971 -11324
36029 288390 314277 -10363 5793 -11332
36080 288520 314402 -10360 5573 -11384
36066 288538 314425 -10286 5419 -11494
35964 288469 314406 -10107 5396 -11684
35821 288404 314408 -9743 5471 -11998
35678 288339 314384 -9699 5459 -12063
35559 288377 314444 -9752 5405 -12110
35477 288410 314480 -9738 5355 -12113
35425 288400 314476 -9665 5341 -12130
35404 288420 314491 -9614 5333 -12175
35405 288493 314568 -9614 5318 -12178
35418 288536 314594 -9660 5329 -12163
35449 288587 314620 -9723 5355 -12182
35502 288691 314715 -9741 5377 -12195
35554 288808 314812 -9694 5398 -12185
35590 288782 314788 -9638 5457 -12201
35606 288752 314739 -9631 5535 -12276
35610 288786 314772 -9700 5523 -12298
35603 288817 314831 -9776 5477 -12218
35599 288840 314859 -9812 5451 -12149
35601 288872 314876 -9818 5451 -12123
35612 288942 314959 -9776 5456 -12128
35634 289028 315031 -9714 5443 -12126
35660 289101 315072 -9666 5459 -12107
35692 289147 315116 -9660 5529 -12086
35724 289261 315202 -9663 5592 -12033
35754 289314 315246 -9629 5621 -11931
35783 289353 315245 -9648 5679 -11829
35824 289454 315352 -9781 5745 -11764
35872 289565 315445 -9938 5789 -11733
35917 289552 315406 -10006 5871 -11782
35962 289556 315380 -10001 5979 -11853
36023 289674 315479 -9978 6041 -11852
36088 289765 315563 -9992 6074 -11825
36152 289773 315544 -10008 6085 -11831
36214 289775 315502 -9994 6119 -11869
36262 289697 315426 -9882 6193 -11873
36314 289687 315426 -9664 6249 -11807
36374 289722 315458 -9516 6275 -11736
36429 289653 315375 -9491 6298 -11767
36484 289554 315249 -9511 6361 -11932
36522 289329 315013 -9464 6438 -12047
36502 288896 314593 -9400 6525 -12046
36387 288326 314038 -9424 6601 -11996
36203 287819 313576 -9907 6454 -11613
36004 287431 313259 -10213 6279 -11278
35814 287087 312934 -10441 6136 -11000
35666 286842 312744 -10601 6016 -10850
35565 286729 312662 -10673 5922 -10819
35483 286510 312436 -10632 5912 -10890
35477 287061 313026 -10550 5912 -10931
35462 287128 313074 -10510 5896 -10851
35451 287076 313025 -10665 5838 -10736
35481 287359 313318 -10774 5788 -10637
35523 287465 313421 -10680 5891 -10641
35556 287505 313465 -10591 6061 -10759
35584 287627 313597 -10527 6191 -10903
35594 287730 313725 -10481 6284 -10995
35591 287792 313793 -10455 6332 -11019
35580 287867 313876 -10413 6364 -11035
35577 288022 314054 -10337 6400 -11029
35578 288173 314226 -10297 6406 -11036
35589 288279 314342 -10279 6404 -11138
35612 288399 314458 -10261 6404 -11260
35638 288517 314547 -10235 6392 -11329
35673 288631 314658 -10225 6372 -11347
35711 288761 314769 -10221 6341 -11302
35757 288864 314861 -10222 6300 -11258
35807 288986 314970 -10249 6241 -11268
35861 289101 315066 -10262 6164 -11250
35917 289190 315126 -10263 6120 -11184
35977 289262 315184 -10235 6122 -11101
36042 289317 315240 -10166 6139 -11008
36108 289416 315328 -10094 6140 -10953
36179 289506 315405 -10014 6099 -10968
36250 289572 315458 -9955 6091 -11021
36322 289670 315546 -9933 6116 -11127
36391 289777 315633 -9890 6113 -11276
36463 289880 315740 -9855 6107 -11431
36542 289976 315806 -9863 6095 -11609
36621 290066 315859 -9845 6070 -11769
36699 290139 315900 -9821 6029 -11875
36762 290190 315931 -9816 5960 -11952
36758 290174 315922 -9806 5869 -12026
36659 290036 315811 -9840 5777 -12211
36478 289848 315681 -9791 5699 -12251
36281 289693 315594 -9714 5618 -12168
36114 289611 315540 -9637 5579 -12041
35979 289453 315403 -9524 5643 -11954
35889 289318 315275 -9416 5791 -11963
35835 289175 315094 -9338 5925 -12065
35802 289027 314915 -9263 5966 -12194
35792 288880 314725 -9206 5905 -12315
35797 288728 314537 -9083 5565 -12457
35825 288635 314388 -9024 5364 -12539
35866 288465 314198 -9037 5182 -12644
35899 288283 313985 -9105 4964 -12717
35928 288147 313817 -9173 4730 -12726
35945 288108 313748 -9200 4553 -12748
35954 288156 313765 -9106 4468 -12812
35956 288164 313707 -8919 4437 -12894
35958 288070 313527 -8849 4398 -13001
35974 287972 313314 -8941 4345 -13036
35998 288027 313230 -9045 4295 -12955
36047 288306 313474 -9059 4275 -12861
36096 288646 313754 -8971 4308 -12856
36136 288882 313945 -8947 4323 -12913
36177 289152 314162 -9002 4284 -12958
36223 289317 314289 -9010 4193 -12986
36272 289542 314478 -9004 4068 -13000
36320 289757 314627 -9010 3965 -13031
36364 289715 314540 -9051 3868 -13104
36413 289721 314486 -9169 3710 -13132
36471 289776 314478 -9296 3548 -13092
36529 289830 314522 -9354 3430 -13017
36578 289844 314533 -9429 3346 -12955
36627 289794 314455 -9483 3240 -12963
36693 289869 314492 -9493 3055 -12999
36762 289983 314540 -9533 2856 -13037
36834 290116 314648 -9589 2689 -13056
36903 290182 314670 -9697 2544 -13087
36959 290174 314630 -9846 2393 -13177
37001 290168 314599 -9833 2241 -13225
36990 290222 314649 -9683 2112 -13219
36893 290179 314617 -9616 2037 -13266
36697 290053 314550 -9604 2028 -13292
36472 289898 314465 -9595 2023 -13270
36270 289764 314368 -9637 2032 -13263
36103 289575 314176 -9720 2072 -13264
35987 289411 314058 -9689 2098 -13235
35916 289391 314031 -9606 2079 -13177
35874 289383 314038 -9633 2053 -13144
35855 289359 313979 -9655 2067 -13133
35830 289166 313778 -9995 2075 -13143
35829 289217 313814 -10071 2049 -13073
35837 289144 313731 -10101 2036 -13054
35849 289136 313725 -10072 2007 -13058
35851 289180 313768 -10017 2004 -13069
35837 289175 313783 -10053 2013 -13129
35808 289099 313718 -10110 1996 -13187
35779 289082 313698 -10100 1941 -13180
35755 289148 313772 -10007 1909 -13119
35736 289174 313795 -9900 1957 -13101
35723 289189 313795 -9885 1990 -13087
35714 289181 313775 -9865 2018 -13073
35704 289165 313757 -9808 2073 -13061
35699 289184 313758 -9758 2148 -13062
35698 289154 313723 -9711 2220 -13060
35709 289150 313725 -9673 2308 -13058
35731 289202 313766 -9781 2376 -13077
35759 289204 313747 -9834 2426 -13068
35790 289214 313724 -9731 2478 -13030
35825 289266 313764 -9684 2540 -13039
35865 289280 313751 -9664 2564 -13055
35910 289311 313757 -9617 2523 -13037
35961 289323 313746 -9554 2489 -13026
36017 289390 313788 -9512 2478 -13042
36065 289431 313818 -9475 2517 -13097
36086 289407 313812 -9499 2580 -13170
36042 289415 313859 -9582 2665 -13209
35908 289147 313635 -9699 2676 -13220
35724 288877 313430 -9742 2624 -13197
35541 288777 313383 -9682 2612 -13158
35399 288793 313434 -9623 2578 -13141
35295 288784 313439 -9597 2514 -13114
35228 288878 313538 -9534 2467 -13077
35209 289127 313771 -9458 2491 -13063
35204 289201 313834 -9491 2492 -13083
35197 289169 313805 -9518 2408 -13084
35223 289252 313860 -9469 2348 -13043
35254 289673 314210 -9342 2081 -13429
35295 289867 314366 -9329 2034 -13387
35351 290220 314653 -9160 2053 -13342
35414 290618 314996 -9020 2116 -13358
35475 290909 315217 -8932 2206 -13399
35525 291054 315324 -8998 2261 -13415
35558 290933 315159 -9117 2266 -13312
35587 290865 315074 -9183 2257 -13217
35640 290951 315150 -9335 2293 -13200
35696 291002 315188 -9531 2366 -13191
35750 291017 315175 -9673 2392 -13185
35798 290887 315008 -9840 2320 -13133
35853 290728 314814 -9865 2174 -12994
35933 290992 315072 -9699 2141 -12949
36004 291618 315719 -9554 2348 -13188
35985 291815 315942 -9675 2468 -13493
35836 291260 315376 -9856 2287 -13451
35654 291183 315274 -9792 2069 -13163
35497 291618 315719 -9596 2049 -13048
35362 291924 315982 -9578 2129 -13097
35245 291727 315746 -9732 2102 -13094
35177 291723 315702 -9788 2012 -12998
35137 291953 315915 -9720 2043 -12921
35106 292171 316150 -9629 2247 -12927
35064 292148 316146 -9639 2481 -12959
35042 292020 316024 -9843 2508 -12967
35051 292020 316018 -10033 2358 -12948
35081 292136 316117 -10051 2238 -12911
35102 292284 316278 -10089 2224 -12887
35101 292287 316285 -10193 2223 -12870
35114 292544 316513 -10277 2185 -12893
35126 292801 316665 -10307 2165 -12931
35123 292852 316653 -10098 2185 -12771
35126 293017 316769 -10051 2283 -12794
35148 293379 317068 -9923 2481 -12886
35193 293736 317299 -9825 2708 -12906
35229 293804 317250 -9938 2794 -12864
35260 293727 317107 -9987 2846 -12883
35317 293999 317315 -9850 3038 -12997
35371 294282 317547 -9662 3282 -13092
35418 294355 317653 -9676 3425 -13151
35455 294167 317435 -9841 3252 -13199
35498 294041 317306 -9604 3248 -13204
35555 294152 317384 -9371 3382 -13166
35619 294186 317382 -9348 3570 -13160
35697 294141 317262 -9502 3694 -13166
35772 293944 317032 -9513 3712 -13122
35826 293798 316870 -9383 3614 -13017
35868 293578 316624 -9229 3521 -12938
35901 293379 316422 -9053 3515 -12930
35925 293352 316400 -8980 3574 -12962
35867 293181 316282 -9046 3692 -12983
35721 293051 316200 -9067 3794 -12980
35500 292801 316045 -8930 3882 -13011
35266 292581 315914 -8779 3973 -13075
35081 292403 315821 -8796 4057 -13144
34935 292092 315560 -8964 4131 -13217
34823 291855 315387 -9045 4190 -13235
34748 291740 315328 -9020 4290 -13196
34694 291739 315362 -9064 4451 -13140
34660 291779 315433 -9153 4558 -13083
34640 291771 315458 -9241 4603 -13075
34641 291754 315489 -9392 4626 -13095
34665 291810 315616 -9610 4561 -13037
34689 291843 315666 -9694 4414 -12807
34696 291677 315513 -9616 4254 -12457
34684 291418 315278 -9639 4112 -12138
34657 291195 315128 -9833 4022 -11938
34622 291117 315107 -10099 4000 -11851
34600 291094 315137 -10344 3982 -11827
34741 288762 313832 -11938 2504 -10703
34805 288744 313875 -12316 1885 -10654
34882 288873 314118 -12572 1483 -10509
34972 288879 314199 -12681 1056 -10164
35066 288826 314129 -12742 697 -9702
35151 288517 313846 -13002 404 -9320
35238 288229 313695 -13446 57 -8986
35329 287725 313410 -13752 -342 -8649
35394 286992 312783 -13892 -703 -8338
35393 286277 312190 -14081 -940 -8047
35299 285729 311774 -14379 -1098 -7703
35136 285354 311574 -14719 -1258 -7311
34941 284956 311328 -14994 -1419 -6917
34778 284647 311106 -15246 -1547 -6449
34657 284362 310911 -15608 -1585 -5882
34579 284198 310822 -16001 -1627 -5178
34535 283731 310300 -16303 -1759 -4416
34504 283047 309510 -16526 -1916 -3820
34481 282509 308916 -16677 -1982 -3487
34473 282382 308796 -16713 -1928 -3317
34491 282536 308908 -16674 -1869 -3122
34529 282627 308951 -16640 -1852 -2918
34557 282503 308772 -16601 -1813 -2782
34576 282358 308610 -16533 -1770 -2673
34586 282267 308469 -16432 -1760 -2547
34578 282069 308262 -16354 -1766 -2467
34562 281898 308076 -16331 -1745 -2483
34545 281851 308026 -16306 -1688 -2531
34539 281866 308027 -16247 -1609 -2566
34542 281890 308048 -16127 -1500 -2578
34557 282010 308168 -15999 -1353 -2577
34578 282214 308371 -16020 -1043 -2489
34613 282503 308641 -16074 -916 -2333
34647 282705 308804 -16091 -827 -2183
34680 282677 308733 -16102 -772 -2012
34704 282459 308462 -16143 -768 -1776
34742 282302 308243 -16228 -807 -1498
34783 282156 308046 -16326 -831 -1225
34825 281996 307854 -16414 -785 -993
34880 282178 308005 -16468 -670 -778
34937 282492 308314 -15999 -1353 -2577
34996 282661 308445 -16020 -1043 -2489
35062 282893 308655 -16074 -916 -2333
35133 283253 308963 -16091 -827 -2183
35207 283724 309433 -16102 -772 -2012
35257 284239 309959 -16143 -768 -1776
35220 284389 310143 -16228 -807 -1498
35111 284542 310346 -16326 -831 -1225
34969 284730 310573 -16414 -785 -993
34824 284881 310742 -16468 -670 -778
34696 284866 310741 -16521 -468 -340
34606 284878 310760 -16590 -359 -195
34555 284998 310892 -16626 -213 -105
34521 285062 310950 -16662 -64 -49
34498 285069 310956 -16687 86 -1
34488 285136 311036 -16690 229 97
34505 285326 311224 -16681 332 236
34544 285537 311430 -16651 422 385
34583 285678 311568 -16613 525 522
34612 285696 311586 -16584 641 646
34622 285611 311496 -16555 763 752
34626 285578 311464 -16537 886 827
34620 285567 311437 -16542 1012 855
34618 285546 311407 -16541 1147 840
34626 285507 311370 -16534 1279 791
34641 285518 311351 -16529 1409 699
34659 285520 311325 -16524 1510 601
34691 285598 311379 -16515 1534 536
34733 285681 311452 -16492 1511 497
34780 285770 311491 -16468 1460 458
34825 285806 311498 -16450 1376 438
34876 285825 311478 -16433 1283 438
34928 285875 311498 -16413 1180 449
34986 285940 311507 -16411 1039 488
35043 285978 311527 -16438 884 537
35099 285927 311439 -16460 733 575
35157 285845 311324 -16449 579 592
35220 285766 311206 -16384 446 617
35284 285631 311038 -16309 347 696
35349 285478 310843 -16298 265 800
35422 285435 310761 -16315 181 885
35485 285422 310720 -16333 112 930
35506 285377 310677 -16344 75 956
35450 285197 310521 -16318 45 986
35326 284986 310398 -16290 18 1022
35170 284880 310360 -16280 -1 1068
35021 284801 310327 -16280 -23 1155
34901 284647 310190 -16296 -48 1265
34819 284572 310101 -16312 -72 1358
34768 284421 309977 -16324 -85 1432
34742 284405 309982 -16351 -122 1549
34734 284489 310077 -16383 -117 1587
34735 284522 310101 -16380 -113 1621
34745 284458 310021 -16363 -107 1635
34771 284414 309955 -16331 -86 1628
34804 284340 309854 -16292 -61 1620
34825 284131 309608 -16260 -20 1615
34835 283911 309392 -16179 50 1577
34837 283754 309238 -16067 155 1490
34839 283707 309193 -15904 415 1427
34842 283749 309213 -15907 535 1507
34852 283755 309219 -15936 644 1658
34864 283743 309171 -15988 725 1876
34881 283729 309154 -16061 789 2156
34899 283725 309161 -16137 823 2441
34931 283743 309163 -16211 849 2694
34966 283716 309125 -16269 878 2896
35005 283670 309065 -16302 890 3048
35051 283651 309013 -16307 908 3165
35102 283700 309050 -16273 923 3246
35162 283765 309088 -16262 929 3268
35217 283822 309114 -16286 948 3219
35280 283902 309176 -16284 1001 3176
35344 283951 309210 -16254 1074 3170
35407 283962 309185 -16199 1130 3210
35473 283963 309156 -16155 1166 3286
35540 283993 309143 -16150 1194 3350
35607 284033 309176 -16173 1221 3390
35661 284096 309226 -16210 1255 3384
35643 284055 309218 -16219 1294 3342
35546 283994 309215 -16217 1329 3322
35401 283940 309226 -16199 1361 3352
35243 283863 309178 -16141 1380 3383
35113 283786 309124 -16096 1392 3397
35018 283783 309125 -16090 1410 3392
34960 283810 309184 -16114 1435 3354
34929 283921 309288 -16159 1468 3274
34915 284042 309431 -16181 1479 3205
34916 284185 309581 -16174 1459 3161
34932 284347 309739 -16185 1388 3078
34963 284477 309857 -16204 1343 3090
34999 284573 309932 -16210 1299 3088
35020 284560 309916 -16215 1276 3036
35035 284534 309865 -16236 1284 2928
35039 284502 309807 -16260 1314 2788
35020 284280 309564 -16279 1331 2656
34997 283981 309250 -16275 1325 2540
34986 283882 309136 -16220 1311 2441
34982 283762 308982 -16099 1270 2401
34985 283627 308827 -16075 1240 2444
35002 283636 308823 -16076 1197 2528
35025 283699 308878 -16103 1144 2632
35061 283809 308994 -16153 1092 2709
35102 283936 309106 -16228 1046 2773
35148 284050 309181 -16289 1016 2833
35193 284135 309229 -16302 990 2862
35241 284170 309248 -16309 976 2846
35298 284252 309324 -16308 986 2775
35360 284364 309411 -16298 990 2685
35426 284466 309472 -16309 990 2608
35492 284538 309512 -16329 979 2495
35560 284570 309490 -16336 949 2356
35620 284540 309437 -16306 904 2218
35635 284440 309333 -16232 830 2113
35573 284284 309174 -16145 744 2028
35440 284124 309070 -16079 663 1937
35280 283924 308912 -16035 566 1870
35131 283658 308678 -16006 470 1853
35012 283485 308510 -16001 381 1886
34933 283437 308463 -16023 297 1905
34885 283409 308441 -16050 239 1927
34855 283425 308448 -16084 181 1977
34843 283447 308460 -16144 129 2026
34834 283505 308512 -16203 92 2084
34847 283599 308591 -16238 60 2156
34878 283686 308655 -16248 33 2215
34905 283679 308630 -16263 15 2252
34925 283725 308683 -16306 11 2277
34934 283819 308770 -16330 -5 2287
34938 283942 308919 -16356 27 2247
34935 283977 308948 -16382 52 2238
34928 283910 308874 -16379 73 2269
34928 283897 308855 -16366 98 2310
34944 284044 308992 -16356 144 2297
34972 284256 309195 -16328 211 2208
34997 284299 309241 -16270 272 2129
35033 284380 309301 -16234 307 2086
35074 284475 309378 -16250 327 2045
35120 284618 309519 -16285 334 2010
35181 285004 309927 -16300 340 1975
35254 285497 310435 -16292 355 1960
35326 285866 310813 -16273 362 1966
35394 286177 311155 -16252 355 1977
35467 286661 311653 -16220 392 1902
35546 287097 312089 -16196 477 1780
35615 287271 312260 -16169 584 1703
35678 287371 312371 -16134 848 1634
35740 287706 312738 -16159 1004 1641
35757 288178 313289 -16221 1146 1715
35691 288497 313696 -16278 1277 1811
35545 288656 313951 -16317 1449 1828
35379 288828 314225 -16329 1668 1758
35237 289161 314629 -16319 1869 1643
35131 289573 315115 -16327 2021 1560
35061 289963 315562 -16350 2148 1521
35019 290327 315984 -16347 2320 1479
34994 290708 316406 -16298 2549 1428
34982 291096 316839 -16225 2798 1367
34988 291520 317309 -16160 3047 1294
35011 291914 317726 -16136 3257 1216
35042 292236 318066 -16124 3437 1136
35073 292550 318414 -16068 3619 999
35101 292917 318804 -16007 3786 822
35114 293240 319161 -15997 3912 684
35116 293597 319562 -16009 3993 571
35113 293938 319925 -15993 4064 419
35109 294196 320199 -15950 4154 272
35113 294374 320383 -15877 4252 141
35121 294485 320519 -15779 4359 -4
35137 294632 320688 -15682 4493 -123
35661 295043 320975 -15398 5312 -343
35724 295017 320935 -15424 5248 -276
35780 294970 320861 -15425 5203 -215
35782 294832 320755 -15419 5171 -187
35702 294695 320678 -15407 5133 -148
35552 294581 320609 -15429 5079 -92
35373 294361 320472 -15472 5041 -53
35206 294134 320254 -15521 5018 -45
35085 294014 320180 -15567 5027 -49
35001 293973 320160 -15568 5054 1
34946 293936 320142 -15512 5059 119
34913 293907 320124 -15443 5054 256
34891 293893 320125 -15433 5058 365
34882 293889 320088 -15474 5068 426
34893 293838 320059 -15532 5087 445
34905 293786 319995 -15600 5110 426
34928 293770 319981 -15646 5127 408
34938 293741 319965 -15664 5137 420
34935 293735 319955 -15625 5119 450
34916 293709 319932 -15532 5101 471
34900 293644 319892 -15441 5104 463
34891 293614 319855 -15363 5121 424
34886 293446 319679 -15323 5129 377
34886 293243 319455 -15289 5134 360
34896 293017 319189 -15356 5121 468
34906 292658 318757 -15454 5050 596
34905 291981 318014 -15525 4947 792
34905 291446 317432 -15588 4833 1028
34919 290860 316737 -15677 4627 1336
34890 289192 314821 -15829 4330 1746
34828 287020 312493 -15999 4045 2054
34808 285998 311438 -16145 3795 2383
34830 285756 311166 -16377 3367 3141
34845 285185 310504 -16910 2643 4113
34827 284065 309305 -16827 2879 3862
34820 283361 308564 -16577 3272 3680
34867 283379 308589 -16279 3603 3627
34933 283724 308919 -15953 3961 3443
34975 283964 309188 -15629 4404 2980
34957 284351 309647 -15357 4821 2395
34888 284964 310376 -15164 5098 1827
34774 285405 310891 -15052 5261 1158
34649 285595 311094 -14965 5376 400
34557 285902 311455 -14886 5380 -198
34523 286549 312151 -14857 5189 -487
34518 287239 312867 -14882 4884 -659
34527 287726 313327 -14935 4611 -881
34534 287905 313482 -14993 4422 -1075
34544 288099 313702 -15054 4275 -1097
34566 288310 313946 -15161 4130 -927
34615 288427 314073 -15339 4004 -742
34664 288483 314124 -15524 3939 -620
34696 288632 314300 -15674 3924 -489
34718 288869 314548 -15807 3906 -286
34731 289085 314764 -15932 3889 -58
34733 289345 315036 -16028 3912 87
34736 289642 315331 -16071 3944 180
34742 289898 315578 -16051 3964 287
34756 290027 315688 -16000 3997 347
34777 290224 315895 -15954 4059 355
34808 290450 316124 -15920 4131 382
34842 290712 316373 -15896 4199 459
34885 291043 316700 -15867 4247 575
34932 291412 317078 -15828 4294 683
34979 291694 317360 -15779 4352 757
35038 292092 317745 -15727 4450 797
35098 292479 318135 -15694 4611 777
35161 292857 318512 -15693 4768 712
35227 293210 318847 -15682 4890 636
35288 293416 319016 -15665 4980 566
35356 293599 319196 -15631 5055 505
35416 293743 319318 -15555 5140 484
35461 293919 319503 -15511 5217 520
35452 294055 319651 -15492 5341 675
35365 294116 319752 -15479 5389 708
35213 294153 319828 -15486 5419 691
35049 294297 320028 -15461 5431 731
34912 294508 320283 -15437 5426 819
34810 294681 320454 -15440 5400 872
34740 294796 320586 -15416 5369 873
34691 294856 320655 -15365 5323 880
34660 295039 320827 -15305 5278 923
34649 295235 321029 -15275 5246 969
34642 295353 321150 -15294 5228 1009
34653 295426 321201 -15329 5225 1060
34673 295522 321282 -15369 5234 1146
34690 295560 321318 -15402 5254 1263
34688 295613 321372 -15406 5274 1356
34681 295705 321467 -15416 5303 1417
34668 295663 321432 -15439 5339 1437
34656 295655 321437 -15433 5391 1428
34653 295709 321491 -15405 5417 1425
34658 295767 321534 -15361 5438 1428
34665 295698 321466 -15335 5473 1432
34692 295838 321617 -15314 5499 1467
34727 296048 321801 -15311 5531 1542
34755 296146 321887 -15312 5570 1608
34792 296274 322004 -15281 5634 1674
34834 296353 322046 -15266 5719 1755
34877 296485 322174 -15259 5809 1802
34929 296973 322732 -15193 5890 1872
35000 297885 323736 -15077 5957 2073
35074 298609 324458 -14988 6071 2166
35115 298597 324395 -14976 6322 1828
35148 298400 324212 -14919 6681 1274
35188 298265 324017 -14730 6995 900
35227 298065 323741 -14539 7174 776
35265 297865 323486 -14378 7301 813
35284 297459 323068 -14211 7468 1076
35292 297066 322691 -14105 7611 1666
35275 296806 322478 -14210 7657 2340
35199 296637 322368 -14405 7657 2754
35056 296601 322431 -14526 7695 2847
34876 296678 322586 -14791 7687 2874
34712 296852 322839 -14833 7665 2932
34580 296928 322973 -14834 7682 2833
34482 297013 323082 -14806 7746 2593
34414 297217 323340 -14705 7831 2340
34369 297492 323670 -14528 7911 2123
34332 297713 323917 -14364 7988 1900
34316 297858 324077 -14259 8068 1686
34315 297997 324237 -14134 8128 1523
34333 298174 324442 -13990 8145 1433
34350 298423 324751 -13941 8147 1344
34366 298743 325149 -13970 8163 1202
34366 298950 325394 -14030 8186 1010
34366 299209 325709 -14076 8223 761
34363 299449 325969 -14075 8266 516
34363 299515 326124 -14018 8291 332
34388 300011 326665 -14005 8329 139
34407 300229 326899 -13996 8376 -75
34422 300204 326925 -13896 8403 -253
34461 300508 327248 -13825 8406 -441
34500 300673 327427 -13824 8406 -659
34541 300734 327500 -13803 8416 -850
34592 300870 327647 -13806 8397 -964
34653 301138 327935 -13878 8350 -1054
34730 301575 328407 -13916 8285 -1149
34821 302181 329055 -13993 8200 -1222
34922 302856 329763 -14167 8100 -1304
35014 303261 330135 -14361 8011 -1456
35100 303436 330306 -14494 7965 -1713
35187 303742 330558 -14597 7940 -1954
35272 304040 330838 -14714 7832 -2030
35365 304420 331182 -14806 7632 -2126
35456 304773 331475 -14894 7402 -2417
35564 305381 332068 -14950 7170 -2795
35671 305863 332510 -14797 6988 -3187
35753 306125 332748 -14458 6875 -3632
35789 306366 333033 -14010 6803 -4097
35741 306553 333277 -13573 6742 -4519
35602 306449 333204 -13292 6701 -4995
35438 306500 333354 -13109 6697 -5590
35317 306945 333858 -12943 6743 -6465
35256 307636 334473 -12911 6724 -6703
35226 307977 334721 -12826 6695 -6989
35214 308098 334768 -12713 6697 -7300
35209 308148 334712 -12620 6731 -7596
35215 308240 334736 -12499 6777 -7840
35237 308411 334869 -12335 6815 -8039
35286 308563 335027 -12173 6841 -8227
35346 308721 335134 -12000 6849 -8394
35405 308913 335254 -11633 6841 -8717
35453 309101 335425 -11562 6838 -8849
35486 309270 335564 -11581 6863 -8967
35504 309364 335636 -11562 6886 -9062
35514 309415 335683 -11530 6898 -9134
35527 309387 335647 -11506 6941 -9194
35537 309239 335473 -11506 7003 -9238
35545 308943 335175 -11526 7035 -9243
35560 308689 334933 -11609 7032 -9237
35584 308424 334666 -11714 7054 -9279
35614 308195 334415 -11734 7080 -9351
35648 307960 334184 -11721 7074 -9380
35697 307856 334082 -11673 7012 -9354
35754 307775 334001 -11625 6897 -9267
35823 307756 333952 -11679 6761 -9128
35862 307372 333499 -11783 6641 -8951
35894 306822 332910 -11974 6499 -8713
35921 306193 332258 -12216 6260 -8365
35981 306057 332086 -12424 5897 -7875
36032 305759 331710 -12689 5493 -7341
36047 305043 331021 -13094 5166 -6873
36084 304716 330685 -13533 4913 -6467
36147 304679 330632 -13833 4748 -6104
36186 304255 330154 -14109 4609 -5717
36189 303808 329738 -14382 4450 -5283
36133 303542 329497 -14628 4343 -4886
35964 302794 328819 -14857 4283 -4563
35764 302416 328494 -15095 4247 -4305
35592 302375 328508 -15282 4256 -4080
35454 302253 328426 -15377 4304 -3887
35353 302075 328206 -15459 4374 -3657
35276 301779 327940 -15536 4474 -3342
35232 301647 327808 -15631 4597 -3037
35201 301587 327740 -15706 4760 -2823
35182 301550 327692 -15734 4938 -2676
35185 301561 327666 -15752 5060 -2533
35199 301515 327610 -15766 5135 -2373
35217 301674 327754 -15829 5165 -2205
35164 300928 327013 -15929 4941 -1149
35199 301045 327105 -15951 4985 -991
35244 301244 327292 -15906 5025 -914
35286 301309 327356 -15880 5077 -917
35324 301307 327334 -15901 5121 -980
35348 301033 327041 -15911 5154 -1075
35362 300396 326382 -15869 5155 -1147
35341 299489 325551 -15813 5128 -1159
35400 299796 325894 -15746 5141 -1184
35486 300484 326572 -15766 5160 -1269
34950 300520 326814 -15364 4793 -2264
34864 300514 326825 -15353 4780 -2240
34807 300520 326859 -15412 4735 -2285
34759 300436 326770 -15513 4723 -2341
34719 300213 326555 -15539 4659 -2328
34689 300068 326422 -15492 4555 -2260
34691 300119 326457 -15478 4463 -2210
34704 300184 326535 -15561 4411 -2222
34712 300242 326607 -15675 4403 -2309
34702 300274 326628 -15705 4399 -2390
34681 300255 326623 -15581 4367 -2424
34651 300271 326659 -15296 4326 -2707
34626 300314 326727 -15170 4308 -2940
34598 300216 326632 -15104 4296 -3079
34580 300058 326485 -15142 4282 -3094
34573 299927 326327 -15242 4240 -2997
34580 299824 326204 -15305 4184 -2804
34597 299790 326141 -15207 4153 -2559
34631 299918 326271 -15061 4169 -2344
34666 299990 326331 -15171 4204 -2189
34702 299994 326349 -15471 4310 -2099
34751 300120 326467 -15691 4559 -2030
34801 300236 326551 -15780 4834 -1867
34849 300253 326534 -15724 5037 -1656
34901 300252 326534 -15538 5218 -1503
34956 300341 326602 -15353 5432 -1423
35009 300383 326621 -15250 5673 -1364
35056 300339 326562 -15161 5897 -1285
35102 300355 326580 -15133 6078 -1263
35140 300330 326548 -15265 6197 -1336
35178 300208 326409 -15464 6220 -1406
35222 300080 326259 -15611 6119 -1411
35263 300009 326180 -15711 5911 -1362
35294 299947 326115 -15809 5657 -1315
35270 299832 326051 -15911 5428 -1339
35169 299721 325999 -16010 5274 -1408
35017 299575 325909 -16103 5136 -1443
34866 299502 325893 -16149 4958 -1473
34749 299606 326051 -16064 4815 -1586
34665 299805 326283 -15870 4789 -1777
34578 299753 326268 -15652 4829 -2001
34557 299625 326160 -15229 4881 -2482
34547 299562 326088 -15003 4902 -2554
34544 299454 325974 -14855 4950 -2562
34551 299252 325744 -14786 5015 -2518
34558 298962 325442 -14757 5063 -2418
34567 298682 325136 -14765 5113 -2320
34586 298457 324885 -14800 5198 -2237
34612 298244 324649 -14867 5306 -2167
34646 298136 324519 -14963 5385 -2083
34688 298051 324424 -15219 5457 -1907
34735 298005 324358 -15303 5469 -1856
34787 298053 324384 -15296 5446 -1761
34844 298134 324443 -15271 5346 -1573
34907 298244 324538 -15375 5177 -1316
34974 298385 324694 -15580 4950 -1025
35037 298463 324762 -15756 4719 -761
35085 298402 324660 -15835 4520 -549
35129 298282 324522 -15880 4350 -377
35170 298093 324292 -16119 4078 -198
35211 297844 324026 -16164 3994 -200
35255 297707 323862 -16113 3961 -199
35297 297476 323606 -15988 3988 -218
35325 297242 323349 -15841 4068 -274
35300 296981 323112 -15684 4189 -321
35194 296779 322958 -15498 4310 -325
35039 296697 322927 -15328 4407 -256
34876 296713 323003 -15299 4451 -90
34741 296733 323055 -15433 4402 157
34640 296743 323089 -15584 4332 435
34578 296865 323231 -15702 4285 707
34537 296970 323359 -15812 4248 972
34492 296822 323184 -15926 4234 1224
34437 296457 322778 -16035 4217 1410
34389 296006 322283 -16070 4237 1491
34358 295481 321706 -16002 4359 1508
34333 294945 321112 -15856 4559 1502
34301 294484 320625 -15642 4780 1500
34261 294183 320305 -15415 5040 1499
34224 294206 320322 -15221 5738 1512
34187 294132 320251 -15068 5920 1714
34147 294016 320121 -14937 5844 2021
34124 294018 320135 -14867 5554 2374
34105 293934 320040 -14855 5147 2728
34097 293935 320035 -14868 4741 3057
34107 294037 320119 -14905 4429 3323
34108 293823 319888 -14984 4257 3463
34107 293551 319597 -15093 4223 3493
34125 293429 319461 -15148 4314 3604
34151 293438 319436 -15133 4397 3634
34175 293327 319314 -15192 4499 3716
34206 293325 319302 -15299 4612 3808
34249 293327 319287 -15386 4750 3872
34281 293109 319018 -15361 4857 3973
34314 292808 318683 -15337 4949 4104
34358 292779 318637 -15398 5069 4238
34414 292943 318772 -15528 5160 4369
34453 292960 318777 -15824 5268 4429
34501 293039 318855 -15998 5208 4337
34557 293218 319022 -16156 4964 4294
34623 293515 319325 -16236 4624 4249
34677 293723 319533 -16241 4330 4137
34695 293820 319666 -16180 4109 3983
34649 293837 319724 -16049 3911 3803
34531 293810 319737 -15882 3727 3597
34387 293699 319676 -15692 3589 3318
34254 293550 319550 -15480 3476 2960
34149 293414 319424 -15350 3381 2568
34075 293250 319229 -15259 3329 2183
34018 293006 318970 -15159 3276 1896
33986 288659 314383 -16465 3806 3199
34018 288442 314139 -16213 3928 2942
34063 288415 314071 -15914 3968 2869
34110 288405 314034 -15696 3964 2608
34161 288402 314023 -15640 3973 2040
34216 288441 314033 -15626 4013 1532
34268 288368 313924 -15502 4037 1370
34315 288260 313778 -15254 3974 1567
34366 288263 313779 -15214 3970 1589
34423 288357 313844 -15276 3969 1592
34479 288456 313924 -15359 3979 1551
34530 288472 313917 -15409 4010 1503
34552 288364 313790 -15415 4053 1557
34527 288316 313786 -15404 4109 1682
34446 288415 313938 -15439 4196 1774
34323 288493 314045 -15526 4338 1788
34188 288451 314018 -15588 4531 1797
34075 288439 314050 -15589 4771 1868
33993 288461 314089 -15564 5007 1936
33939 288545 314190 -15541 5244 1942
33998 289971 315656 -15061 6843 1608
33998 290007 315703 -14978 6744 1462
34015 290048 315722 -14960 6655 1329
34037 290151 315840 -14935 6574 1240
34070 290311 316003 -14875 6493 1148
34111 290481 316164 -14842 6422 1004
34158 290644 316318 -14856 6359 836
34207 290807 316469 -14943 6176 601
34262 290975 316626 -14886 6127 516
34324 291110 316735 -14843 6097 447
35089 291852 317293 -14876 6646 581
35152 291865 317279 -14908 6647 538
35194 291903 317312 -14935 6637 486
35172 291837 317265 -14974 6613 411
35075 291744 317207 -15004 6569 344
34942 291673 317167 -15017 6484 343
34801 291586 317127 -15043 6379 393
34691 291527 317098 -15063 6314 416
34618 291511 317102 -15060 6275 418
34575 291585 317175 -15006 6252 468
34548 291645 317254 -14910 6250 549
34526 291614 317219 -14832 6266 607
34509 291575 317186 -14781 6312 615
34507 291656 317244 -14731 6363 589
34525 291690 317269 -14652 6437 607
34540 291624 317202 -14592 6557 651
34546 291522 317099 -14565 6677 692
34538 291535 317096 -14559 6763 738
34528 291608 317178 -14540 6858 794
34509 291603 317186 -14496 6966 860
34484 291544 317151 -14480 7056 903
34467 291511 317120 -14456 7150 928
34464 291516 317117 -14362 7259 995
34471 291436 317025 -14296 7377 1076
34486 291390 316972 -14284 7517 1125
34498 291271 316832 -14283 7678 1124
34513 291096 316623 -14497 7921 966
34536 290894 316402 -14570 8033 977
34560 290651 316122 -14582 8075 1107
34588 290331 315754 -14615 8047 1257
34619 289986 315367 -14655 7951 1393
34655 289680 315025 -14679 7800 1541
34694 289390 314679 -14687 7610 1692
34740 289328 314568 -14696 7394 1912
34807 289463 314718 -14728 7150 2233
34879 289700 314913 -14911 6697 2813
34943 289836 314990 -14971 6499 3049
34992 289758 314881 -14991 6373 3211
35047 289781 314888 -14988 6314 3283
35078 289704 314773 -14953 6291 3319
35021 289262 314305 -14920 6271 3348
34929 289189 314238 -14923 6236 3313
34829 289616 314627 -15008 6181 3210
34726 290122 315186 -15128 6088 3140
34690 291512 316619 -15114 5886 3037
34687 293065 318180 -15037 5762 3025
34815 296220 321259 -15064 5645 2884
35015 300372 325256 -15138 5614 2540
35332 306750 331289 -15017 5675 2194
35687 313252 337131 -14908 5721 1970
35649 305865 329715 -14752 5861 1611
35643 305226 329184 -14892 5629 1743
35656 304710 328688 -15082 5440 1962
35665 304099 328112 -15309 5349 2080
35684 303403 327476 -15513 5214 2334
35709 302909 326930 -15590 5113 2465
35751 302654 326716 -15666 5039 2600
35828 303025 327032 -15721 4968 2730
35863 302285 326295 -15642 4877 2817
35862 300979 325031 -15519 4786 2860
35917 300818 324876 -15514 4687 2906
36001 301063 325101 -15436 4556 2978
36101 301763 325760 -15323 4445 3062
36182 302193 326123 -15317 4352 3151
36227 302007 325914 -15258 4285 3238
36293 302168 326024 -15214 4257 3332
36362 302504 326310 -15216 4221 3434
36435 303015 326788 -15128 4173 3523
36515 304285 328054 -15049 4110 3627
36611 307113 330819 -15079 4049 3771
36831 313465 336766 -15093 4007 3918
37477 326826 348586 -15056 3982 4044
40693 365385 381495 -14986 3973 4177
46195 392594 400715 -14271 4153 4526
44889 375781 388138 -13858 5208 4559
45353 381835 393255 -15215 5861 5801
45912 383109 393539 -14651 6034 6595
45422 377975 389684 -12434 6437 5997
45335 377864 389724 -13493 6299 6188
45208 376829 388983 -13959 6248 6305
45253 377134 389092 -13426 6165 6273
44915 373630 386347 -13453 5975 6401
44833 373387 386145 -13485 5837 6522
44793 373441 386100 -13504 5736 6604
44705 373315 385936 -13267 5646 6632
44487 371899 384810 -13275 5521 6792
44210 369919 383277 -13425 5410 6965
44007 368643 382219 -13507 5264 7126
43879 368013 381634 -13537 5095 7250
43812 367783 381406 -13549 4955 7356
43803 367930 381497 -13626 4847 7463
43810 367979 381479 -13740 4777 7560
43777 367507 381053 -13855 4726 7640
43715 366741 380393 -13970 4690 7702
43673 366136 379911 -14078 4639 7744
43678 365965 379745 -14137 4551 7776
43730 366128 379871 -14118 4445 7791
43790 366290 379975 -14069 4335 7790
43831 366163 379833 -14035 4241 7801
43858 365884 379575 -14035 4174 7801
44001 365720 379325 -14220 3540 6955
43692 365545 379206 -14247 3440 6890
43405 365361 379067 -14334 3196 6900
43178 365226 378982 -14356 3107 6946
43030 365191 378974 -14373 3055 6960
42945 365205 378991 -14399 3017 6935
42899 365220 378981 -14456 2970 6902
42866 365249 379016 -14531 2926 6907
42856 365302 379051 -14587 2893 6934
42883 365412 379117 -14618 2878 6960
42926 365415 379098 -14636 2860 6962
42956 365395 379070 -14628 2832 6928
42962 365308 378992 -14599 2812 6889
42948 365322 379023 -14586 2784 6892
42913 365312 379011 -14590 2749 6897
42873 365276 378979 -14635 2690 6876
42848 365253 378941 -14681 2612 6880
42841 365295 378973 -14679 2547 6904
42849 365315 378952 -14668 2504 6902
42866 365276 378900 -14671 2471 6882
42909 365454 379062 -14673 2429 6879
43097 366812 380095 -14657 2387 6901
43211 367234 380426 -14545 2413 6851
43253 366883 380080 -14501 2458 6811
43267 366394 379639 -14524 2465 6811
43251 365463 378889 -14434 2495 6763
43209 364396 378076 -14253 2483 6725
43250 364213 378045 -14027 2462 6618
43353 364617 378358 -13836 2498 6490
43430 364713 378360 -13777 2475 6513
43499 364694 378274 -13880 2396 6695
43581 364786 378302 -14016 2334 6948
43897 367053 379903 -13952 2300 7312
44277 370151 382404 -13901 2321 7416
45421 380241 390292 -13913 2379 7613
47189 393613 400322 -13722 2571 7740
48749 399991 404597 -13746 2750 7958
50285 402066 406024 -13687 2953 8295
50633 400401 404789 -14159 3437 8410
50460 398872 403539 -14052 3705 8375
49933 395915 401189 -13331 3562 8354
49194 391605 397778 -13350 3390 8434
48394 387148 394446 -13498 3250 8500
47915 385063 392956 -13599 3058 8550
47635 384217 392325 -13600 2818 8619
47464 384065 392316 -13724 2642 8647
47400 384359 392550 -13774 2538 8628
47405 384751 392878 -13703 2465 8604
47506 385379 393286 -13586 2452 8544
47437 384528 392610 -13639 2455 8493
47302 383454 391795 -13718 2454 8454
47171 382641 391179 -13600 2504 8356
46996 381644 390445 -13559 2539 8242
46819 380850 389897 -13518 2503 8108
46687 380442 389646 -13401 2416 8000
46564 379894 389257 -13280 2313 8002
46448 379266 388833 -13208 2204 8121
46356 378839 388522 -13191 2123 8315
46306 378675 388396 -13224 2065 8512
46285 378607 388291 -13275 2010 8674
46396 376635 386661 -13124 1710 9307
46442 376632 386684 -13060 1694 9362
46507 376715 386744 -13070 1768 9281
46548 376529 386535 -13061 1839 9156
46542 376073 386130 -13011 1844 9149
46463 375612 385702 -12933 1796 9240
46248 375170 385387 -12855 1725 9377
45911 374915 385281 -12820 1675 9498
45541 374873 385350 -12828 1644 9541
45187 374804 385367 -12866 1643 9480
44880 374578 385215 -12913 1665 9357
44638 374257 385026 -12980 1567 9320
44445 373891 384752 -12914 1459 9424
44289 373595 384533 -12854 1346 9539
44173 373424 384433 -12845 1269 9639
44089 373326 384354 -12871 1228 9723
44030 373158 384226 -12882 1210 9801
44000 372930 383995 -12865 1184 9865
43958 372662 383757 -12831 1141 9874
43906 372466 383621 -12780 1095 9842
43838 372358 383519 -12692 1054 9852
43745 372164 383399 -12669 1060 9809
43646 371995 383249 -12645 1080 9727
43560 371878 383187 -12617 1119 9666
43490 371737 383085 -12585 1166 9659
43434 371553 382919 -12502 1193 9785
43383 371250 382616 -12360 1156 10026
43331 370832 382235 -12249 1078 10254
43289 370480 381924 -12249 1013 10367
43277 370357 381839 -12301 978 10420
43283 370349 381844 -12348 962 10509
43282 370187 381709 -12404 927 10588
43288 369982 381528 -12433 861 10624
43312 369887 381416 -12421 764 10636
43338 369734 381290 -12407 628 10667
43363 369518 381093 -12402 474 10701
43384 369233 380858 -12370 306 10724
43406 368965 380606 -12296 120 10778
43427 368721 380318 -12179 -85 10897
43448 368470 379976 -12051 -273 11066
43467 368141 379642 -11931 -414 11231
43494 367845 379380 -11834 -501 11378
43520 367692 379229 -11795 -549 11492
43494 367478 379054 -11794 -580 11571
43340 367179 378828 -11818 -582 11623
43052 366882 378643 -11876 -546 11616
42711 366661 378584 -11942 -509 11524
42391 366550 378566 -11976 -476 11397
42127 366389 378486 -11970 -466 11344
41929 366238 378378 -11989 -490 11363
41622 367822 379933 -12058 -600 11498
41570 367437 379659 -12150 -634 11520
41588 367686 379865 -12280 -668 11466
41579 367551 379790 -12386 -676 11418
41568 367088 379402 -12446 -657 11368
41561 366780 379472 -12506 -632 11300
41730 367884 380251 -12588 -603 11180
41621 366097 378757 -12653 -565 10994
41676 366126 378771 -12723 -524 10835
41646 365171 377966 -12756 -463 10654
41669 364875 377789 -12729 -355 10333
41695 364503 377600 -12766 -273 10024
41757 364404 377629 -12794 -223 9800
41817 364240 377553 -12812 -207 9661
41873 364026 377386 -12682 -143 9501
41926 363755 377158 -12650 -113 9451
41959 363369 376874 -12639 -99 9495
42003 363011 376674 -12564 -65 9477
42045 362711 376434 -12616 -64 9466
42080 362386 376136 -12636 -22 9400
42115 362060 375853 -12667 -10 9338
42143 361750 375562 -12667 3 9312
42107 361360 375221 -12681 25 9339
41948 360935 374892 -12686 49 9388
41675 360539 374613 -12703 64 9461
41333 359995 374205 -12735 76 9554
41006 359407 373727 -12765 107 9627
40733 358826 373249 -12807 163 9679
40529 358418 372908 -12839 217 9732
40373 358059 372598 -12856 269 9779
40250 357746 372344 -12911 332 9814
40151 357542 372171 -12984 385 9843
40071 357366 372010 -13036 420 9897
40037 357338 371954 -13055 445 9976
40040 357375 371983 -13049 457 10045
40043 357397 371988 -13043 468 10094
40038 357586 372157 -13031 489 10102
40028 357899 372477 -13023 502 10070
40003 358086 372674 -13025 503 10047
39958 358101 372697 -13030 503 10034
39939 358202 372813 -13051 523 9997
39978 358821 373385 -13056 541 9961
40070 359726 374145 -13103 577 9955
40187 360742 374990 -13196 595 9924
40555 364204 377846 -13263 609 9861
41030 368530 381370 -13319 632 9787
41714 373954 385561 -13376 659 9728
41800 372380 384617 -13436 681 9700
41906 371523 383997 -13494 698 9669
41977 370487 383170 -13482 722 9592
47425 391527 399136 -14583 4080 4692
47449 391003 398769 -14591 4203 4342
47492 390490 398400 -14577 4263 4087
47532 389895 397945 -14489 4290 3944
47552 389189 397474 -14355 4276 3866
47541 388551 397012 -14264 4243 3837
47523 388044 396618 -14266 4207 3880
47504 387716 396352 -14334 4164 4002
47495 387532 396214 -14425 4121 4186
47494 387405 396105 -14496 4068 4408
47485 387117 395886 -14617 3892 4915
47463 386641 395514 -14701 3831 5152
47441 386106 395067 -14755 3776 5376
47430 385668 394700 -14816 3731 5541
47467 385539 394627 -14888 3676 5682
47536 385572 394665 -14949 3600 5867
47588 385469 394554 -14970 3524 6070
47645 385222 394319 -14984 3437 6197
47693 384850 394024 -15028 3320 6178
47731 384488 393702 -14977 3006 6210
46227 379748 389900 -14241 851 7738
46175 379868 389979 -14228 773 7839
46169 379909 390027 -14275 690 7943
46206 380082 390155 -14315 634 8000
46242 380202 390247 -14351 617 8045
46233 380145 390189 -14380 645 8097
46185 380009 390113 -14408 694 8124
46140 379933 390061 -14425 765 8141
46059 379557 389757 -14420 842 8174
45997 379278 389547 -14425 905 8194
45967 379188 389512 -14430 979 8165
45938 378915 389254 -14459 1052 8075
45941 378858 389215 -14465 1116 7975
45986 379040 389351 -14380 1180 7900
46043 379174 389468 -14318 1234 7844
46102 379175 389465 -14329 1263 7776
46162 379182 389481 -14407 1232 7650
46237 379263 389552 -14392 1177 7551
46319 379282 389568 -14150 1115 7647
46403 379266 389519 -13839 1050 7867
46491 379200 389447 -13741 1046 8017
46571 379021 389294 -13885 1091 8073
46645 378812 389124 -14078 1167 8048
46720 378675 388993 -14265 1293 7937
46802 378628 388926 -14389 1480 7786
46889 378666 388924 -14418 1682 7636
46979 378734 388969 -14374 1796 7501
47063 378738 388960 -14279 1798 7421
47136 378636 388854 -14167 1721 7421
47201 378478 388699 -14078 1609 7499
47247 378316 388555 -14029 1496 7613
47194 378075 388363 -13942 1403 7725
47003 377797 388168 -13815 1352 7850
46695 377559 388029 -13769 1352 7955
46363 377383 387961 -13805 1374 8011
46064 377258 387881 -13880 1388 8031
45828 377019 387712 -13957 1394 8037
45657 376720 387463 -13963 1369 8037
45530 376427 387213 -13841 1376 8183
45419 376142 386960 -13730 1407 8277
45312 375805 386706 -13687 1461 8334
45240 375579 386543 -13753 1532 8305
45200 375297 386290 -13822 1613 8228
45178 375090 386117 -13769 1680 8184
45145 374853 385922 -13650 1709 8208
45075 374573 385704 -13577 1725 8279
45010 374552 385707 -13565 1736 8340
44935 374498 385665 -13573 1726 8471
44877 374417 385607 -13518 1736 8558
44830 374382 385576 -13491 1736 8636
44809 374362 385565 -13486 1701 8738
44794 374323 385526 -13522 1651 8844
44801 374334 385498 -13570 1612 8898
44790 374079 385295 -13611 1562 8914
44824 374211 385404 -13639 1507 8923
44848 374180 385362 -13628 1455 8889
44866 373996 385192 -13623 1406 8842
44897 373884 385096 -13586 1388 8803
44932 373757 384949 -13473 1381 8758
44963 373600 384807 -13380 1380 8730
45001 373458 384662 -13316 1411 8698
45044 373290 384509 -13290 1462 8662
45074 373102 384313 -13268 1517 8655
45112 372995 384200 -13204 1584 8678
45157 372891 384077 -13142 1629 8721
45198 372774 383962 -13139 1637 8761
45255 372743 383909 -13173 1628 8808
45303 372666 383832 -13232 1512 9036
45317 372522 383697 -13250 1437 9179
45260 372410 383611 -13225 1368 9320
45057 372171 383442 -13173 1309 9437
44738 371858 383260 -13144 1274 9506
44384 371474 382991 -13143 1271 9543
44056 370977 382648 -13148 1300 9562
43809 370663 382434 -13153 1358 9551
43625 370429 382275 -13136 1419 9525
43490 370217 382124 -13025 1523 9472
43374 370055 382002 -12963 1560 9433
43286 369901 381881 -12916 1582 9419
43217 369737 381768 -12883 1606 9412
43194 369616 381659 -12865 1641 9423
43174 369421 381493 -12867 1673 9463
43156 369362 381455 -12878 1705 9502
43120 369359 381468 -12885 1732 9534
43052 369221 381342 -12882 1757 9554
42957 368941 381131 -12909 1725 9561
42872 368728 380980 -12908 1702 9602
42814 368702 380967 -12887 1689 9632
42778 368669 380923 -12853 1663 9666
42741 368575 380770 -12819 1623 9709
43091 368043 380208 -12756 1494 9797
43152 368023 380165 -12751 1462 9780
43206 367987 380123 -12742 1422 9762
43262 367945 380072 -12730 1382 9775
43316 367841 379957 -12710 1352 9814
43380 367877 379962 -12704 1336 9860
43444 367914 379975 -12713 1304 9888
43481 367859 379942 -12715 1269 9895
43435 367719 379843 -12722 1264 9896
43251 367487 379683 -12725 1268 9895
42966 367228 379555 -12729 1270 9892
42650 367015 379433 -12744 1267 9887
42391 366968 379472 -12760 1270 9885
42199 366970 379487 -12772 1269 9874
42056 366906 379454 -12775 1253 9861
41941 366759 379350 -12797 1260 9881
41855 366705 379322 -12782 1235 9849
41789 366727 379370 -12773 1221 9822
41746 366704 379345 -12767 1199 9802
41725 366618 379274 -12757 1171 9799
41729 366549 379229 -12734 1159 9805
41734 366578 379249 -12725 1159 9809
41719 366601 379276 -12727 1163 9824
41669 366477 379190 -12724 1172 9820
41601 366316 379067 -12710 1221 9796
41540 366205 378994 -12699 1215 9809
41495 366170 378979 -12693 1204 9816
41466 366110 378930 -12689 1197 9821
41445 366021 378860 -12693 1187 9845
41442 365993 378835 -12694 1192 9879
41460 366014 378852 -12703 1197 9905
41485 366018 378834 -12717 1188 9910
41510 365907 378748 -12724 1182 9901
41545 365811 378662 -12728 1180 9911
41597 365868 378696 -12733 1179 9958
41663 365972 378778 -12736 1152 9989
41738 366059 378840 -12733 1126 9992
41814 366123 378879 -12725 1107 9992
41880 366061 378812 -12719 1095 9978
41950 366053 378797 -12709 1108 9953
42036 366126 378838 -12696 1115 9923
42116 366189 378872 -12690 1110 9918
42185 366135 378810 -12672 1109 9910
42250 366053 378737 -12660 1122 9893
42329 366081 378729 -12660 1157 9876
42404 366083 378707 -12664 1174 9865
42483 366084 378689 -12673 1159 9881
42558 366125 378722 -12682 1147 9904
42594 366059 378668 -12698 1139 9934
42530 365966 378591 -12711 1134 9955
42335 365737 378442 -12705 1116 9956
42055 365491 378303 -12693 1090 9971
41774 365300 378208 -12692 1075 9986
41539 365140 378121 -12703 1071 10009
41381 365074 378116 -12680 1084 10069
41274 365054 378119 -12663 1066 10040
41195 364999 378076 -12668 1067 10025
41136 364942 378011 -12672 1074 10003
41089 364903 378007 -12656 1072 9988
41076 364941 378049 -12631 1076 9989
41085 364936 378026 -12629 1066 10000
41108 364931 378017 -12636 1056 10010
41103 364853 377969 -12638 1056 9990
41081 364855 377984 -12616 1079 10048
41038 364850 377979 -12632 1077 10092
40982 364802 377956 -12645 1085 10107
40945 364835 378018 -12665 1078 10110
40930 364926 378091 -12687 1070 10080
40928 364963 378120 -12714 1079 10042
40938 365000 378142 -12725 1096 10048
40961 365044 378201 -12715 1106 10060
41005 365175 378312 -12722 1108 10041
41057 365274 378383 -12738 1128 10028
41115 365363 378456 -12741 1146 10008
41174 365473 378547 -12729 1142 9967
41246 365630 378679 -12718 1146 9925
41326 365793 378805 -12710 1154 9887
41404 365862 378826 -12704 1162 9863
41479 365880 378836 -12688 1182 9840
41557 365979 378900 -12668 1191 9807
41634 366082 378967 -12664 1182 9793
41713 366152 379007 -12657 1178 9812
41795 366259 379084 -12659 1174 9838
41886 366472 379261 -12659 1177 9877
41975 366591 379335 -12663 1173 9889
42040 366533 379268 -12686 1157 9862
42107 366531 379237 -12693 1140 9847
42156 366476 379161 -12673 1114 9849
42136 366389 379111 -12637 1079 9872
41986 366184 378987 -12628 1039 9912
41742 365954 378846 -12658 1006 9951
41481 365758 378734 -12690 988 9953
41260 365621 378654 -12707 979 9948
41102 365487 378550 -12669 963 10064
40999 365363 378485 -12651 918 10074
40940 365326 378477 -12644 905 10064
40917 365376 378504 -12663 914 10052
40881 365176 378355 -12660 935 10049
40881 365111 378307 -12646 953 10060
40911 365114 378304 -12643 980 10051
40946 365143 378311 -12644 1028 10037
40967 365146 378320 -12655 1058 10041
40960 365165 378328 -12585 1144 10082
40928 365082 378282 -12562 1181 10067
40880 364980 378216 -12564 1224 10056
40843 364940 378193 -12577 1249 10027
40813 364793 378078 -12596 1252 9987
40802 364679 377955 -12620 1245 9966
40822 364752 378005 -12635 1219 9991
40861 364865 378087 -12637 1171 10054
40903 364887 378103 -12642 1125 10131
40946 364889 378110 -12635 1109 10242
40991 364867 378065 -12650 1093 10258
41054 364947 378120 -12639 1085 10250
41124 364987 378142 -12619 1101 10220
41217 365240 378356 -12612 1121 10178
41320 365475 378548 -12607 1142 10126
41419 365593 378606 -12597 1164 10099
41506 365592 378579 -12579 1179 10095
41587 365569 378548 -12554 1191 10079
41670 365556 378521 -12513 1213 10076
41748 365527 378492 -12480 1244 10095
41831 365577 378510 -12481 1266 10109
41911 365574 378479 -12501 1254 10110
41979 365404 378285 -12522 1220 10131
42022 365151 378049 -12529 1185 10177
42037 365039 377972 -12542 1153 10220
41959 364995 377961 -12573 1111 10233
41752 364735 377793 -12594 1067 10259
41470 364470 377639 -12570 1018 10320
41201 364288 377526 -12533 965 10377
40978 364087 377407 -12459 882 10372
40825 363995 377357 -12469 866 10356
40715 363883 377276 -12488 845 10323
40651 363916 377313 -12492 840 10277
40617 364090 377486 -12508 855 10236
40621 364533 377874 -12533 880 10190
40648 364875 378166 -12540 909 10162
40700 365042 378305 -12508 948 10142
40752 365269 378518 -12482 1005 10110
40801 365585 378802 -12533 965 10377
40831 365944 379133 -12459 882 10372
40835 366117 379285 -12469 866 10356
40805 366026 379222 -12488 845 10323
40762 365726 378997 -12492 840 10277
40707 365172 378549 -12508 855 10236
40648 364430 377937 -12533 880 10190
40617 363979 377554 -12540 909 10162
40633 363855 377477 -12508 948 10142
40673 363960 377577 -12482 1005 10110
40725 364065 377665 -12274 1214 10123
40777 363930 377565 -12210 1337 10186
40824 363750 377424 -12165 1446 10240
40895 363770 377464 -12144 1596 10224
40993 363946 377608 -12136 1756 10243
41094 364095 377732 -12073 1885 10361
41198 364152 377790 -11991 2004 10538
41304 364279 377919 -11994 2130 10680
41420 364470 378094 -12070 2279 10731
41538 364702 378268 -12140 2469 10752
41847 365424 378910 -12139 4071 10010
41652 365512 379003 -12095 4153 9927
41483 365290 378839 -11998 4225 9858
41383 365259 378820 -11859 4260 9868
41328 365259 378818 -11786 4283 9951
41304 365330 378896 -11786 4328 10040
41296 365408 378933 -11807 4360 10114
41287 365408 378916 -11823 4366 10199
41300 365324 378805 -11882 4364 10267
41321 365189 378682 -11958 4345 10303
41525 362397 376062 -12173 2547 10779
41612 362551 376197 -12192 2357 10672
41696 362672 376291 -12161 2198 10657
41782 362799 376374 -12120 2054 10692
41874 362973 376528 -12092 1934 10711
41959 363167 376674 -12049 1837 10694
41984 363155 376655 -11999 1761 10655
41905 363142 376692 -11974 1757 10620
41725 363088 376692 -12029 1821 10580
41474 362842 376546 -12102 1932 10514
41236 362687 376444 -12114 2076 10402
41035 362286 376115 -12123 2238 10301
40927 362377 376245 -12159 2399 10246
40864 362413 376261 -12159 2534 10235
40825 362388 376235 -12108 2658 10269
40808 362490 376324 -12085 2789 10269
40801 362558 376378 -12101 2903 10234
40822 362548 376344 -12120 2986 10218
40864 362585 376361 -12113 3043 10213
40897 362641 376410 -12093 3040 10194
40905 362763 376514 -12057 3031 10143
40921 363112 376826 -12096 2997 10125
40914 363207 376911 -12172 2912 10189
40907 363395 377092 -12150 2824 10277
40998 364531 378050 -12106 2716 10358
41176 366233 379412 -12084 2623 10411
41287 366929 379998 -12086 2565 10409
41383 367380 380373 -12099 2522 10420
41469 367561 380498 -12070 2485 10483
41510 367252 380237 -12003 2499 10491
41526 366763 379803 -11984 2489 10451
41521 365945 379078 -11897 2511 10426
41467 364685 377983 -11814 2552 10418
41447 363963 377385 -11799 2602 10447
41497 363938 377363 -11775 2685 10502
41574 364060 377442 -11703 2793 10497
41619 363786 377163 -11675 2888 10468
41654 363412 376819 -11687 2932 10442
41701 363208 376652 -11630 2894 10627
41756 363152 376587 -11584 2855 10803
41809 363090 376515 -11496 2848 10934
41897 363328 376704 -11477 2854 11028
41962 363285 376645 -11544 2856 11093
42031 363310 376651 -11577 2868 11164
42105 363490 376796 -11542 2907 11249
42122 363509 376835 -11529 2955 11299
42034 363531 376862 -11533 3010 11323
41814 363283 376698 -11491 3060 11313
41532 362911 376416 -11479 3108 11294
41245 362441 376081 -11471 3171 11301
41040 362300 375986 -11443 3239 11291
40858 361807 375573 -11445 3305 11259
40730 361525 375357 -11425 3363 11217
40679 361920 375748 -11384 3382 11172
40741 363222 376872 -11361 3357 11193
40864 364958 378360 -11335 3324 11255
41029 366592 379683 -11284 3312 11262
41158 367362 380278 -11238 3301 11251
41183 367030 379997 -11231 3264 11236
41103 365931 379076 -11278 3241 11223
40936 364345 377799 -11338 3243 11196
40748 362848 376582 -11388 3236 11129
40637 362411 376252 -11405 3217 11060
40549 362085 375926 -11372 3189 11019
40430 361254 375223 -11333 3161 11007
40357 360807 374887 -11290 3144 11035
40364 361105 375240 -11212 3137 11091
40393 361367 375402 -11187 3086 11091
40346 360728 374824 -11172 2908 10980
40407 361298 375324 -11084 2843 11110
40462 361577 375549 -11051 2812 11307
40552 362169 376085 -11030 2808 11376
40794 364308 377924 -11062 2815 11298
40968 365258 378641 -11086 2855 11254
41105 365916 379175 -11075 2891 11397
41211 366081 379301 -11047 2922 11549
41336 366506 379625 -10945 2942 11657
41531 367576 380483 -10872 2976 11622
41753 368787 381475 -10959 3104 11570
41921 369315 381858 -11086 3257 11499
40785 362025 376394 -10770 3727 11231
40656 361256 375766 -10796 3821 11400
40584 360856 375563 -10842 3914 11513
40614 361378 376097 -10850 4057 11424
40642 361580 376278 -10909 4214 11228
40722 362045 376673 -11058 4354 11129
40840 362627 377124 -11213 4469 11160
40956 363239 377616 -11338 4600 11070
41080 364054 378287 -11431 4803 10807
41166 364630 378709 -11539 4943 10627
41248 365257 379224 -11632 4988 10513
41365 366219 380030 -11637 4983 10486
41485 366969 380641 -11576 4960 10510
41594 367339 380953 -11412 5022 10447
41709 367622 381183 -11192 5136 10412
41849 368124 381591 -11068 5258 10392
42004 368600 382002 -11268 5620 10166
42185 369239 382541 -11481 5807 10057
42385 369907 383069 -11641 5947 9996
42598 370607 383578 -11736 6033 9962
42830 371293 384113 -11854 6098 9913
43078 372057 384728 -12000 6151 9817
43339 372836 385330 -12078 6173 9670
43600 373549 385867 -12103 6189 9499
43892 374540 386574 -12127 6233 9320
44173 375299 387105 -12158 6252 9121
44456 376059 387636 -12203 6267 8910
44718 376545 387983 -12273 6301 8666
44981 377158 388414 -12263 6335 8380
45215 377475 388629 -12221 6354 8125
45458 377928 388971 -12205 6334 7964
45728 378694 389454 -12225 6301 7869
45872 378850 389612 -12281 6266 7772
45891 379048 389773 -12300 6199 7693
45788 379135 389867 -12311 6116 7672
45633 379125 389900 -12350 5922 7646
45513 379208 389987 -12490 5850 7691
45437 379157 389961 -12484 5797 7730
45394 378965 389809 -12529 5742 7796
45381 378714 389624 -12584 5709 7854
45392 378533 389488 -12613 5670 7880
45365 377975 389068 -12631 5624 7924
45358 377495 388690 -12636 5569 8001
45384 377118 388386 -12662 5502 8090
45460 377125 388430 -12705 5437 8163
45527 377149 388450 -12719 5356 8200
45490 376524 387944 -12663 5247 8323
45306 374862 386730 -12689 5136 8451
45047 372855 385227 -12760 5083 8430
44926 372295 384778 -12775 5075 8401
44895 372434 384928 -12785 5063 8385
44892 372540 385033 -12738 4979 8357
44905 372584 385048 -12667 4793 8414
44911 372392 384876 -12613 4592 8574
44934 372328 384805 -12662 4443 8673
44952 372155 384675 -12723 4378 8678
44993 372081 384609 -12732 4340 8711
45043 371966 384534 -12800 4302 8806
45112 371927 384509 -12895 4304 8886
45188 371905 384480 -12962 4318 8906
45287 372010 384574 -12988 4324 8911
45405 372247 384762 -12995 4342 8864
45553 372672 385079 -13027 4375 8793
45693 372953 385299 -13074 4408 8768
45823 373121 385440 -13086 4440 8762
45935 373167 385481 -13133 4555 8639
46060 373315 385600 -13142 4601 8488
46191 373607 385822 -13167 4671 8331
46244 373842 385997 -13243 4754 8203
46176 374039 386205 -13331 4826 8107
45986 374170 386354 -13399 4874 8005
45749 374240 386465 -13474 4884 7902
45546 374283 386549 -13524 4864 7811
45419 374440 386725 -13566 4823 7749
45376 374766 387016 -13642 4732 7513
45380 375130 387321 -13631 4689 7352
45406 375469 387599 -13621 4657 7179
45450 375748 387838 -13644 4646 6972
45522 376063 388103 -13661 4632 6765
45639 376461 388410 -13640 4612 6579
45797 377002 388870 -13656 4588 6424
45967 377614 389358 -13766 4570 6289
46093 378038 389669 -13934 4573 6142
46189 378397 389973 -14061 4615 5939
46265 378655 390161 -14172 4690 5762
46315 378724 390191 -14295 4763 5675
46357 378688 390157 -14355 4813 5578
46421 378760 390213 -14440 4848 5544
46529 379033 390434 -14591 4845 5666
46661 379359 390663 -14704 4821 5792
46792 379602 390866 -14764 4816 5757
46927 379815 391018 -14821 4868 5589
47080 380107 391244 -14872 4971 5365
47257 380517 391513 -14898 5097 5132
47452 380990 391835 -14936 5238 4936
47656 381431 392166 -14956 5383 4689
47832 381581 392244 -14944 5586 4354
48005 381736 392347 -14904 5825 4055
48191 381991 392513 -14830 6023 3818
48378 382242 392688 -14766 6180 3608
48589 382672 393011 -14679 6313 3448
48813 383176 393363 -14585 6406 3336
49022 383482 393570 -14564 6446 3238
49213 383655 393644 -14614 6464 3120
49410 383906 393789 -14753 6466 2645
49581 384158 393958 -14760 6480 2344
49660 384425 394140 -14727 6512 2082
49604 384636 394285 -14690 6533 1848
49443 384654 394336 -14643 6529 1644
49255 384565 394294 -14621 6500 1480
50712 384867 394829 -14577 6676 164
50830 384687 394702 -14423 6720 216
50936 384451 394518 -14305 6791 315
51036 384174 394311 -14258 6830 474
51143 383954 394154 -14321 6761 705
51248 383734 393993 -14452 6625 971
51342 383469 393797 -14568 6522 1216
51433 383221 393621 -14657 6467 1445
51527 383035 393498 -14721 6431 1667
51618 382776 393294 -14795 6438 1827
51680 382339 392956 -14843 6568 1855
51748 382028 392711 -14788 6778 1894
51821 381692 392484 -14643 6930 2136
51833 381264 392154 -14476 7231 2694
51748 380905 391884 -14604 7411 3089
51521 380521 391665 -14681 7410 3606
51224 380205 391458 -14776 7386 4107
50946 380058 391360 -14838 7373 4574
50752 380015 391358 -14842 7310 4940
50607 379722 391114 -14853 7323 5013
50495 379228 390748 -14881 7435 4880
50452 379088 390618 -14838 7539 4770
50466 379080 390570 -14520 7772 4231
50434 378613 390084 -14207 7932 3879
50405 377927 389528 -13844 7889 3745
50401 377356 389124 -13739 7573 3622
50347 376499 388460 -13843 7221 3370
50183 375084 387379 -13791 6919 3175
49929 373285 386154 -13557 6600 3028
49691 371895 385249 -13383 6441 2675
49508 371071 384751 -13385 6480 2202
49366 370608 384454 -13456 6857 1870
49271 370442 384333 -13454 7147 1908
49238 370469 384397 -13605 7499 1859
49240 370568 384495 -13820 7830 1774
49228 370477 384411 -13816 8020 1785
49210 370238 384231 -13720 8112 1759
49148 369428 383575 -13748 8214 1717
49068 368512 382833 -13805 8293 1753
49011 367983 382418 -13786 8309 1803
49154 366929 381593 -14427 7268 2509
49074 366764 381455 -14752 6953 3180
48863 366581 381351 -14691 6893 3339
48558 366574 381358 -14610 6871 3383
48219 366542 381381 -14622 6793 3427
47914 366339 381249 -14699 6684 3498
47676 366053 381041 -14707 6623 3573
47542 366054 381050 -14681 6613 3619
47455 366070 381073 -14648 6606 3630
47391 366118 381135 -14627 6593 3581
47349 366180 381209 -14689 6623 3451
47356 366290 381319 -14736 6663 3343
47398 366336 381354 -14731 6613 3362
47432 366387 381364 -14741 6500 3400
47446 366461 381440 -14735 6400 3350
47439 366646 381593 -14690 6345 3290
47399 366702 381640 -14619 6306 3315
47340 366611 381576 -14559 6270 3396
47290 366587 381598 -14531 6265 3467
47270 366674 381682 -14430 6329 3520
47271 366769 381755 -14136 6694 3655
47292 366892 381880 -14084 6893 3622
47334 367068 382028 -13959 7173 3513
47400 367355 382288 -13869 7441 3426
47468 367617 382494 -13868 7565 3373
47535 367762 382592 -13881 7607 3333
47602 367832 382666 -13940 7615 3358
47672 367869 382688 -14051 7566 3461
47736 367872 382668 -14158 7490 3572
47793 367852 382648 -14261 7408 3660
46931 365871 380889 -13611 6316 6466
46543 365721 380789 -13589 6371 6433
46264 365770 380868 -13500 6429 6427
46048 365762 380846 -13487 6508 6484
45842 365364 380481 -13654 6566 6517
45667 364999 380214 -13780 6607 6528
45537 364890 380149 -13778 6637 6581
45437 364842 380111 -13775 6625 6685
45372 364692 379955 -13836 6627 6658
45352 364648 379900 -13868 6600 6565
45326 364660 379892 -13834 6516 6412
45270 364685 379900 -13807 6468 6122
45204 364798 380006 -13800 6501 5885
45109 364673 379900 -13779 6507 5849
44996 364376 379643 -13713 6465 5839
44899 364254 379539 -13606 6425 5689
44840 364317 379597 -13586 6432 5457
44793 364304 379576 -13614 6475 5293
44755 364234 379515 -13594 6511 5180
44735 364235 379510 -13554 6560 5003
44749 364372 379633 -13451 6725 4797
44758 364356 379583 -13488 6706 4830
44752 364166 379406 -13655 6653 4734
44776 364162 379415 -13759 6577 4639
44822 364238 379460 -13765 6485 4749
44854 364144 379338 -13873 6438 4966
44894 364072 379263 -14094 6490 4975
44957 364232 379418 -14201 6597 4826
45044 364484 379634 -14191 6640 4718
45139 364685 379766 -14073 6606 4684
45211 364620 379674 -13920 6581 4712
45279 364587 379622 -13925 6578 4665
45325 364537 379603 -13966 6571 4547
45271 364414 379525 -14004 6538 4482
45057 364133 379305 -14089 6511 4534
44728 363682 378969 -14171 6527 4627
44402 363340 378791 -14258 6567 4578
44152 363103 378656 -14277 6575 4450
43961 362831 378468 -14233 6562 4365
43819 362564 378275 -14228 6596 4310
43438 361568 377688 -14240 6694 4308
43368 361261 377458 -14241 6822 4273
43336 361148 377360 -14115 6975 4138
43316 361087 377323 -14032 7131 3961
43305 360986 377217 -14068 7226 3858
43308 360936 377160 -13963 7275 3896
43319 360874 377134 -13812 7330 3952
43348 360814 377101 -13791 7383 3941
43383 360804 377101 -13840 7409 3915
43416 360795 377086 -13875 7405 3926
43455 360766 377033 -13909 7249 4045
43504 360771 377038 -13870 7147 3996
43557 360743 377013 -13914 7052 3934
43626 360824 377078 -13925 6925 3961
43700 360863 377114 -13896 6809 3987
43764 360685 376923 -13938 6757 3945
43792 360207 376443 -13922 6743 3899
43773 359811 376077 -13741 6774 3875
43653 359712 376037 -13559 6860 3891
43417 359651 376077 -13510 7016 4039
43157 359652 376181 -13493 7229 4292
42932 359651 376261 -13438 7427 4508
42728 359289 376009 -13425 7558 4610
42584 358989 375805 -13561 7565 4643
42490 358723 375606 -13816 7398 4836
42392 358275 375263 -14121 7128 5332
42337 358152 375248 -14436 6881 5927
42407 358900 376075 -14653 6707 6445
42550 359803 376928 -14814 6595 6827
42729 360519 377573 -14996 6499 7001
42947 361475 378359 -15053 6373 7081
43148 362270 379036 -14949 6234 7101
43356 363303 379935 -14783 6150 7039
43593 364612 381024 -14534 6129 7002
43809 365696 381899 -14199 6143 7005
44009 366665 382623 -14037 6212 6740
44206 367488 383230 -14211 6341 6080
44424 368367 383902 -14333 6524 5469
44640 369021 384368 -14217 6701 5134
44847 369552 384738 -14021 6795 4844
46431 368844 383872 -14483 5292 3213
46468 368341 383432 -14334 5361 3277
46392 367918 383093 -14286 5492 3338
46145 367399 382712 -14325 5658 3407
45757 366872 382321 -14360 5801 3533
45365 366359 381963 -14345 5945 3660
45053 365909 381637 -14409 6084 3753
44816 365487 381298 -14521 6175 3870
44656 365133 381048 -14521 6205 4116
44554 364889 380850 -14209 6152 4895
44445 363620 379707 -14482 4806 5614
44425 363426 379546 -14622 4635 5349
44450 363487 379552 -14661 4477 5212
44490 363580 379583 -14650 4358 5231
44547 363710 379651 -14652 4285 5334
44615 363780 379666 -14652 4217 5414
44692 363854 379676 -14665 4124 5452
44775 363926 379711 -14678 4008 5566
44864 364030 379747 -14745 3867 5722
44956 364148 379800 -14885 3702 5847
45071 364356 379980 -14969 3556 5959
45196 364653 380178 -15001 3416 6043
45316 364853 380316 -15013 3243 6101
45450 365105 380474 -14999 3044 6150
45582 365336 380637 -14994 2824 6213
45698 365598 380843 -14992 2621 6273
45709 365730 380949 -14959 2459 6333
45540 365622 380852 -14942 2331 6370
45239 365302 380630 -15094 2190 6327
44939 365197 380619 -15161 2131 6333
44544 366505 381473 -15007 1816 6192
44592 366868 381746 -14936 1714 6332
44651 367444 382205 -14853 1595 6492
44731 368244 382867 -14785 1474 6597
44845 369214 383645 -14736 1392 6673
44965 370020 384299 -14726 1327 6735
45084 370643 384782 -14741 1263 6788
45209 371139 385181 -14750 1203 6859
45348 371617 385542 -14695 1127 7086
45530 372365 386154 -14703 1091 7198
45840 374136 387562 -14712 1082 7252
46000 374192 387518 -14740 1078 7264
46192 374674 387805 -14782 1043 7283
46345 374512 387524 -14776 990 7299
46413 373827 386856 -14728 927 7304
46508 373465 386475 -14699 874 7287
46629 373427 386450 -14693 827 7233
46775 373639 386584 -14687 648 7093
46897 373650 386582 -14626 518 7106
46965 373768 386650 -14578 412 7179
46885 373811 386722 -14494 316 7277
46793 375142 387805 -14457 220 7338
46612 376029 388500 -14530 100 7406
46396 376297 388711 -14555 -23 7487
46223 376232 388632 -14582 -107 7548
46147 376372 388660 -14517 -119 7536
46134 376634 388775 -14552 -125 7395
46144 376923 388974 -14589 -97 7384
46176 377278 389255 -14619 -90 7421
46283 378111 389880 -14684 -107 7493
46459 379015 390487 -14688 -102 7549
46607 379147 390558 -14714 -73 7583
46707 378915 390345 -14743 -50 7612
46742 378417 389956 -14715 -36 7635
46759 378128 389746 -14649 -17 7649
46772 378029 389668 -14606 3 7671
46785 378024 389635 -14569 19 7672
46785 377789 389469 -14525 34 7636
46766 377336 389110 -14521 36 7616
46745 376730 388642 -14472 28 7601
48149 379995 390762 -14218 -532 8040
48440 381104 391495 -14168 -557 8100
48802 382689 392547 -14166 -573 8156
48910 381728 391708 -14128 -578 8189
48878 380544 390903 -14053 -564 8211
48946 381113 391231 -14024 -524 8234
48827 381306 391360 -13991 -475 8252
48407 380200 390661 -13950 -424 8230
47923 378794 389678 -13920 -355 8224
47524 377962 389101 -14058 -349 8276
47258 377587 388867 -13954 -383 8296
47154 377899 389118 -13776 -363 8237
47075 377860 389110 -14013 -375 8207
46991 377607 388952 -14042 -416 8193
46947 377501 388891 -13966 -477 8133
46932 377311 388762 -13885 -509 8021
46937 376901 388444 -13632 -305 7759
46949 376486 388119 -13571 -100 7754
46961 376179 387883 -13580 149 7768
46941 375847 387627 -13715 393 7842
47419 377142 388744 -13884 3536 8987
47660 378124 389476 -13910 3667 8840
47981 379600 390557 -13861 3762 8660
48396 381589 391982 -13893 3828 8486
48792 383209 393127 -13987 3846 8345
49258 385150 394495 -13937 3841 8247
49768 387264 395980 -13898 3829 8179
50385 390098 397964 -13938 3843 8060
51090 393403 400212 -13949 3920 7856
52056 397879 403439 -13940 4015 7649
53000 400763 405479 -13827 4106 7491
53811 402490 406879 -13654 4208 7371
54442 403418 407612 -13606 4361 7215
54533 401836 406265 -13568 4571 7025
54439 401197 405839 -13502 4895 6709
54620 402158 406668 -13511 5295 6345
54635 401368 405993 -13536 6011 5864
54203 397755 403121 -13582 6268 5739
53085 390065 397678 -13650 6359 5581
52738 389172 397138 -13314 6356 5407
52407 387257 395605 -13307 6310 5391
52205 386682 395233 -13735 6283 5416
52243 386986 395418 -13931 6045 5427
52130 385715 394387 -13838 5741 5355
51744 382987 392595 -13587 5500 5330
51889 384497 393692 -14069 5001 5344
51798 384076 393430 -14165 4782 5425
51809 384711 393960 -14642 4547 5552
51859 385275 394336 -14632 4428 5404
51934 385941 394823 -14708 4288 5199
52095 387017 395620 -15118 4142 5185
52228 387650 396113 -15031 4036 5217
52310 387755 396192 -14930 3885 5325
52347 387443 395936 -14927 3765 5440
52385 387042 395578 -14820 3674 5497
52418 386610 395186 -14795 3590 5571
52480 386433 395035 -14766 3550 5681
52547 386326 394914 -14734 3513 5788
52597 386004 394624 -14658 3485 5857
52613 385440 394174 -14565 3474 5918
52597 384737 393639 -14478 3482 5975
52584 384073 393129 -14392 3509 6048
52594 383590 392775 -14365 3524 6131
52687 383725 392902 -14326 3583 6216
52846 384348 393364 -14256 3696 6322
52918 384560 393563 -14218 3804 6422
53012 385716 394467 -14229 3919 6552
53047 387388 395676 -14221 4054 6725
52820 387677 395897 -14145 4227 6864
52441 387186 395564 -14180 4405 6965
52099 386613 395158 -14225 4598 7028
51825 386065 394752 -14169 4833 6985
51604 385353 394203 -14215 5019 6906
51460 384927 393858 -14199 5148 6900
51374 384736 393720 -13991 5225 6922
51305 384531 393535 -13717 5175 6840
51210 383808 392993 -13671 5042 6930
51184 383511 392821 -13675 4930 7116
51242 383791 393034 -13709 4880 7210
51261 383785 393013 -13795 4916 7188
51184 383217 392576 -13854 4943 7066
51114 382981 392391 -13896 4930 6945
51074 382998 392420 -13962 4921 6928
51070 383186 392569 -14005 4888 6998
51103 383435 392735 -13957 4843 7081
51128 383543 392800 -13937 4789 7112
51168 383648 392873 -13985 4725 7154
51232 383793 392996 -14068 4681 7205
51313 383892 393051 -14122 4631 7228
51389 383996 393094 -14082 4582 7195
51478 384053 393126 -14059 4557 7079
51557 383997 393068 -14114 4553 6926
51632 383885 392983 -14164 4541 6830
51709 383849 392932 -14179 4544 6797
51807 383833 392933 -14182 4574 6792
51901 383750 392864 -14202 4589 6809
51990 383555 392712 -14252 4600 6820
52057 383241 392444 -14350 4595 6745
52143 383074 392290 -14470 4558 6588
52224 383007 392229 -14512 4483 6507
50901 383946 393158 -14801 3023 6379
50967 384073 393256 -14806 2998 6317
51056 384272 393398 -14797 2990 6225
51160 384540 393603 -14755 2930 6048
51292 384904 393867 -14746 2885 5984
51444 385315 394162 -14747 2841 5945
51608 385743 394472 -14740 2840 5890
51777 386114 394713 -14730 2881 5846
51929 386317 394852 -14707 2951 5853
52065 386398 394899 -14685 3030 5897
52207 386481 394931 -14688 3085 5940
52353 386583 394996 -14695 3119 5957
52496 386651 395008 -14689 3155 5986
52640 386728 395053 -14689 3211 6051
52775 386775 395068 -14705 3284 6086
52890 386799 395082 -14723 3371 6098
52923 386815 395087 -14722 3456 6119
52799 386795 395116 -14702 3542 6122
52539 386827 395164 -14694 3605 6139
52230 386892 395257 -14703 3647 6208
51784 386960 395288 -14282 3877 6864
51792 386984 395303 -14254 3867 6931
51793 387038 395350 -14269 3850 7000
51796 387109 395395 -14257 3810 7057
51811 387182 395446 -14238 3779 7132
51844 387228 395479 -14228 3778 7207
51892 387287 395515 -14179 3773 7257
51956 387337 395530 -14113 3757 7299
52020 387354 395544 -14086 3739 7337
52096 387386 395543 -14083 3716 7379
52182 387380 395537 -14094 3688 7427
52270 387347 395493 -14109 3660 7464
52357 387293 395412 -14113 3628 7491
52445 387224 395343 -14035 3517 7516
52547 387209 395307 -14001 3468 7562
52652 387215 395301 -13997 3420 7608
52762 387254 395305 -13987 3373 7641
52887 387336 395350 -13975 3353 7677
53023 387466 395432 -13977 3355 7700
53160 387597 395514 -13975 3367 7713
51839 387055 395201 -13822 3527 7672
51839 387157 395276 -13884 3559 7657
51872 387338 395403 -13932 3576 7644
51947 387487 395503 -13959 3576 7626
52031 387606 395622 -14011 3591 7615
52103 387788 395735 -14099 3629 7580
52148 387910 395829 -14146 3672 7504
52135 387848 395760 -14128 3701 7431
52092 387704 395667 -14097 3720 7395
52057 387633 395608 -14072 3729 7396
52046 387652 395625 -14044 3734 7399
52066 387710 395657 -14040 3746 7379
52109 387798 395731 -14054 3754 7336
52170 387945 395833 -14058 3761 7263
52238 388087 395918 -14081 3798 7209
52299 388109 395937 -14102 3848 7186
52362 388082 395914 -14113 3872 7163
52440 388118 395928 -14158 3881 7135
52537 388258 396026 -14209 3876 7103
52646 388450 396160 -14222 3870 7096
52774 388691 396309 -14199 3864 7124
52899 388815 396378 -14179 3854 7148
53024 388841 396396 -14201 3859 7128
53142 388833 396363 -14241 3832 7001
53256 388858 396377 -14275 3873 6945
53332 388869 396382 -14261 3916 6883
53285 388868 396397 -14247 3961 6828
53079 388848 396414 -14272 3998 6779
52769 388704 396343 -14324 4023 6732
52447 388460 396194 -14368 4034 6742
52193 388355 396138 -14377 4020 6809
52035 388297 396109 -14363 4001 6868
51942 388313 396133 -14334 3933 6847
51923 388498 396272 -14364 3935 6784
51945 388728 396433 -14372 3952 6744
51956 388635 396381 -14388 3959 6714
51990 388447 396223 -14399 3954 6707
52048 388381 396161 -14359 3937 6748
52117 388469 396227 -14267 3910 6818
52184 388735 396424 -14284 3922 6795
52198 388745 396430 -14426 3980 6611
52164 388583 396313 -14425 4062 6380
52092 388190 396009 -14197 4130 6215
52055 388035 395905 -13911 4161 6143
52024 387797 395735 -13755 4165 6114
52000 387507 395502 -13764 4119 6128
51980 387195 395261 -13825 4026 6235
51945 386753 394890 -13805 3875 6469
51905 386282 394499 -13723 3684 6795
51858 385750 394101 -13674 3512 7113
51823 385256 393729 -13704 3324 7351
51810 384876 393455 -13819 3092 7516
51815 384559 393188 -13909 2881 7692
51812 384201 392930 -13907 2714 7864
51820 383891 392675 -13940 2566 7986
51827 383565 392426 -14066 2431 8050
51836 383213 392143 -14145 2299 8111
51844 382875 391859 -14121 2177 8237
51852 382611 391627 -14034 2075 8408
51813 382333 391424 -13929 1981 8577
51626 381946 391154 -13872 1846 8701
51269 381545 390859 -13842 1669 8779
50821 381163 390593 -13804 1501 8857
50349 380752 390306 -13731 1383 8920
49917 380325 390003 -13640 1300 8963
49570 380026 389785 -13548 1212 9021
49345 379852 389673 -13463 1141 9077
49174 379777 389629 -13423 1100 9107
49031 379704 389572 -13407 1097 9102
48921 379657 389527 -13384 1126 9098
49555 382933 391968 -13557 1772 8776
49730 383325 392266 -13592 1818 8690
49928 383919 392711 -13628 1851 8615
50147 384623 393210 -13657 1905 8515
50210 384558 393194 -13688 1967 8408
50190 384967 393489 -13683 2024 8304
50019 385228 393721 -13652 2086 8188
49727 385157 393701 -13701 2147 8141
49502 385461 393973 -13735 2219 8101
49377 385942 394382 -13674 2329 7993
49293 386046 394478 -13638 2444 7879
49254 386097 394516 -13674 2521 7816
49261 386226 394608 -13664 2696 7724
49285 386345 394689 -13650 2723 7695
49337 386443 394762 -13649 2733 7691
49436 386627 394908 -13665 2747 7692
49541 386802 395046 -13705 2765 7674
49628 386960 395157 -13742 2763 7649
49672 387015 395190 -13772 2744 7646
49670 387002 395173 -13801 2707 7676
49644 386925 395118 -13797 2644 7733
49623 386848 395050 -13789 2561 7862
49624 386809 395029 -13783 2534 7886
49639 386793 395009 -13782 2501 7932
49667 386771 394976 -13799 2465 7998
49701 386700 394910 -13828 2433 8061
49741 386626 394840 -13851 2408 8082
49788 386552 394791 -13823 2375 8078
49846 386518 394776 -13785 2341 8078
49919 386548 394773 -13772 2312 8081
50208 386309 394513 -13617 2311 8079
49848 386065 394362 -13617 2324 8138
49514 385800 394203 -13605 2295 8182
49251 385556 394022 -13571 2231 8211
49069 385374 393893 -13545 2186 8245
48943 385222 393781 -13527 2154 8278
48857 385100 393691 -13518 2120 8309
48790 384992 393592 -13513 2087 8342
48764 384866 393511 -13494 2067 8398
48764 384765 393405 -13478 2057 8471
48762 384658 393312 -13481 2049 8529
48737 384533 393227 -13489 2048 8596
48680 384425 393132 -13486 2049 8642
48596 384295 393065 -13489 2050 8647
48519 384213 392979 -13499 2046 8672
48458 384121 392925 -13496 2035 8695
48418 384049 392847 -13479 2029 8710
48400 383975 392803 -13463 2022 8736
48397 383915 392736 -13456 2008 8757
48411 383869 392715 -13452 1998 8782
49082 384235 392923 -13388 1935 8702
48999 384176 392889 -13423 1905 8711
48764 384061 392845 -13432 1908 8711
48425 383917 392774 -13429 1920 8726
48082 383780 392710 -13439 1914 8741
47799 383643 392620 -13434 1906 8736
47595 383542 392565 -13412 1894 8740
47458 383488 392529 -13389 1882 8751
47362 383461 392517 -13384 1881 8765
47291 383457 392517 -13401 1883 8769
47259 383478 392545 -13415 1868 8767
47282 383541 392586 -13431 1842 8776
47334 383592 392643 -13426 1849 8770
47382 383668 392700 -13397 1882 8751
47396 383735 392756 -13386 1899 8731
47375 383763 392780 -13394 1906 8728
47347 383803 392828 -13414 1921 8740
47323 383836 392877 -13436 1951 8736
47311 383908 392913 -13452 1982 8718
47319 383945 392953 -13454 1997 8719
47356 384018 393003 -13455 1992 8732
47415 384150 393103 -13473 1963 8739
47481 384300 393212 -13469 1942 8739
47556 384415 393299 -13446 1954 8724
47641 384539 393397 -13435 1963 8697
47744 384697 393507 -13432 1972 8681
47862 384897 393658 -13429 1991 8673
47983 385100 393808 -13429 2008 8645
48112 385298 393943 -13435 2023 8602
48244 385510 394091 -13433 2035 8559
48385 385689 394207 -13430 2046 8529
48526 385871 394333 -13455 2092 8490
48669 386054 394437 -13458 2098 8460
48812 386219 394541 -13462 2093 8457
48947 386346 394619 -13463 2088 8471
49065 386455 394680 -13468 2077 8471
49121 386506 394731 -13490 2060 8470
49020 386474 394713 -13522 2051 8506
48753 386359 394666 -13524 2036 8562
48404 386237 394607 -13507 2014 8602
48079 386153 394579 -13544 1972 8612
47837 386129 394588 -13541 1978 8585
47679 386118 394581 -13534 1991 8545
47587 386146 394613 -13514 2005 8505
47527 386219 394664 -13504 2020 8481
47487 386286 394718 -13506 2033 8447
47474 386376 394786 -13511 2045 8404
47523 386526 394912 -13525 2053 8370
47596 386668 395008 -13545 2068 8340
47656 386737 395054 -13569 2081 8323
47688 386788 395112 -13588 2088 8336
47692 386865 395171 -13585 2088 8346
47675 386919 395206 -13563 2088 8336
47667 386986 395269 -13568 2095 8330
47679 387075 395342 -13590 2097 8318
47713 387163 395394 -13596 2099 8306
47761 387230 395447 -13580 2107 8297
47822 387283 395497 -13565 2115 8285
47913 387464 395628 -13568 2130 8259
48004 387588 395715 -13578 2146 8250
48110 387700 395806 -13611 2182 8273
48224 387826 395891 -13624 2208 8285
48349 387930 395963 -13599 2211 8281
48484 388076 396059 -13593 2243 8279
48631 388248 396174 -13594 2287 8257
48783 388431 396313 -13593 2303 8220
48928 388555 396383 -13591 2308 8179
49067 388691 396469 -13585 2330 8157
49206 388811 396553 -13577 2350 8145
49349 388949 396645 -13573 2367 8133
49494 389092 396741 -13585 2399 8168
49637 389251 396831 -13582 2412 8197
49762 389329 396863 -13561 2401 8189
49857 389380 396908 -13561 2404 8180
49860 389462 396974 -13584 2421 8170
49710 389483 397006 -13598 2437 8177
49431 389393 396984 -13590 2446 8197
49125 389298 396948 -13593 2461 8216
48882 389259 396923 -13597 2484 8208
48726 389250 396937 -13587 2500 8187
48636 389277 396963 -13585 2399 8168
48587 389277 396952 -13582 2412 8197
48555 389266 396952 -13561 2401 8189
48542 389293 396961 -13561 2404 8180
48568 389357 397003 -13584 2421 8170
48651 389472 397086 -13598 2437 8177
48741 389581 397176 -13590 2446 8197
48810 389735 397266 -13593 2461 8216
48852 389925 397431 -13597 2484 8208
48888 390148 397615 -13587 2500 8187
50080 392114 399020 -13664 2746 8175
50234 392239 399100 -13648 2807 8062
50399 392361 399192 -13645 2857 7989
50565 392475 399255 -13652 2904 7950
50726 392614 399352 -13662 2951 7931
50892 392781 399463 -13675 2988 7925
51055 392904 399533 -13682 3026 7906
51218 393024 399608 -13690 3065 7893
51375 393114 399656 -13701 3083 7893
51528 393202 399703 -13705 3094 7914
51677 393270 399718 -13690 3117 7922
51810 393333 399758 -13672 3132 7897
51883 393374 399796 -13687 3149 7865
51808 393324 399777 -13726 3178 7822
51589 393270 399759 -13753 3213 7790
51309 393186 399713 -13763 3252 7772
51074 393125 399686 -13799 3286 7753
50929 393143 399745 -13848 3299 7721
50870 393252 399819 -13885 3287 7692
50859 393353 399902 -13821 3249 7691
50877 393463 400006 -13837 3274 7688
50908 393558 400064 -13854 3288 7695
50963 393663 400125 -13891 3289 7714
51066 393750 400196 -13984 3272 7725
51165 393841 400245 -14055 3242 7711
51239 393934 400300 -14079 3202 7701
51287 394046 400399 -14052 3154 7681
51315 394180 400489 -14022 3129 7648
51339 394301 400581 -14042 3087 7615
51366 394418 400673 -14094 3035 7588
51420 394527 400732 -14170 3007 7580
51487 394625 400800 -14217 2966 7561
51560 394732 400876 -14203 2915 7534
51651 394849 400961 -14183 2860 7519
51750 394945 401027 -14186 2811 7499
51857 395006 401067 -14208 2777 7483
51960 395011 401052 -14236 2751 7468
52068 394996 401023 -14238 2706 7452
52181 394960 400989 -14177 2686 7377
52292 394924 400944 -14191 2695 7350
52417 394979 400987 -14229 2695 7300
52547 395066 401027 -14265 2676 7238
52682 395168 401101 -14279 2634 7214
52866 395598 401411 -14265 2565 7226
52994 395492 401308 -14248 2488 7272
53123 395424 401217 -14250 2426 7339
53264 395484 401221 -14303 2384 7405
53363 395420 401171 -14369 2376 7461
53417 395365 401123 -14389 2396 7504
53383 395430 401209 -14438 2395 7555
53209 395439 401215 -14480 2377 7594
52914 395084 400962 -14441 2380 7584
52662 394957 400907 -14410 2369 7566
52476 394870 400853 -14398 2340 7561
52355 394802 400811 -14364 2322 7533
52290 394778 400805 -14303 2323 7491
52249 394727 400751 -14262 2328 7461
52216 394653 400693 -14251 2327 7464
52213 394565 400635 -14228 2331 7478
52259 394533 400592 -14193 2330 7499
52786 395164 401015 -14148 2402 7715
52861 395164 401001 -14136 2414 7720
52960 395304 401092 -14110 2407 7726
53076 395422 401158 -14084 2396 7733
53204 395583 401256 -14060 2392 7735
53334 395677 401303 -14016 2387 7733
53429 395529 401156 -13996 2392 7736
53498 395227 400909 -13991 2416 7746
53583 395069 400763 -13972 2462 7760
53665 394937 400645 -13959 2481 7788
53761 394931 400619 -13932 2475 7801
53874 395034 400678 -13907 2473 7807
53984 395087 400702 -13902 2476 7830
54075 395066 400668 -13913 2490 7844
54181 395071 400677 -13918 2491 7841
54277 395127 400665 -13920 2475 7858
54356 395138 400664 -13909 2458 7895
54378 395175 400709 -13887 2453 7945
54267 395166 400706 -13882 2467 8005
54013 394957 400563 -13896 2471 8037
53051 394299 400095 -13761 2459 7922
53054 394279 400099 -13771 2457 7919
53038 394260 400070 -13763 2461 7936
52997 394176 400005 -13765 2454 7939
52965 394112 399968 -13781 2457 7934
52956 394121 399951 -13818 2475 7932
52969 394131 399977 -13815 2492 7901
53004 394153 399960 -13820 2487 7877
53049 394133 399944 -13808 2496 7975
53101 394149 399931 -13798 2465 7969
53161 394110 399899 -13777 2454 7954
53207 394007 399794 -13780 2447 7946
53269 393946 399755 -13804 2441 7942
53336 393885 399689 -13811 2441 7945
53418 393879 399669 -13805 2426 7964
53505 393874 399656 -13794 2404 7989
53604 393967 399701 -13794 2384 7998
53715 394126 399812 -13820 2375 8048
53817 394200 399853 -13807 2350 8029
53895 394072 399754 -13775 2322 8012
53979 394028 399710 -13743 2302 7990
54059 393998 399674 -13729 2282 7969
54144 393959 399646 -13717 2270 7990
54230 393938 399633 -13709 2272 8033
54329 394002 399644 -13734 2276 8059
54423 394062 399687 -13771 2283 8059
54480 394057 399679 -13820 2313 8047
54428 393990 399639 -13873 2350 8056
54246 393890 399598 -13899 2341 8078
53984 393774 399558 -13919 2322 8087
53740 393795 399577 -13917 2312 8082
53546 393780 399602 -13918 2312 8064
53434 393918 399709 -13929 2343 8041
53388 394059 399813 -13930 2393 8015
53380 394236 399940 -13930 2447 7995
53392 394400 400057 -13938 2492 7978
53436 394604 400210 -13976 2546 7956
53524 394852 400376 -14016 2600 7954
53642 395096 400547 -14016 2632 7927
53759 395328 400726 -13984 2659 7876
53861 395615 400926 -13976 2717 7840
53960 395983 401228 -14023 2808 7801
54060 396355 401500 -14067 2912 7761
54147 396632 401691 -14122 3006 7718
54272 397007 401950 -14169 3097 7658
54450 397606 402394 -14195 3185 7596
54659 398284 402841 -14215 3275 7537
54884 398868 403232 -14324 3355 7444
55102 399300 403480 -14607 3446 7392
55313 399634 403681 -14875 3556 7454
55529 399980 403841 -14939 3637 7517
55734 400181 403954 -14871 3694 7472
55934 400312 403987 -14815 3747 7172
56136 400431 404050 -14773 3819 6620
56329 400527 404099 -14705 3899 6052
56525 400622 404157 -14605 3969 5541
56725 400709 404213 -14490 4057 4975
56913 400771 404242 -14417 4305 4181
57108 400855 404306 -14504 4384 3902
57293 400915 404310 -14610 4478 3638
57311 400673 404116 -14700 4575 3432
57435 400425 403918 -14785 4654 3214
57562 400349 403847 -14868 4719 2986
57682 400256 403774 -14936 4764 2797
57758 400017 403586 -14963 4828 2651
57750 399723 403375 -15006 4867 2602
57599 399398 403154 -15077 4887 2280
57311 398878 402827 -15011 4938 2018
56979 398333 402433 -14978 4964 1932
56694 397847 402090 -15008 4975 1875
56483 397439 401807 -15078 4987 1760
56322 397014 401512 -15161 4983 1752
56188 396543 401132 -15205 4952 1859
56075 396024 400744 -15204 4914 1914
55979 395530 400378 -15197 4901 1877
55931 395164 400098 -15226 4878 1857
55914 394811 399845 -15268 4837 1913
55902 394546 399647 -15321 4803 1984
55869 394327 399496 -15371 4784 2040
55801 394082 399308 -15385 4769 2122
55712 393822 399122 -15412 4728 2218
55624 393619 398982 -15477 4690 2289
55554 393455 398867 -15545 4682 2334
55499 393316 398763 -15582 4666 2392
55460 393120 398628 -15570 4611 2493
55440 393006 398537 -15510 4555 2598
55438 392907 398474 -15411 4537 2651
55435 392798 398391 -15427 4486 2711
55446 392724 398343 -15474 4432 2809
55470 392704 398338 -15506 4376 2914
56167 393081 398454 -15605 4241 3563
56177 393082 398428 -15577 4240 3592
56065 393094 398451 -15508 4219 3637
55821 393040 398420 -15289 4173 3662
55467 392746 398222 -14950 4119 3590
55093 392392 397969 -14944 4167 3415
54761 391959 397646 -14971 4277 3227
54482 391470 397283 -14990 4485 3103
54275 391098 396999 -15009 4732 3105
54100 390692 396681 -15007 4938 3197
53934 390262 396349 -14946 5167 3228
53799 389892 396065 -14909 5435 3244
53710 389594 395818 -14912 5687 3297
53631 389212 395516 -14874 5906 3336
53539 388744 395158 -14867 6064 3344
53406 388222 394768 -14870 6188 3321
53274 387872 394519 -14837 6306 3291
53149 387690 394362 -14838 6390 3290
53007 387346 394109 -14841 6455 3279
52877 387019 393866 -14783 6542 3198
52795 386916 393753 -14718 6633 3140
52724 386773 393640 -14703 6698 3162
52665 386588 393489 -14697 6754 3127
52624 386488 393385 -14628 6921 2939
52585 386268 393222 -14494 6986 2889
52547 385989 393008 -14365 7067 2836
52533 385822 392884 -14249 7130 2877
52502 385536 392699 -14119 7175 3002
52475 385288 392548 -14120 7284 3052
52454 385018 392361 -14202 7447 3032
51304 381486 389684 -14290 7678 2820
50736 380693 389120 -14235 7648 2820
50265 380080 388696 -14233 7631 2857
49899 379464 388232 -14226 7610 2893
49634 379006 387834 -14128 7616 2857
49453 378728 387526 -14032 7653 2799
49323 378530 387246 -13962 7677 2808
49226 378302 386998 -13905 7675 2860
49217 378204 387048 -13937 7676 2901
49270 378127 387214 -13969 7704 2905
53217 390138 397670 -14760 6776 137
53417 390203 397652 -14762 6771 150
53628 390331 397690 -14785 6861 73
53846 390555 397810 -14776 6858 65
53976 390648 397844 -14790 6866 55
53946 390637 397832 -14800 6893 53
53779 390611 397856 -14772 6912 48
53549 390536 397843 -14741 6925 31
53350 390473 397846 -14756 6937 -19
53224 390433 397805 -14758 6929 -88
53181 390441 397839 -14728 6913 -133
53190 390460 397861 -14731 6924 -156
53237 390531 397916 -14690 6956 -180
53318 390666 397987 -14655 7005 -207
53446 390800 398080 -14632 7061 -232
53598 390893 398148 -14605 7136 -267
53744 390988 398237 -14620 7240 -300
53859 391096 398309 -14615 7325 -323
53958 391301 398456 -14600 7400 -349
54038 391403 398527 -14536 7476 -377
54101 391456 398566 -14487 7544 -424
54171 391504 398588 -14445 7590 -497
54238 391483 398585 -14370 7610 -572
54300 391432 398561 -14326 7623 -579
54366 391374 398552 -14321 7630 -550
54423 391313 398544 -14326 7642 -545
54464 391116 398508 -14321 7637 -518
54502 391105 398574 -14371 7609 -487
54741 392205 399306 -14426 7566 -503
55000 392912 399794 -14151 7501 -521
54867 392576 399737 -14608 7751 -629
54742 392637 399785 -14678 7740 -583
54658 392557 399748 -14614 7817 -668
54633 392535 399741 -14581 7888 -717
54654 392637 399802 -14575 7979 -831
54704 392745 399848 -14502 8074 -1021
54788 392757 399848 -14320 8166 -1254
54868 392676 399778 -14140 8251 -1421
54942 392627 399730 -14048 8304 -1465
54990 392598 399685 -14000 8342 -1536
55087 389675 397315 -12101 10022 -4280
55114 389311 397029 -11842 10108 -4627
55149 388839 396689 -11648 10165 -5008
55191 388364 396282 -11499 10170 -5330
55221 387771 395869 -11335 10145 -5655
55248 387184 395437 -11106 10120 -5983
55274 386631 395031 -10891 10127 -6237
55276 385945 394558 -10803 10083 -6421
55232 385279 394110 -10721 10008 -6709
55044 384359 393661 -10520 9967 -7113
52318 378900 391956 -8986 9779 -9032
52269 378850 391982 -9314 10015 -9135
52170 378683 391897 -9414 10086 -9008
52045 378530 391837 -9440 10104 -8784
51924 378546 391871 -9395 10096 -8634
51825 378658 392009 -9267 10109 -8572
51754 378761 392105 -9147 10148 -8522
51715 378850 392196 -9127 10193 -8467
51702 378942 392281 -9189 10234 -8421
51705 379066 392379 -9270 10277 -8373
51723 379212 392500 -9231 10341 -8189
51741 379279 392547 -9290 10356 -8156
51776 379297 392550 -9413 10366 -8152
51803 379190 392475 -9460 10376 -8138
51848 379204 392486 -9449 10407 -8096
51908 379245 392500 -9426 10469 -8043
51996 379356 392591 -9440 10524 -7964
52078 379418 392627 -9451 10536 -7848
52156 379495 392682 -9441 10537 -7678
52228 379588 392729 -9429 10573 -7469
52233 379488 392659 -9431 10642 -7288
52103 379343 392553 -9476 10731 -7147
51803 379109 392386 -9548 10815 -7033
51413 378915 392294 -9590 10881 -6930
51033 378866 392283 -9577 10960 -6865
50721 378755 392209 -9514 11064 -6833
50494 378545 392003 -9505 11211 -6810
50374 378491 391952 -9487 11350 -6786
50317 378632 392076 -9395 11410 -6741
50280 378802 392224 -9320 11415 -6673
50883 381777 394355 -10280 11606 -5041
50990 381998 394515 -10314 11657 -5038
51112 382232 394669 -10342 11736 -4998
51256 382468 394844 -10367 11794 -4940
51411 382683 394982 -10378 11820 -4919
51565 382880 395123 -10364 11852 -4941
51726 383082 395252 -10331 11888 -4964
51897 383244 395342 -10301 11891 -4976
52076 383390 395440 -10226 11879 -4995
52258 383582 395579 -10074 11875 -5028
52442 383762 395698 -9774 11835 -5186
52626 383942 395795 -9659 11814 -5246
52795 384036 395847 -9617 11802 -5277
52962 384128 395886 -9633 11791 -5310
53140 384236 395958 -9643 11769 -5331
53309 384325 396011 -9643 11749 -5313
53457 384428 396068 -9673 11744 -5297
53532 384431 396082 -9724 11724 -5293
53431 384341 396057 -9812 11704 -5316
53138 384188 396008 -9910 11682 -5353
52748 384054 395990 -9970 11629 -5358
52367 383904 395924 -10058 11573 -5315
52065 383776 395857 -10139 11506 -5228
51864 383719 395859 -10178 11459 -5153
51742 383703 395887 -10206 11457 -5128
51670 383715 395912 -10243 11464 -5155
51625 383771 395997 -10274 11442 -5170
51599 383768 396010 -10262 11403 -5124
51615 383703 395974 -10269 11386 -5071
51660 383697 395992 -10311 11396 -5054
51698 383719 396023 -10361 11423 -5067
51706 383703 396019 -10436 11425 -5052
51690 383712 396072 -10499 11386 -5010
51653 383701 396113 -10513 11323 -5014
51620 383714 396133 -10527 11271 -5066
51606 383722 396131 -10528 11236 -5094
51624 383749 396160 -10523 11197 -5090
51664 383783 396179 -10525 11132 -5098
51727 383837 396243 -10505 11058 -5138
51805 383896 396293 -10478 11002 -5182
51908 383947 396312 -10361 11423 -5067
52023 384023 396348 -10436 11425 -5052
52152 384159 396448 -10499 11386 -5010
52274 384194 396468 -10513 11323 -5014
52415 384266 396520 -10527 11271 -5066
52564 384362 396589 -10528 11236 -5094
52712 384426 396648 -10523 11197 -5090
52860 384505 396693 -10525 11132 -5098
53010 384588 396733 -10505 11058 -5138
53154 384643 396771 -10478 11002 -5182
53168 384611 396808 -10637 10702 -5155
52886 384577 396785 -10630 10714 -5176
52690 384525 396764 -10660 10725 -5204
52590 384491 396763 -10685 10696 -5190
52540 384517 396790 -10713 10674 -5153
52518 384472 396758 -10757 10684 -5156
52522 384414 396704 -10808 10726 -5184
52577 384406 396707 -10848 10753 -5197
52667 384527 396782 -10819 10717 -5164
52737 384547 396800 -10766 10690 -5190
53047 384704 396916 -10940 10587 -5147
53144 384700 396907 -10924 10550 -5168
53251 384740 396918 -10927 10542 -5178
53373 384822 396993 -10961 10550 -5166
53506 384908 397048 -11051 10563 -5120
53633 384954 397069 -11148 10540 -5066
53764 385026 397119 -11164 10495 -5028
53894 385093 397154 -11054 10474 -4993
54027 385128 397192 -10962 10490 -5004
54160 385207 397203 -10984 10521 -5054
53158 384725 396970 -10930 10560 -5217
53127 384750 396978 -10899 10507 -5201
53130 384765 396997 -10850 10489 -5194
53174 384828 397038 -10836 10512 -5191
53260 384912 397082 -10867 10538 -5181
53365 384943 397067 -10920 10541 -5169
53449 384930 397066 -10966 10541 -5171
53501 384981 397097 -11000 10554 -5168
53512 384945 397079 -10948 10548 -5130
53501 384917 397057 -10851 10602 -5124
56047 385473 397357 -10409 11673 -5593
56173 385658 397490 -10409 11697 -5662
56154 385751 397543 -10430 11674 -5695
55988 385820 397627 -10470 11601 -5721
55740 385903 397672 -10529 11430 -5784
55493 385924 397676 -10634 11191 -5913
55365 386212 397934 -10810 10912 -6004
55340 386746 398314 -11080 10632 -6057
55386 387344 398693 -11316 10354 -6059
55472 387677 398902 -11631 9598 -5794
55574 387484 398956 -11783 9148 -5650
55760 387713 399174 -12088 8752 -5587
55990 388180 399497 -12461 8486 -5550
56222 388641 399774 -12720 8333 -5430
56440 389092 400064 -12807 8269 -5303
56622 389512 400295 -12821 8299 -5341
56751 389831 400488 -12894 8446 -5622
56845 390143 400677 -13067 8668 -5957
56919 390354 400818 -13200 9012 -5722
56991 390515 400908 -13169 8832 -5482
57089 390737 401036 -13069 8539 -5215
56977 389053 399831 -12950 8148 -5078
56389 384303 396859 -12851 7600 -5106
56080 382037 395411 -12787 7039 -5292
56181 383275 396218 -12758 6628 -5574
57209 390955 401247 -12766 6320 -5809
58412 398420 405816 -12798 6078 -5963
59391 402397 408297 -12886 5948 -6061
60124 404098 409467 -13175 5869 -5915
60577 404505 409453 -13365 6054 -5940
60607 403385 408483 -13306 6396 -6066
60659 403235 408273 -13174 6719 -5931
60608 402744 407854 -13240 6949 -5890
60175 400784 406241 -13374 6953 -5840
59733 399156 404479 -13417 6916 -5641
59472 398322 403331 -13540 6942 -5465
59183 396970 401948 -13662 6956 -5323
58888 395568 400457 -13739 6805 -5166
58824 395879 400371 -13776 6689 -5096
58898 398266 401569 -13834 6687 -5004
57977 395130 400353 -15246 3422 -1847
58265 397841 402346 -15510 2988 -1107
58239 398090 402509 -15846 2653 -417
58192 398137 402526 -16216 2761 73
58082 397985 402380 -16281 3620 710
57947 397836 402257 -16645 4193 1077
57792 397632 402109 -16501 3913 1651
57641 397494 401971 -16124 3713 2128
57506 397303 401831 -16362 3649 2158
57385 397107 401656 -16339 3574 2415
57305 396978 401541 -16281 3505 2733
57265 396951 401476 -16171 3433 3039
57249 396899 401427 -16024 3356 3259
57227 396755 401298 -15938 3308 3394
57203 396566 401134 -15926 3260 3438
57199 396481 401029 -15947 3154 3427
57214 396406 400957 -15985 3001 3422
57237 396318 400885 -16022 2824 3336
57263 396217 400785 -16028 2599 3144
57290 396111 400679 -16013 2339 3037
57333 396098 400637 -15940 2088 3092
57370 396083 400607 -15833 1844 3174
57428 396295 400731 -15763 1605 3140
57627 396724 401049 -15740 1351 3070
57843 397474 401679 -15771 1134 3132
57916 397530 401679 -15837 1009 3344
57947 397078 401253 -15963 968 3667
57956 396789 401034 -16068 998 4016
58015 396911 401105 -16050 1128 4232
58020 397029 401197 -16043 1352 4332
57794 396918 401160 -15958 1606 4351
57516 397012 401264 -16196 1947 4286
57155 396708 401021 -16413 2264 4144
56881 396734 401063 -16282 2537 3932
56619 396677 401035 -16276 2862 3721
56442 396581 400937 -16215 3104 3544
56281 396186 400608 -16175 3237 3406
56141 395892 400404 -16270 3313 3299
56015 395758 400324 -16042 3300 3094
55905 395607 400246 -16035 3346 3041
55856 395586 400234 -16096 3439 2903
55865 395680 400324 -16062 3500 2684
55922 395890 400472 -15951 3556 2433
55941 395913 400489 -16030 3626 2255
55900 395820 400420 -16111 3666 2104
55824 395737 400358 -16106 3698 1942
55757 395766 400401 -16062 3726 1798
55775 396084 400636 -16041 3778 1483
55818 396277 400772 -16051 3865 1319
55845 396288 400770 -16060 3956 1129
55870 396290 400748 -16042 4046 864
55907 396327 400750 -15996 4140 555
55970 396392 400795 -15872 4268 223
56059 396550 400915 -15712 4439 -111
56151 396703 401010 -15638 4641 -437
56248 396788 401053 -15619 4866 -742
56340 396808 401038 -15281 5263 -1305
56432 396817 401031 -15058 5403 -1588
56537 396944 401114 -14932 5534 -1860
56637 396995 401136 -14864 5659 -2068
56737 396992 401099 -14807 5790 -2263
56853 397098 401158 -14727 5899 -2483
56979 397215 401247 -14680 6022 -2734
57101 397302 401272 -14587 6141 -2997
57202 397288 401236 -14371 6220 -3283
57289 397327 401252 -14215 6300 -3607
57320 397400 401319 -14211 6386 -3905
57216 397449 401386 -14292 6443 -4116
56989 397470 401451 -14256 6483 -4255
56683 397398 401416 -14029 6564 -4348
56355 397221 401310 -13807 6711 -4412
56096 397090 401239 -13726 6915 -4490
55935 397156 401310 -13704 7126 -4602
55849 397211 401341 -13673 7298 -4725
55807 397214 401352 -13648 7426 -4860
55782 397186 401339 -13646 7535 -5022
55800 397213 401353 -13586 7604 -5187
55854 397201 401361 -13475 7643 -5273
55912 397165 401339 -13395 7687 -5294
55932 397069 401257 -13341 7759 -5346
55916 396988 401200 -13332 7858 -5408
55870 396922 401157 -13304 7945 -5370
55821 396925 401167 -13329 8012 -5283
55774 396959 401202 -13462 8058 -5252
55744 396978 401211 -13661 8079 -5280
55736 397049 401263 -13862 8075 -5301
55760 397109 401327 -13899 7873 -5018
55789 397142 401347 -13879 7760 -4826
55832 397169 401349 -13853 7651 -4721
55891 397213 401380 -13826 7600 -4742
56895 397598 401602 -13537 7482 -4576
56995 397621 401612 -13508 7449 -4526
57068 397631 401624 -13522 7423 -4493
57015 397553 401573 -13577 7424 -4481
56802 397368 401466 -13657 7429 -4501
56461 397165 401352 -13745 7414 -4531
56078 396977 401257 -13852 7401 -4538
55743 396829 401156 -14004 7365 -4520
55502 396705 401107 -14157 7300 -4510
55345 396588 401016 -14225 7206 -4513
55982 396255 400732 -13420 7614 -5277
56090 396293 400758 -13373 7616 -5291
56198 396332 400778 -13346 7604 -5291
56305 396359 400787 -13301 7596 -5289
56416 396407 400816 -13265 7611 -5238
56527 396459 400834 -13243 7657 -5183
56639 396534 400855 -13206 7717 -5125
56710 396562 400883 -13175 7767 -5095
56662 396510 400854 -13138 7824 -5101
56435 396363 400778 -13116 7899 -5127
56076 396194 400686 -13148 7968 -5153
55695 396059 400619 -13208 8019 -5159
55373 395971 400566 -13261 8050 -5149
55146 395950 400570 -13290 8055 -5134
55017 395959 400591 -13299 8034 -5133
54957 395973 400621 -13284 8016 -5106
54941 396026 400647 -13258 8013 -5045
54966 396114 400707 -13233 8001 -5004
55024 396213 400770 -13224 7995 -4999
55095 396312 400835 -13208 7987 -4990
55148 396379 400866 -13189 7970 -4949
55160 396387 400891 -13200 7958 -4900
55122 396335 400839 -13215 7948 -4884
55054 396267 400807 -13224 7939 -4893
54994 396272 400822 -13247 7912 -4891
54949 396278 400826 -13267 7913 -4830
54932 396273 400823 -13277 7946 -4733
54927 396228 400789 -13311 7986 -4690
54942 396191 400764 -13338 8035 -4705
54975 396185 400769 -13346 8069 -4714
