2025-10-08 21:19:25    绿光---红外光---红光---X轴---Y轴---Z轴
35254 270778 247446 -5650 14635 -4824
35269 270771 247398 -5680 14600 -4847
35292 270797 247414 -5712 14604 -4859
35322 270879 247509 -5688 14585 -4863
35353 270942 247566 -5644 14570 -4865
35368 270903 247494 -5663 14609 -4848
35379 270856 247436 -5641 14606 -4836
35376 270776 247389 -5616 14600 -4860
35339 270673 247271 -5630 14599 -4892
35284 270591 247156 -5573 14574 -4919
35230 270537 247153 -5575 14581 -4903
35184 270511 247139 -5670 14640 -4875
35132 270383 246994 -5690 14621 -4876
35087 270286 246844 -5643 14549 -4849
35054 270237 246775 -5627 14558 -4833
35034 270236 246769 -5635 14581 -4868
35026 270253 246791 -5539 14583 -4924
35019 270239 246747 -5508 14586 -4934
35029 270271 246801 -5623 14640 -4920
35037 270268 246796 -5550 14614 -4975
35037 270240 246743 -5586 14573 -4951
35037 270238 246707 -5604 14579 -4923
35040 270245 246715 -5593 14580 -4909
35038 270259 246732 -5589 14583 -4921
35039 270252 246696 -5516 14591 -4900
35041 270265 246698 -5556 14615 -4891
35052 270314 246751 -5638 14591 -4911
35062 270352 246790 -5493 14566 -4935
35072 270350 246751 -5404 14604 -4956
35087 270342 246720 -5496 14652 -4937
35101 270379 246737 -5590 14631 -4901
35120 270405 246723 -5611 14579 -4893
35134 270403 246667 -5571 14582 -4920
35154 270404 246629 -5565 14606 -4934
35174 270431 246623 -5605 14604 -4929
35196 270468 246610 -5621 14585 -4909
35219 270505 246613 -5573 14607 -4893
35246 270578 246648 -5524 14635 -4892
35264 270573 246583 -5533 14654 -4912
35285 270608 246578 -5532 14649 -4920
35310 270620 246564 -5526 14639 -4910
35328 270616 246535 -5551 14655 -4899
35333 270597 246516 -5571 14644 -4892
35309 270521 246443 -5580 14594 -4889
35261 270445 246362 -5562 14569 -4891
35212 270459 246399 -5561 14584 -4870
35159 270443 246414 -5581 14605 -4889
35107 270414 246381 -5588 14592 -4915
35071 270413 246390 -5590 14588 -4875
35047 270421 246408 -5544 14625 -4899
35024 270422 246401 -5463 14630 -4946
35010 270432 246421 -5453 14638 -4976
35007 270471 246448 -5598 14665 -4940
35018 270533 246537 -5585 14649 -4925
35024 270524 246525 -5479 14602 -4944
35029 270498 246486 -5479 14606 -4939
35034 270518 246497 -5553 14595 -4902
35037 270528 246490 -5562 14544 -4895
35031 270497 246446 -5484 14637 -4929
35037 270528 246487 -5513 14615 -4928
35042 270551 246506 -5578 14582 -4929
35048 270557 246493 -5467 14583 -4940
35057 270577 246502 -5415 14622 -4966
35068 270591 246502 -5496 14652 -4958
35080 270608 246511 -5544 14630 -4962
35093 270624 246505 -5560 14608 -4958
35106 270621 246486 -5514 14607 -4953
35126 270641 246491 -5423 14594 -4955
35148 270696 246527 -5525 14602 -4925
35169 270726 246543 -5570 14611 -4922
35194 270764 246572 -5540 14608 -4931
35216 270782 246586 -5511 14602 -4937
35242 270803 246582 -5522 14640 -4955
35262 270790 246551 -5557 14651 -4962
35288 270854 246600 -5590 14619 -4951
35315 270909 246644 -5594 14589 -4960
35346 270962 246709 -5570 14597 -4994
35369 270923 246640 -5563 14619 -5019
35386 270884 246588 -5578 14579 -5026
35396 270860 246576 -5585 14544 -5010
35371 270744 246498 -5641 14589 -4981
35326 270702 246472 -5695 14618 -5004
35269 270607 246391 -5676 14568 -5008
35191 270381 246103 -5603 14525 -4957
35136 270305 246003 -5589 14532 -4933
35088 270240 245945 -5595 14545 -4968
35058 270234 245951 -5491 14562 -5036
35030 270223 245956 -5500 14634 -5053
35027 270310 246069 -5585 14648 -5045
35033 270386 246181 -5559 14590 -5073
35036 270392 246139 -5532 14564 -5050
35039 270339 246075 -5533 14583 -5019
35052 270388 246098 -5528 14569 -5018
35064 270472 246167 -5590 14527 -4997
35072 270511 246208 -5613 14545 -5019
35070 270508 246200 -5500 14537 -5008
35060 270441 246093 -5540 14527 -4965
35042 270339 245932 -5605 14565 -5012
35040 270336 245898 -5458 14575 -5053
35033 270286 245789 -5440 14604 -5047
35044 270325 245831 -5558 14629 -5012
35060 270401 245929 -5667 14579 -4947
35070 270380 245905 -5691 14557 -4920
35072 270306 245817 -5560 14572 -4968
35084 270250 245769 -5461 14588 -5004
35077 270074 245535 -5494 14604 -4982
35085 270024 245466 -5564 14623 -4968
35103 270052 245504 -5520 14626 -4993
35118 270048 245485 -5518 14585 -4970
35131 270033 245458 -5547 14596 -4965
35145 269997 245395 -5513 14576 -4978
35149 269907 245227 -5385 14592 -5007
35165 269898 245193 -5376 14650 -5032
35185 269916 245211 -5455 14605 -5027
35196 269886 245177 -5478 14550 -5019
35203 269816 245116 -5431 14575 -5050
35175 269547 244822 -5420 14598 -5055
35134 269408 244697 -5484 14646 -5055
35083 269344 244651 -5530 14656 -5037
35023 269243 244588 -5506 14606 -4976
34960 269143 244503 -5471 14609 -4929
34911 269074 244423 -5469 14590 -4952
34880 269071 244429 -5365 14623 -5045
34854 269069 244434 -5281 14684 -5104
34844 269122 244507 -5365 14715 -5080
34849 269223 244623 -5334 14674 -5092
34853 269257 244638 -5200 14652 -5138
34856 269230 244592 -5206 14654 -5137
34858 269192 244531 -5238 14603 -5106
34865 269214 244540 -5281 14604 -5089
34865 269234 244554 -5269 14608 -5064
34860 269195 244495 -5320 14599 -5047
34849 269141 244410 -5353 14600 -5079
34843 269099 244357 -5247 14593 -5123
34837 269081 244335 -5279 14612 -5113
34835 269043 244284 -5371 14637 -5088
34839 269056 244270 -5349 14645 -5106
34840 269040 244236 -5302 14632 -5132
34840 269014 244179 -5289 14642 -5145
34852 269028 244185 -5322 14646 -5144
34874 269099 244256 -5320 14621 -5139
34890 269135 244285 -5278 14618 -5142
34904 269155 244275 -5294 14606 -5154
34922 269181 244290 -5330 14591 -5159
34940 269185 244275 -5355 14610 -5149
34952 269175 244236 -5371 14609 -5142
34965 269186 244201 -5369 14601 -5154
34977 269150 244120 -5375 14606 -5149
35000 269171 244125 -5407 14586 -5137
35020 269202 244126 -5435 14563 -5143
35032 269179 244054 -5442 14570 -5130
35034 269171 244048 -5482 14603 -5117
35014 269130 244027 -5526 14617 -5144
34966 269084 243967 -5531 14583 -5156
34912 269028 243912 -5508 14541 -5107
34859 268994 243887 -5476 14545 -5067
34811 268972 243862 -5436 14597 -5127
34775 268976 243873 -5344 14628 -5157
34746 268979 243868 -5454 14645 -5100
34725 268989 243866 -5498 14620 -5056
34716 269038 243916 -5435 14582 -5046
34723 269132 244030 -5407 14578 -5049
34736 269199 244079 -5425 14589 -5036
34762 269336 244237 -5493 14570 -5019
34773 269404 244279 -5522 14568 -5034
34770 269439 244272 -5445 14630 -5030
34780 269582 244416 -5456 14739 -4984
34788 269686 244530 -5505 14764 -4992
34790 269783 244596 -5425 14646 -5006
34799 269929 244740 -5419 14566 -4966
34982 270651 245315 -5417 14643 -4935
35016 270802 245453 -5427 14654 -4931
35052 270945 245582 -5446 14727 -4924
35085 271104 245704 -5447 14740 -4937
35132 271325 245897 -5415 14642 -4941
35169 271468 246033 -5408 14641 -4946
35198 271514 246043 -5379 14638 -4945
35222 271552 246056 -5397 14681 -4924
35230 271550 246044 -5433 14724 -4909
35230 271630 246211 -5418 14647 -4884
35193 271626 246214 -5380 14581 -4833
35135 271578 246190 -5399 14599 -4803
35078 271506 246175 -5467 14623 -4837
35014 271416 246116 -5358 14633 -4893
34962 271374 246093 -5276 14662 -4928
34923 271356 246109 -5354 14694 -4938
34901 271381 246179 -5386 14688 -4935
34881 271398 246206 -5346 14621 -4947
34878 271441 246278 -5335 14631 -4955
34870 271405 246228 -5357 14645 -4943
34875 271400 246228 -5359 14600 -4952
34878 271358 246185 -5409 14591 -4978
34886 271394 246228 -5410 14629 -4952
34881 271381 246202 -5407 14636 -4925
34873 271306 246120 -5465 14618 -4908
34864 271293 246107 -5394 14636 -4929
34864 271295 246110 -5380 14662 -4963
34856 271261 246073 -5493 14680 -4963
34862 271294 246121 -5536 14676 -4978
34871 271334 246169 -5527 14653 -4978
34878 271327 246160 -5473 14635 -4984
34885 271314 246131 -5431 14632 -4994
34894 271306 246126 -5457 14631 -5010
34894 271161 245927 -5484 14607 -5017
34903 271132 245854 -5472 14581 -5008
34915 271108 245828 -5430 14602 -5020
34932 271130 245854 -5418 14629 -5038
34949 271116 245814 -5431 14597 -5022
34959 271081 245762 -5468 14593 -5025
34983 271134 245824 -5516 14608 -5036
34998 271074 245721 -5521 14606 -5015
35003 271034 245623 -5503 14597 -5014
35019 271005 245567 -5494 14565 -5027
35041 271025 245588 -5530 14577 -5025
35061 271010 245552 -5516 14569 -5032
35067 270951 245460 -5526 14629 -5025
35064 270896 245438 -5554 14653 -4996
35037 270847 245433 -5515 14609 -4983
34985 270807 245410 -5479 14593 -4958
34925 270759 245399 -5529 14586 -4942
34860 270692 245357 -5506 14605 -4979
34806 270642 245323 -5423 14613 -5012
34758 270613 245303 -5522 14645 -4991
34724 270603 245308 -5578 14638 -4974
34700 270589 245313 -5415 14580 -5041
34687 270618 245350 -5442 14571 -5058
34677 270579 245300 -5500 14541 -5039
34665 270515 245176 -5539 14538 -5040
34664 270455 245077 -5562 14584 -5048
34663 270437 245051 -5497 14551 -5012
34670 270508 245128 -5518 14574 -4949
34663 270495 245088 -5557 14642 -4951
34652 270473 245048 -5488 14642 -4987
34637 270434 244999 -5526 14655 -4972
34628 270411 244946 -5560 14610 -4956
34617 270394 244924 -5556 14601 -4942
34614 270394 244896 -5548 14596 -4946
34611 270413 244884 -5540 14581 -4942
34613 270379 244847 -5584 14603 -4914
34613 270346 244765 -5609 14589 -4909
34614 270336 244752 -5591 14580 -4922
34623 270353 244737 -5571 14600 -4924
34633 270317 244689 -5554 14605 -4909
34641 270287 244620 -5550 14621 -4898
34658 270292 244615 -5541 14645 -4907
34674 270295 244627 -5535 14614 -4901
34687 270272 244581 -5548 14583 -4898
34700 270282 244557 -5576 14585 -4910
34717 270293 244550 -5598 14568 -4906
34736 270300 244557 -5586 14556 -4907
34758 270282 244516 -5616 14589 -4899
34762 270196 244390 -5637 14629 -4928
34760 270133 244325 -5583 14595 -4945
34734 270036 244245 -5550 14579 -4912
34676 269905 244093 -5527 14631 -4906
34619 269859 244139 -5569 14639 -4918
34580 269879 244312 -5551 14623 -4942
34525 269693 244228 -5440 14612 -4957
34454 269352 243939 -5482 14618 -4940
34385 268989 243542 -5484 14548 -4929
34359 269029 243502 -5575 14435 -4874
34415 269731 244244 -5766 14512 -4852
34499 270730 245285 -5810 14703 -5011
34639 272230 246727 -5849 14900 -5207
34767 273521 247794 -5840 15298 -5050
34701 273335 246901 -5504 15157 -4842
33767 268204 239518 -5275 15185 -4713
31066 255759 223267 -5006 15175 -4751
28769 245361 210818 -4944 14920 -4859
28586 244152 210771 -5045 14785 -5091
29272 247529 215165 -5101 14920 -5421
29512 249162 216761 -5154 14903 -5536
29686 250516 218078 -4848 14483 -5171
29709 250953 218354 -4538 13779 -5128
29691 251184 218434 -4496 14133 -4937
29543 250725 217586 -4293 14550 -4872
29238 249350 215794 -4404 14721 -4933
28943 247873 214102 -4466 14894 -4811
28854 247428 213471 -4270 14986 -4966
28768 247183 213054 -4174 14917 -5232
28723 247031 212779 -4476 14872 -5485
28671 246843 212642 -4865 14826 -5580
28782 247554 213505 -4832 14806 -5653
28920 248345 214425 -5287 14609 -5813
29035 248923 215141 -5568 14476 -6068
29060 248880 215179 -5393 14471 -6201
28974 248129 214585 -5179 14519 -6047
29106 248407 215602 -5214 14510 -5846
29483 249514 217711 -5226 14387 -5448
29542 249064 217988 -4953 14172 -4965
29570 248424 218182 -4766 13955 -4803
29502 247632 218056 -4730 13765 -4789
29611 248205 219263 -4739 13775 -5003
29662 248670 220133 -4857 14122 -5316
29772 249586 221490 -5080 14594 -5802
29909 250591 222913 -5451 15040 -6312
30097 251901 224616 -5749 15213 -6354
30263 253071 226042 -5957 15000 -6280
30406 254083 227200 -6086 14651 -6233
30538 254951 228164 -5976 14483 -6110
30675 255859 229144 -5727 14444 -5889
30818 256676 230024 -5733 14411 -5774
30935 257324 230714 -5864 14373 -5722
31037 257895 231297 -5776 14382 -5668
31087 258237 231611 -5740 14405 -5618
31181 258872 232269 -5855 14373 -5535
31235 259251 232575 -5881 14354 -5501
31321 259864 233164 -5826 14322 -5445
31417 260476 233771 -5801 14332 -5416
31505 261060 234346 -5814 14384 -5406
31614 261713 234991 -5856 14393 -5366
31693 262198 235407 -5901 14393 -5345
31799 262816 236003 -5834 14384 -5347
31873 263185 236324 -5807 14407 -5315
31958 263619 236716 -5892 14423 -5249
32039 264022 237066 -5931 14414 -5220
32129 264488 237497 -5943 14410 -5216
32220 264971 237903 -5965 14397 -5201
32297 265302 238181 -5954 14405 -5170
32348 265435 238234 -5951 14411 -5131
32425 265807 238572 -5994 14401 -5119
32501 266112 238849 -5988 14397 -5123
32565 266341 239051 -5861 14411 -5062
32596 266448 239131 -5937 14398 -5039
32578 266342 238969 -5950 14397 -5061
32547 266355 238972 -5887 14444 -5112
32508 266358 238957 -5929 14496 -5105
32466 266357 238951 -5984 14476 -5080
32424 266381 238953 -5955 14450 -5082
32402 266447 239002 -5922 14435 -5081
32397 266545 239109 -5924 14436 -5059
32399 266636 239222 -5914 14446 -5037
32417 266837 239445 -5906 14470 -5045
32445 267010 239635 -5905 14495 -5015
32489 267218 239884 -5928 14481 -4989
32526 267347 240042 -5987 14447 -4947
32550 267420 240087 -5878 14438 -4937
32568 267481 240122 -5746 14459 -4971
32583 267561 240199 -5817 14475 -4932
32604 267670 240283 -5908 14474 -4877
32623 267783 240370 -5928 14460 -4847
32642 267905 240463 -5865 14478 -4863
32662 267987 240515 -5790 14520 -4874
32688 268116 240623 -5817 14514 -4857
32716 268242 240724 -5891 14497 -4823
32742 268296 240782 -5922 14497 -4794
32771 268330 240802 -5908 14492 -4798
32796 268346 240808 -5908 14485 -4792
32824 268377 240842 -5924 14502 -4775
32850 268409 240876 -5950 14517 -4760
32875 268409 240866 -5953 14499 -4762
32895 268398 240811 -5892 14500 -4785
32916 268341 240757 -5867 14541 -4795
32953 268414 240842 -5911 14539 -4787
32981 268362 240802 -5937 14519 -4745
33000 268310 240752 -5880 14514 -4716
33009 268256 240736 -5871 14488 -4743
32978 268157 240683 -5948 14480 -4768
32930 268079 240653 -5889 14487 -4786
32875 267984 240622 -5853 14524 -4799
32812 267846 240518 -5935 14553 -4804
32761 267761 240457 -5966 14512 -4829
32724 267758 240497 -5928 14514 -4850
32699 267707 240442 -5859 14555 -4834
32675 267631 240367 -5805 14525 -4816
32665 267651 240401 -5842 14482 -4802
32658 267564 240319 -5931 14489 -4790
32661 267519 240229 -5903 14483 -4755
32660 267375 240088 -5888 14507 -4755
32665 267321 240030 -5918 14549 -4775
32660 267266 239940 -5852 14542 -4779
32652 267179 239827 -5869 14517 -4763
32643 267097 239728 -5868 14563 -4755
32628 266964 239568 -5879 14533 -4748
32619 266842 239430 -5891 14523 -4738
32612 266806 239365 -5904 14526 -4729
32625 266893 239448 -5913 14517 -4709
32636 266895 239460 -5927 14531 -4677
32651 266925 239480 -5917 14534 -4679
32663 266904 239446 -5906 14510 -4689
32681 266932 239466 -5909 14525 -4691
32695 266903 239419 -5827 14551 -4746
32711 266904 239401 -5877 14534 -4755
32736 266949 239446 -5932 14498 -4735
32757 266931 239421 -5937 14481 -4719
32777 266939 239407 -5947 14501 -4712
32795 266927 239369 -5964 14522 -4706
32812 266907 239344 -5963 14506 -4711
32841 266951 239395 -5954 14492 -4688
32832 266713 239058 -5923 14466 -4680
32830 266634 238920 -5918 14520 -4718
32808 266500 238770 -5879 14593 -4774
32769 266440 238733 -5867 14580 -4785
32721 266462 238811 -5943 14579 -4747
32660 266382 238729 -5949 14546 -4733
32598 266270 238614 -5903 14501 -4741
32553 266243 238588 -5889 14510 -4734
32526 266276 238628 -5904 14514 -4703
32482 266090 238373 -5939 14482 -4706
32465 266103 238394 -5970 14494 -4715
32462 266096 238370 -5887 14509 -4659
32455 266065 238295 -5850 14537 -4644
32460 266037 238258 -5926 14543 -4660
32463 266011 238220 -5863 14518 -4695
32468 266042 238229 -5851 14523 -4698
32467 266044 238218 -5934 14516 -4668
32465 266052 238237 -5963 14514 -4665
32463 266058 238245 -5958 14506 -4648
32463 266074 238263 -5921 14491 -4662
32472 266131 238322 -5920 14500 -4659
32484 266173 238367 -5950 14515 -4660
32497 266213 238427 -5936 14554 -4692
32499 266173 238357 -5916 14556 -4691
32508 266155 238331 -5934 14521 -4659
32523 266155 238325 -5932 14516 -4636
32537 266146 238314 -5921 14514 -4634
32552 266120 238261 -5934 14511 -4650
32570 266138 238283 -5965 14505 -4675
32586 266084 238208 -5992 14481 -4683
32603 266056 238152 -5986 14470 -4683
32618 266038 238132 -5977 14495 -4690
32628 265959 238019 -5859 14525 -4768
32651 265956 237994 -5924 14498 -4719
32678 266019 238052 -5968 14489 -4658
32682 265903 237891 -6000 14463 -4656
32667 265740 237698 -6004 14502 -4716
32637 265639 237630 -5931 14542 -4773
32591 265613 237633 -5935 14524 -4784
32528 265517 237558 -5964 14510 -4775
32468 265457 237511 -5931 14504 -4769
32424 265444 237529 -5977 14495 -4690
32384 265417 237477 -5859 14525 -4768
32353 265354 237431 -5924 14498 -4719
32336 265361 237444 -5968 14489 -4658
32332 265410 237508 -6000 14463 -4656
32329 265379 237462 -6004 14502 -4716
32338 265354 237445 -5931 14542 -4773
32334 265233 237304 -5935 14524 -4784
32326 265123 237143 -5964 14510 -4775
32320 265099 237102 -5931 14504 -4769
32318 265063 237083 -5887 14490 -4779
32295 264919 236910 -5944 14470 -4770
32277 264800 236742 -5986 14472 -4778
32266 264778 236718 -5955 14477 -4751
32265 264753 236663 -5952 14492 -4725
32257 264655 236546 -5984 14495 -4728
32249 264540 236405 -5875 14476 -4764
32246 264435 236313 -5856 14488 -4776
32245 264338 236190 -5974 14513 -4742
32246 264265 236096 -5966 14500 -4753
32264 264284 236123 -5924 14476 -4762
32280 264255 236077 -5918 14492 -4765
32285 264151 235918 -5931 14499 -4752
32296 264107 235863 -5972 14479 -4730
32312 264096 235821 -5988 14475 -4725
32333 264118 235826 -5972 14491 -4728
32354 264144 235832 -5947 14489 -4742
32357 264039 235658 -5933 14479 -4753
32391 264160 235823 -5953 14486 -4747
32420 264223 235912 -5948 14498 -4751
32013 263636 235372 -5909 14449 -4789
32016 263676 235424 -5900 14479 -4855
32027 263725 235471 -5898 14530 -4907
32042 263743 235509 -5951 14545 -4895
32046 263701 235458 -5947 14504 -4862
32046 263684 235424 -5896 14467 -4852
32041 263658 235373 -5885 14463 -4861
32054 263737 235488 -5914 14467 -4849
32045 263657 235388 -5947 14449 -4817
32033 263577 235255 -5951 14453 -4832
32032 263583 235249 -5868 14486 -4834
32044 263639 235318 -5866 14494 -4810
32047 263608 235245 -5940 14465 -4783
32049 263562 235183 -5840 14465 -4802
32067 263599 235217 -5816 14492 -4832
32077 263558 235149 -5925 14495 -4810
32078 263483 235014 -5988 14489 -4813
32094 263469 235008 -5987 14460 -4831
32112 263457 234983 -5928 14434 -4866
32118 263351 234842 -5926 14448 -4882
32117 263246 234676 -5968 14464 -4880
32128 263224 234614 -5979 14445 -4876
32142 263178 234546 -5987 14463 -4900
32169 263288 234666 -5994 14451 -4906
32206 263417 234810 -6003 14430 -4888
32212 263318 234682 -6015 14441 -4864
32218 263225 234574 -6010 14437 -4868
32225 263142 234434 -5984 14411 -4889
32216 262980 234222 -5969 14418 -4880
32208 262876 234103 -5939 14483 -4891
32199 262919 234234 -5985 14471 -4850
32145 262818 234157 -5997 14500 -4856
32058 262608 233926 -6011 14511 -4850
31964 262359 233643 -6025 14473 -4844
31878 262168 233420 -6033 14457 -4823
31819 262064 233334 -5983 14453 -4776
31772 261939 233208 -5940 14461 -4774
31725 261789 233048 -5979 14482 -4814
31707 261833 233122 -5939 14499 -4829
31743 262181 233560 -5893 14521 -4842
31822 262947 234346 -5933 14505 -4871
31864 263631 234994 -5937 14473 -4878
31780 263591 234743 -5926 14472 -4887
31186 259992 230638 -5931 14475 -4889
29638 250848 220508 -5946 14443 -4858
27771 240483 209659 -5984 14420 -4825
26714 234098 203888 -6017 14604 -4869
26400 231251 202091 -5987 14885 -4878
26564 231130 203035 -6019 15166 -4826
27099 233715 206130 -6154 15347 -4746
27712 237328 209790 -6051 15577 -4670
28153 239988 212397 -5763 15758 -4695
28388 241409 213696 -5375 15254 -4919
28597 242875 214901 -4937 14196 -5170
28610 243219 214732 -4844 13683 -5073
28547 243138 214231 -4962 14038 -4862
28519 243309 213962 -4869 14341 -4854
28476 243347 213598 -4669 14417 -5030
28451 243528 213384 -4586 14394 -5072
28475 243598 213445 -4560 14362 -4940
28445 243263 213041 -4550 14406 -4964
28469 243268 213049 -4536 14510 -5017
28525 243382 213255 -4499 14733 -4891
28595 243359 213452 -4588 14818 -4889
28645 243017 213499 -4588 14891 -4973
28719 242810 213737 -4458 14947 -4894
28749 242472 213770 -4618 14982 -4876
28627 241593 213058 -4871 15002 -5000
28600 241603 213261 -4870 14810 -5072
28679 242551 214379 -4884 14775 -5044
28794 243907 215879 -4925 14644 -4921
28955 245559 217758 -4926 14456 -4898
29113 247221 219575 -4840 14219 -4866
29254 248668 221117 -4871 14155 -4666
29345 249760 222200 -4924 14321 -4508
29431 250681 223157 -5149 14694 -4797
29469 251071 223566 -5483 15057 -5313
29506 251549 224009 -5566 15167 -5610
29548 251916 224355 -5898 14818 -5532
29615 252463 224869 -5771 14624 -5554
29673 252955 225292 -5647 14555 -5579
29766 253741 226060 -5783 14489 -5498
29857 254372 226726 -5915 14467 -5390
29914 254882 227176 -5959 14430 -5362
29997 255628 227857 -5958 14393 -5309
30081 256414 228571 -5973 14413 -5238
30178 257192 229322 -6000 14410 -5205
30264 257890 229932 -5904 14430 -5202
30345 258543 230528 -5842 14479 -5211
30433 259113 231045 -5926 14458 -5170
30512 259613 231472 -5978 14413 -5154
30597 260158 231964 -5982 14388 -5129
30680 260693 232437 -5965 14385 -5109
30767 261210 232927 -5966 14398 -5109
30857 261666 233343 -6012 14395 -5061
30940 262089 233694 -6049 14392 -5009
31033 262575 234143 -6035 14395 -5001
31116 262925 234445 -5997 14413 -5005
31175 263059 234539 -5985 14432 -4974
31253 263368 234819 -6007 14426 -4907
31329 263626 235081 -6032 14421 -4868
31385 263665 235107 -6040 14404 -4837
31430 263754 235204 -6028 14387 -4834
31451 263818 235278 -6029 14416 -4847
31435 263872 235335 -6061 14442 -4803
31416 263964 235407 -6080 14412 -4798
31391 264046 235501 -6094 14415 -4771
31375 264216 235667 -6039 14440 -4738
31362 264297 235727 -5976 14423 -4766
31370 264514 235936 -6019 14431 -4750
31387 264700 236122 -5980 14439 -4772
31406 264904 236314 -5931 14433 -4819
31438 265037 236460 -6002 14452 -4769
31474 265122 236504 -6047 14478 -4723
31514 265248 236614 -6043 14480 -4739
31543 265325 236679 -6034 14452 -4732
31566 265361 236687 -6036 14470 -4725
31582 265360 236690 -6049 14484 -4735
31589 265306 236599 -6036 14476 -4761
31599 265248 236528 -6011 14480 -4741
31807 265251 236251 -6040 14511 -4590
31832 265327 236263 -6039 14503 -4583
31858 265358 236281 -6038 14477 -4569
31900 265516 236419 -6044 14483 -4546
31934 265538 236455 -6037 14465 -4558
31955 265472 236369 -6043 14435 -4580
31957 265420 236334 -6047 14452 -4582
31932 265334 236284 -6028 14498 -4593
31872 265228 236143 -6031 14520 -4610
31810 265139 236030 -6053 14492 -4593
31754 265132 236026 -6054 14463 -4540
31710 265196 236082 -6031 14450 -4496
31687 265342 236206 -6045 14461 -4501
31668 265393 236249 -6054 14504 -4564
31648 265334 236171 -6014 14488 -4604
31642 265410 236212 -6033 14509 -4613
31642 265337 236107 -6074 14542 -4604
31657 265331 236092 -5989 14544 -4650
31674 265311 236105 -6002 14479 -4626
31679 265282 236043 -6032 14473 -4585
31678 265212 235941 -6053 14431 -4605
31679 265176 235920 -6060 14436 -4607
31676 265136 235878 -6055 14475 -4592
31663 264964 235675 -6082 14489 -4543
31654 264856 235545 -6079 14487 -4553
31648 264765 235433 -6055 14453 -4590
31636 264637 235274 -6071 14495 -4584
31639 264555 235186 -6073 14529 -4605
31639 264410 235050 -6078 14478 -4592
31635 264245 234873 -6079 14420 -4559
31640 264145 234754 -6063 14426 -4571
31644 264047 234656 -6078 14450 -4587
31661 263996 234622 -6101 14445 -4583
31672 263902 234538 -6091 14446 -4565
31685 263851 234479 -6077 14454 -4558
31700 263825 234442 -6074 14448 -4578
31703 263633 234227 -6071 14455 -4598
31707 263510 234061 -6060 14483 -4632
31727 263514 234025 -6067 14486 -4639
31741 263450 233924 -6080 14443 -4639
31728 263296 233742 -6079 14413 -4665
31706 263233 233725 -6095 14438 -4659
31660 263203 233733 -6104 14462 -4653
31589 263086 233605 -6093 14424 -4680
31525 263027 233547 -6085 14408 -4671
31466 262937 233470 -6072 14434 -4628
31418 262856 233410 -6081 14432 -4635
31386 262790 233337 -6082 14487 -4705
31358 262752 233279 -6049 14519 -4764
31356 262865 233394 -6056 14478 -4736
31359 262867 233385 -6065 14459 -4696
31361 262807 233299 -6039 14447 -4696
31366 262715 233220 -6033 14428 -4693
31365 262664 233117 -6053 14404 -4686
31362 262621 233046 -6071 14392 -4683
31351 262524 232949 -6082 14413 -4697
31340 262429 232820 -6056 14438 -4647
31325 262347 232725 -6060 14490 -4642
31325 262317 232725 -6087 14525 -4697
31327 262337 232739 -6025 14505 -4702
31333 262392 232781 -6010 14485 -4672
31340 262412 232816 -6062 14479 -4624
31352 262387 232805 -6071 14463 -4621
31353 262261 232673 -6066 14437 -4622
31358 262172 232584 -6059 14472 -4639
31371 262131 232556 -6051 14468 -4651
31386 262106 232526 -6068 14437 -4614
31404 262112 232528 -6026 14516 -4647
31420 262075 232482 -6033 14485 -4638
31431 262003 232398 -6072 14436 -4629
31454 262012 232384 -6096 14431 -4642
31462 261951 232304 -6099 14445 -4650
31475 261901 232199 -6087 14452 -4666
31497 261913 232187 -6085 14447 -4671
31513 261843 232117 -6092 14419 -4669
31513 261771 232036 -6074 14422 -4691
31502 261837 232192 -6070 14502 -4741
31463 261883 232280 -6076 14463 -4738
31400 261881 232297 -6081 14441 -4689
31331 261803 232227 -6070 14442 -4661
31273 261751 232223 -6083 14429 -4671
31229 261705 232258 -6070 14460 -4760
31195 261616 232219 -6014 14478 -4817
31152 261423 232021 -6034 14463 -4776
31134 261388 232029 -6077 14441 -4772
31132 261388 232077 -6070 14433 -4807
31134 261370 232038 -6017 14460 -4818
31137 261275 231920 -5980 14449 -4808
31141 261218 231893 -6008 14408 -4810
31140 261225 231885 -6042 14440 -4818
31147 261327 232015 -5999 14478 -4793
31144 261288 231991 -5972 14450 -4784
31137 261244 231975 -6024 14440 -4771
31123 261158 231867 -5978 14450 -4772
31117 261115 231783 -5942 14464 -4796
31113 261181 231778 -6005 14497 -4809
31115 261239 231777 -6022 14499 -4802
31117 261309 231801 -6003 14475 -4772
31115 261312 231752 -5992 14449 -4798
31111 261273 231666 -5988 14424 -4820
31103 261170 231489 -6016 14434 -4810
31106 261180 231472 -6047 14444 -4798
31111 261126 231383 -6054 14441 -4790
31131 261168 231412 -6050 14491 -4795
31155 261181 231417 -6030 14499 -4820
31177 261171 231422 -6017 14418 -4817
31211 261301 231566 -5988 14470 -4875
31238 261364 231623 -6003 14414 -4861
31250 261271 231513 -5994 14395 -4873
31266 261222 231492 -5995 14404 -4882
31298 261246 231533 -6026 14411 -4892
31313 261143 231445 -6031 14407 -4902
31317 261104 231412 -6042 14410 -4885
31299 261036 231414 -6075 14437 -4889
31257 261023 231461 -6078 14438 -4894
31187 260944 231428 -5963 14414 -4896
31114 260876 231367 -6007 14401 -4884
31053 260905 231406 -5996 14413 -4922
31010 260939 231468 -5973 14445 -4944
30969 260906 231407 -6022 14455 -4922
30932 260853 231315 -6040 14423 -4934
30901 260785 231186 -6035 14425 -4954
30883 260808 231155 -6014 14424 -4953
30882 260855 231148 -6007 14399 -4932
30889 260863 231120 -6008 14410 -4940
30896 260815 231042 -6005 14424 -4977
30879 260662 230813 -5989 14407 -4966
30867 260597 230717 -5984 14392 -4939
30872 260656 230789 -6014 14412 -4908
30886 260886 230993 -5976 14413 -4911
30902 261062 231142 -5968 14401 -4948
30915 261144 231236 -6031 14434 -4923
30924 261206 231283 -6055 14438 -4911
30935 261269 231318 -6077 14390 -4935
30940 261242 231273 -6059 14407 -4938
30959 261288 231309 -5995 14449 -4962
30976 261314 231331 -5995 14429 -4985
30997 261328 231334 -6042 14403 -4951
31021 261382 231367 -6057 14399 -4913
31042 261372 231357 -6061 14390 -4895
31066 261413 231367 -6065 14380 -4906
31090 261433 231402 -6074 14376 -4915
31116 261435 231381 -6087 14379 -4917
31137 261401 231326 -6089 14370 -4917
31160 261379 231297 -6073 14360 -4928
31166 261226 231116 -6056 14384 -4958
31179 261159 231013 -6066 14393 -4955
31183 260942 230799 -6076 14377 -4945
31212 260951 230822 -6084 14379 -4941
31223 260826 230683 -6085 14369 -4924
31228 260757 230577 -6080 14382 -4916
31222 260672 230506 -6098 14423 -4899
31190 260651 230534 -6103 14419 -4885
31135 260620 230549 -6078 14391 -4865
31068 260596 230543 -6059 14388 -4836
31011 260638 230611 -6072 14423 -4837
30966 260656 230643 -6048 14455 -4888
30916 260531 230469 -6015 14458 -4921
30890 260559 230479 -6045 14455 -4893
30859 260441 230358 -6050 14434 -4887
30848 260430 230326 -6015 14412 -4883
30843 260286 230196 -6001 14391 -4851
30832 260075 229927 -6019 14375 -4826
30813 259801 229560 -6055 14391 -4791
30807 259640 229376 -6079 14416 -4785
30779 259412 229142 -5983 14527 -4794
30730 259118 228801 -6022 14497 -4753
30666 258754 228393 -6010 14514 -4720
30581 258338 227916 -6003 14571 -4728
30465 257895 227395 -6054 14565 -4697
30380 257537 226959 -6070 14491 -4648
30306 257274 226647 -6047 14469 -4610
30247 257252 226538 -6021 14496 -4584
30206 257450 226646 -6017 14634 -4534
30137 257426 226601 -5969 14813 -4524
29898 256002 225142 -5893 14777 -4488
29047 249895 218917 -5939 14667 -4351
27399 238286 207763 -5990 14905 -4285
25802 226885 198153 -5970 15299 -4277
24706 217973 192638 -5860 15571 -4328
24610 214059 191006 -5568 15561 -4538
25083 214447 192711 -5199 15006 -4934
25974 218160 196789 -5018 14269 -5134
26818 222427 200854 -5096 14005 -4919
27415 225651 203804 -5213 14034 -4728
27819 228070 205892 -4697 14520 -5165
28006 229158 206775 -4646 14531 -5047
28074 229696 207100 -4778 14529 -4813
28019 229750 206803 -4853 14631 -4734
27775 228346 205424 -4726 14732 -4668
27622 227625 204712 -4523 14719 -4790
27564 227501 204638 -4616 14693 -4804
27449 226753 204054 -4809 14774 -4760
27421 226491 204018 -4838 14852 -4940
27428 226309 204119 -4878 14926 -5002
27560 226893 204957 -4975 14933 -4931
27525 226496 204904 -4929 14818 -4905
27489 226005 204667 -4891 14672 -4895
27321 224641 203713 -4981 14508 -4751
27117 223187 202688 -5148 14417 -4870
26871 221849 201628 -5217 14555 -4951
26868 222464 202284 -5148 14718 -4816
26922 223776 203474 -5233 14740 -4842
27184 226714 206076 -5369 14614 -4821
27332 228895 207888 -5407 14543 -5208
27497 230916 209583 -5604 14530 -5405
27608 232305 210712 -5856 14482 -5494
27744 233808 211975 -5996 14450 -5568
27850 235017 212990 -6054 14488 -5599
27968 236218 214044 -6055 14564 -5589
28066 237209 214919 -6008 14550 -5530
28165 238143 215828 -6015 14475 -5406
28257 239152 216677 -6047 14434 -5323
28363 240471 217791 -6072 14435 -5266
28488 241828 218968 -6105 14406 -5211
28614 243227 220190 -6120 14359 -5175
28710 244231 220980 -6089 14358 -5157
28793 245158 221711 -6076 14364 -5151
28885 246157 222543 -6087 14355 -5172
28994 247296 223529 -6092 14335 -5132
29111 248278 224373 -6111 14351 -5059
29200 248975 224954 -6118 14370 -4999
29266 249746 225640 -6103 14363 -4931
29298 250460 226301 -6062 14345 -4870
29302 251054 226830 -6064 14357 -4851
29294 251464 227188 -6087 14406 -4867
29290 251943 227581 -6066 14421 -4878
29289 252343 227925 -6090 14430 -4828
29289 252715 228234 -6122 14422 -4784
29298 252941 228396 -6099 14411 -4778
29307 253092 228503 -6091 14409 -4755
29324 253275 228642 -6102 14410 -4732
29358 253365 228720 -6107 14396 -4717
29394 253487 228819 -6124 14393 -4728
29432 253510 228852 -6076 14436 -4738
29467 253582 228907 -6043 14437 -4736
29499 253728 229057 -6090 14415 -4689
29530 253943 229300 -6064 14418 -4667
29566 254125 229527 -6020 14418 -4690
29595 254295 229710 -6050 14440 -4664
29622 254436 229850 -6090 14453 -4631
29645 254646 230025 -6096 14431 -4600
29670 254869 230202 -6091 14428 -4586
29696 255030 230330 -6084 14442 -4592
29724 255182 230451 -6078 14470 -4618
29756 255238 230492 -6088 14484 -4618
29783 255264 230501 -6101 14474 -4569
29815 255360 230564 -6097 14468 -4550
29845 255447 230635 -6088 14464 -4545
29874 255477 230616 -6089 14470 -4536
29892 255371 230472 -6098 14455 -4540
29921 255367 230451 -6097 14449 -4543
29965 255421 230516 -6093 14451 -4550
30008 255436 230564 -6100 14447 -4564
30033 255482 230612 -6112 14479 -4583
30027 255493 230645 -6116 14425 -4510
29988 255551 230727 -6111 14415 -4469
29936 255568 230769 -6062 14442 -4500
29874 255584 230780 -5971 14483 -4579
29814 255619 230802 -5994 14520 -4578
29774 255689 230872 -6066 14506 -4539
29746 255723 230928 -6068 14475 -4538
29728 255713 230939 -6060 14481 -4534
29707 255745 230967 -6057 14490 -4553
29709 255822 231048 -6064 14474 -4577
29728 255848 231071 -6094 14458 -4568
29744 255872 231105 -6109 14458 -4571
29760 255891 231143 -6081 14436 -4544
29766 255914 231129 -6090 14439 -4491
29766 255885 231090 -6104 14451 -4524
29768 255861 231048 -6058 14440 -4575
29770 255834 231014 -6067 14450 -4543
29776 255807 230966 -6105 14463 -4514
29779 255776 230919 -6100 14458 -4534
29781 255778 230889 -6092 14484 -4560
29792 255789 230892 -6098 14500 -4565
29803 255809 230899 -6109 14469 -4551
29816 255787 230846 -6120 14463 -4526
29834 255765 230802 -6124 14467 -4518
29857 255745 230789 -6113 14449 -4521
29888 255759 230798 -6107 14439 -4524
29920 255810 230881 -6105 14451 -4520
29945 255824 230880 -6099 14448 -4521
29961 255752 230759 -6096 14440 -4537
29974 255518 230538 -6086 14480 -4572
29992 255306 230322 -6078 14479 -4600
30019 254973 230012 -6095 14462 -4574
30047 254612 229722 -6110 14476 -4588
30051 254207 229389 -6108 14457 -4620
30019 253831 229099 -6095 14444 -4601
29959 253497 228862 -6082 14443 -4570
29887 253141 228589 -6088 14436 -4577
29822 252893 228390 -6081 14455 -4643
29763 252698 228232 -6073 14501 -4675
29714 252619 228182 -6030 14554 -4715
29681 252437 228050 -6036 14498 -4716
29653 252161 227806 -6036 14497 -4710
29635 252066 227723 -6040 14483 -4689
29637 252083 227780 -6039 14415 -4678
29648 252146 227836 -6064 14393 -4716
29671 252034 227757 -6060 14408 -4694
29687 252039 227792 -6060 14403 -4675
29694 252000 227758 -6075 14400 -4680
29689 251815 227595 -5984 14459 -4738
29682 251567 227367 -5956 14506 -4775
29682 251480 227321 -6028 14466 -4731
29684 251374 227241 -6061 14431 -4723
29681 251196 227083 -6075 14449 -4728
29688 251134 227057 -6058 14451 -4746
29697 251086 227033 -6054 14429 -4747
29894 250502 226506 -6107 14422 -4776
29926 250473 226509 -6107 14437 -4800
29948 250336 226367 -6091 14415 -4775
29941 250298 226344 -6051 14423 -4755
29905 250203 226306 -6052 14423 -4778
29854 250249 226409 -6060 14442 -4824
29802 250334 226556 -6059 14468 -4834
29752 250355 226608 -6096 14481 -4797
29719 250367 226637 -6082 14447 -4764
29695 250382 226632 -6027 14406 -4778
29678 250411 226655 -6022 14389 -4773
29668 250436 226675 -6047 14393 -4791
29683 250656 226917 -6076 14406 -4806
29702 250809 227028 -6106 14450 -4786
29727 250827 227056 -6054 14477 -4735
29744 250916 227136 -6013 14456 -4673
29753 251028 227210 -6034 14471 -4662
29751 251045 227204 -5985 14496 -4684
29751 250988 227156 -5985 14479 -4687
29749 250988 227142 -6046 14453 -4657
29754 251006 227152 -6054 14455 -4651
29749 250822 226943 -6032 14454 -4666
29751 250704 226776 -6016 14456 -4685
29760 250685 226778 -6002 14447 -4710
29774 250689 226781 -6016 14459 -4737
29789 250707 226798 -6048 14487 -4726
29808 250685 226774 -6043 14467 -4707
29821 250460 226527 -6032 14449 -4717
29840 250475 226496 -6046 14455 -4711
29862 250521 226536 -6056 14423 -4694
29886 250585 226599 -6043 14430 -4724
29905 250530 226481 -6052 14457 -4751
29918 250487 226372 -6069 14446 -4735
29940 250458 226337 -6043 14440 -4753
29973 250585 226456 -6076 14460 -4732
30005 250693 226516 -6074 14432 -4741
30028 250665 226474 -6071 14408 -4700
30033 250710 226540 -6078 14422 -4659
30004 250679 226539 -6105 14440 -4659
29955 250751 226644 -6078 14433 -4699
29900 250849 226749 -6046 14458 -4720
29845 250833 226703 -6073 14481 -4689
29803 250819 226697 -6026 14447 -4707
29777 250911 226801 -6033 14441 -4674
29766 250963 226856 -6064 14431 -4637
29759 250950 226818 -6093 14403 -4617
29764 251087 226950 -6099 14415 -4622
29774 251100 226922 -6068 14449 -4601
29787 250982 226801 -6062 14449 -4543
29791 250891 226691 -6052 14456 -4535
29792 250840 226619 -5997 14479 -4579
29786 250725 226494 -6055 14505 -4581
29781 250674 226472 -6059 14490 -4564
29779 250637 226440 -6047 14453 -4552
29774 250609 226409 -6045 14457 -4557
29774 250503 226282 -6072 14459 -4547
29776 250450 226236 -6091 14463 -4542
29780 250474 226241 -6076 14474 -4538
29782 250419 226170 -6059 14468 -4534
29791 250310 226040 -6066 14459 -4524
29807 250363 226113 -6075 14474 -4536
29823 250398 226141 -6069 14494 -4593
29842 250442 226178 -6071 14466 -4618
29858 250421 226127 -6093 14422 -4607
29875 250382 226079 -6100 14412 -4620
29888 250383 226057 -6098 14424 -4632
29907 250426 226086 -6108 14450 -4617
29912 250259 225875 -6110 14455 -4619
29926 250175 225780 -6103 14438 -4636
29949 250209 225806 -6094 14438 -4599
29977 250189 225779 -6080 14437 -4561
29981 250091 225664 -6091 14457 -4595
29957 249971 225578 -6088 14485 -4656
29905 249955 225599 -6066 14523 -4695
29837 249892 225565 -6088 14527 -4653
29770 249800 225496 -6095 14469 -4596
29717 249841 225554 -6068 14453 -4613
29674 249841 225558 -6057 14457 -4637
29643 249794 225510 -6066 14440 -4626
29622 249781 225508 -6088 14438 -4597
29606 249796 225536 -6099 14471 -4607
29606 249870 225607 -6004 14541 -4663
29619 249970 225704 -5937 14540 -4692
29636 249903 225633 -6000 14466 -4593
29650 249912 225648 -5998 14474 -4544
29646 249880 225579 -5981 14527 -4574
29641 249893 225569 -6032 14572 -4545
29625 249869 225531 -6076 14584 -4542
29618 249989 225649 -6087 14608 -4550
29617 249984 225653 -6067 14581 -4522
29620 249997 225651 -6026 14471 -4487
29647 250142 225807 -5982 14489 -4463
29693 250372 226043 -6018 14507 -4395
29738 250793 226472 -6022 14575 -4341
29782 251252 226908 -6025 14664 -4295
29787 251816 227351 -6076 14969 -4316
29669 252590 227739 -6123 15445 -4309
29416 253090 227693 -6101 15748 -4269
28880 250800 224786 -5971 15720 -4351
27814 241587 215652 -5597 15063 -4680
25717 222836 199407 -5212 13919 -4901
24196 206769 187881 -5246 14049 -4700
24243 200840 185069 -5145 14215 -4796
25240 200955 187019 -4991 14352 -5038
26832 204896 192418 -4894 14363 -4972
28414 211147 199076 -4837 14370 -4688
29495 216859 204366 -4758 14411 -4683
30236 221234 208325 -4716 14477 -4788
30552 222945 209780 -4778 14649 -4760
30584 223792 210007 -4845 14661 -4814
30427 223016 209065 -4982 14633 -4909
30280 221993 208080 -5213 14819 -4823
30097 220709 206942 -5320 15029 -4756
29914 219256 205798 -5241 15041 -4795
29834 218522 205332 -5138 14810 -4800
29806 218280 205228 -5219 14615 -4801
29657 217126 204279 -5445 14677 -4761
29658 217057 204309 -5565 14674 -4683
29590 216504 203868 -5449 14494 -4653
29466 215855 203263 -5350 14431 -4638
29345 215591 202860 -5453 14450 -4652
29114 215090 202040 -5584 14445 -4824
28955 216317 202587 -5621 14401 -5000
28903 219270 204355 -5763 14459 -5173
28922 223265 206990 -5965 14617 -5407
28933 227209 209711 -6047 14607 -5427
28962 230761 212336 -6085 14473 -5428
29014 233719 214659 -6126 14440 -5434
29041 235823 216267 -6155 14483 -5310
29053 237275 217385 -6157 14470 -5208
29071 238373 218332 -5453 14450 -4652
29099 239322 219102 -5584 14445 -4824
29134 240273 219896 -5621 14401 -5000
29182 241243 220701 -5763 14459 -5173
29221 242277 221573 -5965 14617 -5407
29252 243308 222405 -6047 14607 -5427
29287 244225 223118 -6085 14473 -5428
29319 245086 223819 -6126 14440 -5434
29337 245997 224583 -6155 14483 -5310
29376 246625 225037 -6157 14470 -5208
29410 246963 225253 -6120 14419 -5052
29443 247536 225710 -6126 14404 -4985
29487 248159 226242 -6136 14391 -4947
29535 248716 226715 -6133 14378 -4919
29564 249123 227048 -6122 14349 -4907
29556 249507 227390 -6127 14348 -4880
29529 249802 227639 -6125 14382 -4848
29481 250076 227867 -6124 14361 -4834
29446 250401 228107 -6139 14355 -4818
29404 250656 228260 -6138 14410 -4824
29369 250854 228379 -6130 14433 -4783
29351 251074 228536 -6119 14401 -4699
29351 251245 228646 -6129 14385 -4638
29360 251350 228720 -6149 14408 -4646
29380 251678 228998 -6128 14411 -4675
29423 251874 229181 -6130 14429 -4639
29465 251959 229273 -6147 14448 -4593
29497 251967 229278 -6138 14427 -4578
29509 252143 229392 -6129 14411 -4568
29524 252283 229510 -6118 14431 -4584
29534 252388 229597 -6112 14461 -4567
29541 252539 229739 -6126 14445 -4526
29547 252692 229893 -6134 14450 -4538
29555 252780 229933 -6111 14458 -4503
29567 252843 229985 -6120 14449 -4433
29575 252993 230114 -6127 14454 -4402
29587 253111 230209 -6081 14488 -4413
29608 253179 230261 -6083 14532 -4392
29630 253228 230282 -6109 14506 -4360
29647 253301 230351 -6116 14513 -4398
29674 253319 230379 -6122 14551 -4420
29710 253323 230338 -6115 14511 -4413
29735 253376 230350 -6111 14470 -4399
29754 253367 230287 -6116 14491 -4365
29777 253346 230231 -6120 14515 -4346
29812 253449 230306 -6113 14494 -4352
29856 253506 230399 -6105 14464 -4356
29898 253472 230386 -6117 14472 -4368
29918 253354 230323 -6129 14482 -4376
29888 253352 230376 -6127 14460 -4387
29841 253318 230387 -6116 14466 -4441
29791 253223 230334 -6119 14512 -4444
29750 253078 230238 -6130 14515 -4419
29708 253042 230215 -6115 14475 -4420
29685 253052 230260 -6120 14489 -4382
29677 253065 230298 -6112 14492 -4354
29683 253050 230297 -6114 14447 -4355
29687 253083 230344 -6122 14463 -4382
29720 253101 230411 -6069 14496 -4432
29753 253113 230439 -6060 14502 -4436
29794 253059 230431 -6087 14537 -4449
29825 253035 230413 -6095 14544 -4464
29847 253001 230383 -6103 14501 -4442
29864 252945 230352 -6094 14498 -4422
29883 252886 230323 -6086 14478 -4408
29898 252867 230329 -6098 14454 -4396
29918 252821 230284 -6108 14471 -4412
29932 252785 230259 -6080 14466 -4406
29952 252787 230273 -6087 14476 -4376
29970 252778 230272 -6111 14489 -4380
29988 252737 230245 -6005 14561 -4418
30011 252664 230192 -6076 14543 -4369
30041 252569 230108 -6096 14506 -4350
30072 252507 230081 -6105 14479 -4333
30105 252492 230089 -6101 14463 -4352
30136 252449 230045 -6096 14455 -4383
30164 252430 230034 -6110 14453 -4375
30197 252342 229960 -6120 14445 -4357
30229 252284 229903 -6122 14447 -4358
30246 252248 229854 -6088 14514 -4442
30274 252056 229666 -6093 14500 -4433
30317 252002 229640 -6117 14484 -4414
30361 251891 229586 -6129 14458 -4407
30417 251783 229493 -6137 14445 -4415
30435 251619 229356 -6140 14449 -4428
30412 251536 229332 -6133 14442 -4458
30364 251481 229353 -6130 14463 -4475
30308 251385 229305 -6131 14489 -4448
30251 251348 229296 -6084 14516 -4482
30199 251380 229333 -6062 14486 -4432
30171 251305 229276 -6055 14446 -4424
30154 251294 229291 -6091 14489 -4474
30143 251253 229278 -6078 14531 -4511
30136 251277 229302 -6067 14544 -4514
30154 251212 229277 -6081 14512 -4506
30172 251232 229288 -6053 14499 -4529
30203 250953 229032 -6024 14503 -4540
30220 250886 228954 -6026 14497 -4528
30228 250882 228951 -6046 14526 -4530
30227 250829 228908 -6080 14523 -4529
30228 250811 228895 -6077 14499 -4531
30238 250786 228878 -6034 14494 -4523
30246 250824 228928 -6046 14485 -4484
30259 250705 228784 -6064 14475 -4482
30275 250745 228798 -6012 14487 -4495
30289 250761 228808 -6016 14520 -4465
30312 250882 228949 -6062 14508 -4438
30334 250980 229041 -6061 14482 -4435
30362 251033 229095 -6011 14500 -4469
30393 251054 229136 -6008 14519 -4477
30422 250939 228992 -6058 14482 -4442
30445 250918 228952 -6086 14498 -4431
30469 250954 228989 -6092 14531 -4428
30497 250982 229005 -6073 14510 -4401
30518 251019 229013 -6056 14484 -4373
30530 251005 228961 -6063 14483 -4361
30556 250958 228914 -6076 14498 -4372
30579 251052 228972 -6078 14470 -4388
30610 251124 229019 -6067 14533 -4464
30632 251021 228875 -6099 14476 -4457
30631 250883 228744 -6109 14455 -4454
30596 250791 228691 -6125 14456 -4435
30535 250688 228609 -6119 14445 -4453
30466 250560 228488 -6095 14428 -4487
30408 250512 228418 -6103 14430 -4447
30362 250455 228360 -6115 14450 -4400
30337 250380 228300 -6129 14466 -4403
30316 250226 228141 -6021 14580 -4525
30303 250186 228094 -6066 14529 -4464
30304 250188 228112 -6078 14480 -4440
30316 250103 227996 -6080 14459 -4442
30329 249970 227844 -6092 14447 -4439
30337 249918 227764 -6098 14427 -4434
30337 249888 227714 -6107 14418 -4435
30337 249817 227618 -6103 14440 -4433
30326 249775 227590 -6084 14468 -4442
30320 249738 227546 -6056 14531 -4433
30317 249681 227486 -6023 14540 -4438
30318 249606 227399 -6054 14511 -4411
30315 249530 227307 -6092 14495 -4390
30317 249510 227286 -6094 14489 -4392
30327 249485 227246 -6079 14483 -4409
30339 249489 227264 -6071 14477 -4422
30353 249552 227349 -6086 14476 -4400
30369 249547 227317 -6098 14487 -4398
30390 249439 227187 -6076 14516 -4434
30405 249399 227158 -6049 14537 -4464
30424 249401 227142 -6053 14518 -4453
30439 249369 227052 -6073 14486 -4435
30451 249323 226969 -6083 14459 -4447
30460 249298 226928 -6091 14445 -4454
30481 249259 226842 -6111 14444 -4470
30505 249204 226760 -6110 14426 -4494
30530 249144 226691 -6098 14420 -4500
30538 249117 226687 -6114 14463 -4482
30509 249149 226801 -6126 14496 -4503
30450 249095 226787 -6109 14467 -4554
30376 248995 226699 -6099 14446 -4514
30305 248853 226574 -6103 14464 -4460
30247 248811 226551 -6117 14463 -4467
30151 248263 226094 -6077 14435 -4524
30144 248194 226004 -6106 14447 -4522
30139 248070 225874 -6065 14447 -4523
30134 247983 225768 -6049 14450 -4538
30137 247980 225756 -6094 14477 -4520
30143 248067 225867 -6116 14468 -4513
30151 248064 225854 -6073 14512 -4578
30159 248029 225811 -6092 14496 -4564
30175 247991 225749 -6119 14480 -4540
30192 247939 225684 -6129 14480 -4516
30213 248027 225776 -6119 14460 -4518
30235 248075 225813 -6112 14423 -4516
30257 248034 225763 -6113 14418 -4525
30279 248013 225710 -6113 14406 -4527
30304 247989 225685 -6125 14427 -4513
30325 248004 225686 -6098 14435 -4540
30337 247903 225516 -6101 14442 -4560
30344 247730 225327 -6116 14430 -4562
30375 247759 225353 -6125 14428 -4566
30403 247656 225262 -6114 14420 -4564
30423 247541 225133 -6120 14432 -4562
30424 247442 225078 -6135 14445 -4572
30394 247572 225302 -6134 14437 -4539
30323 247478 225231 -6114 14414 -4496
30243 247303 225088 -6153 14507 -4542
30169 247213 225039 -6108 14498 -4577
30116 247264 225126 -6116 14481 -4566
30077 247233 225105 -6131 14468 -4565
30054 247214 225138 -6110 14447 -4588
30033 247175 225129 -6086 14446 -4589
30015 247133 225090 -6081 14443 -4565
30028 247220 225198 -6093 14424 -4558
30049 247263 225242 -6108 14417 -4569
30074 247149 225125 -6100 14439 -4606
30096 247048 225056 -6041 14478 -4609
30108 246969 224962 -6043 14475 -4563
30113 246930 224922 -6088 14451 -4558
30125 246918 224959 -6051 14459 -4588
30147 246984 225090 -6055 14473 -4568
30171 246977 225126 -6098 14471 -4531
30192 246768 224920 -6114 14463 -4517
30226 246744 224937 -6115 14458 -4515
30304 247267 225622 -6098 14448 -4549
30471 248107 226719 -6100 14431 -4564
30692 249067 227931 -6131 14467 -4587
30918 250037 229003 -6147 14482 -4568
31162 250084 229150 -6111 14380 -4474
31247 248442 227341 -6102 14241 -4436
31133 246702 225131 -6119 14214 -4437
30986 245352 223536 -6126 14290 -4388
30972 245527 223712 -6156 14216 -4439
31180 247899 226374 -6283 14271 -4678
31463 250644 230203 -6542 14737 -5002
31160 250709 231259 -6935 15192 -5319
29926 246783 225968 -6942 15683 -4880
27864 232622 210485 -6483 15512 -4343
24391 202290 184924 -6067 14932 -4035
24655 187409 177771 -5745 14343 -4374
28233 194291 188720 -5727 14014 -5058
31748 208445 203450 -5882 14027 -5162
33639 219322 213051 -5788 14173 -4993
34168 224368 216860 -5402 14168 -5013
34260 227206 218719 -5090 13994 -4817
34059 228185 218737 -4891 14383 -4956
33817 226874 217301 -4904 14502 -4965
33635 226902 216821 -4898 14539 -4882
33433 225725 215568 -4897 14571 -5002
33276 224545 214519 -5061 14633 -4934
33226 224224 214293 -5263 14609 -4788
33231 224096 214321 -5379 14592 -4833
33264 224095 214487 -5400 14570 -4914
33225 223021 213800 -5252 14508 -4906
33103 222003 212990 -5529 14412 -4818
32928 221027 212154 -5604 14473 -4867
32712 220087 211123 -5457 14577 -4842
32310 218423 209292 -5543 14562 -4855
31891 217840 208122 -5795 14492 -4962
31388 217612 207116 -5890 14425 -5005
30931 219276 207438 -5870 14399 -5014
30544 222215 208784 -5932 14295 -5029
30490 249202 228618 -6236 14337 -4631
30484 249670 229050 -6236 14336 -4588
30512 249962 229283 -6279 14337 -4580
30518 250294 229531 -6287 14315 -4576
30561 250565 229760 -6268 14311 -4576
30595 250842 229936 -6264 14352 -4533
30663 250903 229926 -6284 14373 -4489
30698 250948 229888 -6323 14377 -4471
30733 250967 229822 -6292 14380 -4483
30767 250895 229734 -6272 14397 -4503
30780 250880 229708 -6311 14419 -4447
30800 250845 229643 -6317 14416 -4417
30822 250852 229599 -6279 14433 -4480
30838 250976 229655 -6243 14418 -4431
30853 251204 229817 -6246 14409 -4390
30880 251375 229971 -6244 14422 -4341
30922 251531 230098 -6233 14416 -4307
30971 251750 230299 -6219 14400 -4302
31009 252013 230535 -6208 14417 -4313
31052 252264 230740 -6207 14422 -4322
31099 252537 230972 -6204 14391 -4314
31144 252899 231299 -6262 14470 -4339
31196 253119 231489 -6246 14460 -4303
31260 253237 231613 -6219 14438 -4308
31318 253525 231899 -6208 14413 -4296
31390 253693 232042 -6194 14393 -4250
31460 253748 232068 -6209 14430 -4227
31498 253737 232068 -6239 14484 -4234
31492 253814 232176 -6211 14484 -4265
31451 253927 232294 -6186 14469 -4271
31402 253949 232389 -6165 14503 -4260
31346 254068 232493 -6160 14466 -4248
31306 254139 232549 -6160 14439 -4231
31281 254196 232603 -6173 14431 -4216
31267 254214 232627 -6177 14432 -4232
31255 254257 232644 -6152 14439 -4220
31250 254385 232745 -6152 14448 -4211
31266 254405 232695 -6179 14473 -4226
31291 254291 232584 -6144 14490 -4241
31303 254268 232521 -6160 14494 -4259
31301 254262 232464 -6231 14525 -4268
31298 254175 232365 -6227 14523 -4273
31294 254074 232267 -6184 14485 -4256
31291 254021 232202 -6160 14494 -4244
31290 253992 232147 -6167 14498 -4234
31286 253971 232115 -6189 14469 -4232
31283 253936 232040 -6189 14465 -4241
31281 253860 231948 -6171 14473 -4241
31290 253816 231901 -6166 14451 -4233
31303 253773 231861 -6172 14447 -4244
31313 253715 231782 -6196 14481 -4283
31322 253725 231773 -6206 14495 -4302
31336 253764 231795 -6192 14471 -4283
31343 253794 231803 -6192 14468 -4251
31348 253742 231720 -6185 14468 -4251
31360 253622 231568 -6174 14439 -4266
31384 253644 231556 -6183 14429 -4236
31411 253641 231558 -6192 14440 -4221
31437 253565 231478 -6209 14456 -4238
31440 253428 231388 -6198 14478 -4303
31401 253437 231464 -6205 14516 -4384
31334 253381 231438 -6243 14528 -4362
31266 253247 231336 -6215 14483 -4323
31201 253176 231292 -6178 14466 -4312
31145 253110 231252 -6169 14458 -4302
31103 253085 231225 -6173 14421 -4293
31076 252968 231123 -6183 14416 -4279
31052 252836 231004 -6192 14439 -4288
31048 252825 231020 -6170 14435 -4291
31052 252763 230947 -6177 14442 -4261
31074 252660 230860 -6205 14516 -4384
31077 252663 230901 -6243 14528 -4362
31072 252612 230865 -6215 14483 -4323
31065 252471 230750 -6178 14466 -4312
31055 252293 230589 -6169 14458 -4302
31038 252191 230514 -6173 14421 -4293
31029 252114 230464 -6183 14416 -4279
31018 252037 230360 -6192 14439 -4288
31009 252035 230341 -6170 14435 -4291
31007 251996 230300 -6177 14442 -4261
31013 251887 230157 -6120 14506 -4341
31014 251834 230121 -6102 14499 -4324
31025 251835 230168 -6144 14483 -4323
31036 251740 230082 -6163 14445 -4334
31055 251661 229984 -6172 14454 -4325
31071 251619 229946 -6156 14450 -4351
31091 251556 229857 -6149 14426 -4365
31097 251513 229770 -6164 14454 -4339
31101 251506 229749 -6177 14449 -4334
31117 251545 229791 -6185 14445 -4352
31152 251586 229837 -6186 14484 -4346
31188 251546 229798 -6173 14484 -4344
31204 251480 229749 -6160 14453 -4363
31174 251417 229742 -6162 14443 -4367
31107 251280 229636 -6165 14450 -4383
31030 251110 229508 -6154 14428 -4421
30954 250982 229448 -6151 14417 -4420
30887 250858 229368 -6155 14464 -4415
30830 250795 229354 -6145 14464 -4443
30789 250721 229336 -6119 14422 -4457
30757 250613 229252 -6109 14427 -4474
30725 250483 229131 -6156 14441 -4470
30716 250530 229206 -6154 14456 -4503
30718 250578 229270 -6122 14456 -4544
30736 250466 229193 -6158 14464 -4502
30745 250323 229079 -6175 14467 -4475
30743 250245 229001 -6155 14441 -4490
30735 250076 228824 -6134 14433 -4495
30725 249930 228676 -6128 14432 -4484
30719 249947 228734 -6153 14421 -4491
30714 249940 228763 -6186 14438 -4531
30714 249841 228699 -6174 14462 -4519
30720 249728 228619 -6160 14454 -4497
30737 249514 228494 -6160 14417 -4491
30759 249410 228459 -6126 14410 -4509
30771 249261 228309 -6117 14426 -4535
30786 248978 228018 -6144 14425 -4500
30799 248724 227764 -6160 14417 -4479
30807 248430 227462 -6164 14431 -4490
30826 248145 227196 -6155 14432 -4508
30853 247858 226966 -6161 14438 -4552
30884 247563 226713 -6175 14453 -4570
30915 247320 226476 -6175 14442 -4544
30944 247163 226364 -6159 14447 -4507
30972 246924 226181 -6136 14421 -4464
31014 246809 226111 -6136 14397 -4426
31068 246780 226190 -6151 14417 -4421
31109 246889 226379 -6157 14421 -4449
31117 246777 226354 -6155 14407 -4472
31081 246787 226428 -6159 14420 -4502
31024 246992 226721 -6176 14418 -4561
30952 247055 226791 -6176 14384 -4608
30884 246924 226628 -6180 14397 -4610
30837 246875 226619 -6198 14424 -4622
30800 246976 226764 -6193 14390 -4626
30772 246879 226663 -6186 14371 -4591
30754 246838 226641 -6170 14382 -4590
30738 247014 226805 -6172 14366 -4595
30753 247073 226877 -6171 14358 -4627
30760 246955 226728 -6153 14403 -4668
30780 246835 226622 -6195 14431 -4690
30787 246871 226661 -6168 14394 -4673
30780 246762 226509 -6168 14430 -4633
30770 246570 226269 -6160 14425 -4618
30766 246425 226162 -6163 14367 -4605
30764 246318 226085 -6177 14378 -4595
30760 246238 225962 -6167 14407 -4635
30759 246250 225971 -6149 14378 -4638
30766 246193 225910 -6163 14370 -4568
30776 246133 225875 -6141 14409 -4569
30789 246154 225927 -6105 14452 -4627
30803 246101 225827 -6132 14439 -4600
30815 246049 225746 -6164 14402 -4560
30834 246137 225846 -6178 14411 -4568
30854 246175 225850 -6167 14398 -4603
30879 246163 225803 -6154 14369 -4627
30908 246191 225839 -6166 14384 -4614
30933 246327 225965 -6175 14387 -4614
30960 246378 225997 -6177 14385 -4613
30981 246513 226085 -6176 14411 -4612
30993 246402 225925 -6174 14380 -4635
31001 246223 225725 -6178 14356 -4636
31028 246237 225730 -6188 14381 -4633
31061 246252 225753 -6184 14356 -4650
31090 246232 225740 -6173 14340 -4658
31083 246138 225700 -6174 14362 -4668
31044 246056 225673 -6184 14367 -4670
30979 245958 225625 -6187 14352 -4667
30916 246023 225710 -6182 14348 -4672
30857 246105 225813 -6201 14372 -4644
30811 246078 225789 -6235 14418 -4665
30779 245933 225655 -6232 14419 -4691
30763 245942 225698 -6200 14381 -4638
30749 245963 225740 -6186 14369 -4608
30746 246049 225790 -6197 14365 -4615
30772 246164 225938 -6175 14374 -4647
30800 246257 226065 -6168 14397 -4661
30828 246171 225977 -6196 14403 -4659
30888 246590 226464 -6195 14386 -4673
31040 247640 227719 -6172 14366 -4683
31252 248699 229036 -6150 14380 -4685
31470 249477 230084 -6170 14382 -4638
31648 250126 230841 -6175 14360 -4659
31749 250474 231135 -6155 14366 -4645
31823 250691 231242 -6173 14414 -4618
31877 250439 230920 -6195 14390 -4621
31919 250074 230485 -6155 14370 -4636
31970 249853 230206 -6140 14396 -4610
32037 249936 230219 -6171 14347 -4524
32109 250485 230881 -6231 14306 -4547
32141 251127 231659 -6250 14324 -4619
32103 251665 232216 -6228 14312 -4678
31865 252138 232349 -6242 14284 -4708
31214 252170 231169 -6272 14320 -4678
30209 250611 227840 -6314 14352 -4624
29197 246026 222038 -6330 14336 -4674
28064 234469 211076 -6325 14367 -4817
26613 215238 196676 -6340 14598 -4951
26633 205051 191484 -6362 14729 -4993
28665 204759 195216 -6613 14461 -4830
30959 208519 201422 -6491 14584 -4853
32921 213875 207864 -6379 14739 -4775
34148 219914 213604 -6296 15127 -4485
34713 225141 217765 -6137 15604 -4280
34811 227709 219610 -5803 15665 -4463
34661 228416 219783 -5375 14927 -4921
34366 228695 219283 -5186 13800 -5052
34085 228606 218589 -5281 13484 -4768
33952 229125 218669 -5434 13847 -4632
33811 227999 217619 -5366 14228 -4851
33743 226818 216744 -5099 14435 -5127
33649 224986 215398 -5044 14316 -5016
33548 223361 214274 -5180 14252 -4725
33526 222417 213721 -5143 14400 -4725
33516 221528 213164 -5019 14571 -4815
33351 219837 211802 -5006 14737 -4871
33119 218611 210571 -5009 14854 -4985
32875 218068 209746 -4992 14710 -4936
32491 217296 208467 -5206 14524 -4887
31929 216927 207204 -5580 14560 -4850
31327 217469 206568 -5471 14719 -4903
30934 220744 208159 -5411 14527 -4795
30617 224748 210464 -5656 14371 -4811
30442 228957 213203 -5679 14381 -4875
30426 232352 215727 -5517 14410 -4828
30459 235069 217848 -5591 14431 -4781
30520 237218 219547 -5811 14456 -4720
30602 238869 220950 -5961 14397 -4736
30725 240335 222174 -5994 14359 -4941
30841 241623 223243 -6144 14459 -5215
30922 242828 224255 -6193 14458 -5324
31004 243850 225089 -6188 14438 -5465
31092 244984 225965 -6199 14420 -5409
31157 246019 226736 -6237 14404 -5205
31225 246641 227193 -6248 14362 -5075
31268 247218 227612 -6227 14337 -4997
31254 247749 227937 -6215 14352 -4943
31358 248345 228353 -6241 14353 -4907
31458 248890 228735 -6298 14268 -4915
31515 249341 229146 -6306 14292 -4906
31539 249818 229535 -6373 14312 -4874
31527 250321 229964 -6414 14328 -4848
31512 250645 230251 -6369 14294 -4800
31489 250889 230512 -6309 14269 -4788
31468 251200 230835 -6396 14310 -4777
31454 251566 231127 -6443 14317 -4787
31446 251916 231358 -6367 14286 -4827
31454 252283 231575 -6480 14378 -4792
31467 252501 231724 -6444 14351 -4744
31468 252663 231779 -6383 14331 -4722
31477 252668 231719 -6359 14297 -4701
31457 252674 231656 -6378 14286 -4656
31415 252573 231484 -6396 14310 -4623
31377 252434 231319 -6369 14312 -4556
31351 252317 231186 -6361 14326 -4512
31321 252293 231132 -6368 14347 -4501
31295 252290 231107 -6306 14361 -4506
31269 252281 231058 -6338 14390 -4521
31260 252273 231032 -6414 14412 -4481
31241 252290 231028 -6373 14391 -4445
31200 252248 231015 -6296 14365 -4456
31190 252273 231041 -6258 14370 -4453
31197 252241 230996 -6261 14380 -4421
31192 252270 230989 -6270 14367 -4399
31180 252267 230996 -6266 14351 -4401
31175 252202 230886 -6255 14363 -4410
31173 252050 230669 -6247 14365 -4396
31162 251889 230471 -6270 14374 -4457
31162 251928 230481 -6276 14384 -4434
31179 251906 230434 -6263 14368 -4431
