2025-08-24 01:59:29    绿光---红外光---红光---X轴---Y轴---Z轴
31611 278651 228851 -5917 14172 -5876
31597 278391 228443 -5956 14178 -5798
31518 277728 227635 -5743 14298 -5645
31359 276547 226370 -5667 14450 -5630
31167 275129 224960 -5873 14460 -5798
30862 272898 223120 -6034 14376 -5963
30554 270697 221454 -6060 14347 -6007
30295 268831 220053 -6028 14354 -6012
29982 266578 218293 -6054 14343 -6031
29699 264405 216705 -6116 14318 -6075
29515 262977 215761 -6150 14281 -6140
29389 262031 215144 -6140 14238 -6181
29350 261740 215069 -6121 14208 -6189
29319 261412 214931 -6108 14194 -6189
29236 260792 214580 -6108 14186 -6218
29270 260866 214869 -6136 14138 -6245
29272 260874 215049 -6257 13945 -6314
29265 260767 215252 -6238 13919 -6280
29236 260604 215290 -6231 13925 -6182
29211 260523 215366 -6268 13877 -6198
29224 260796 215677 -6278 13835 -6242
29240 261004 215902 -6257 13883 -6225
29257 261227 216153 -6301 13993 -6206
29237 261184 216152 -6328 14050 -6205
29259 261405 216392 -6280 14035 -6213
29233 261145 216217 -6272 13981 -6162
29255 261451 216476 -6328 13920 -6085
29307 261725 216745 -6355 13931 -6018
29311 261672 216731 -6333 13950 -5986
29305 261615 216713 -6319 14004 -5991
29319 261699 216803 -6335 13958 -5964
29384 262147 217210 -6412 13907 -5957
29456 262636 217622 -6410 14005 -5961
29508 263038 217900 -6310 14036 -5993
29519 263158 217934 -6281 14037 -6047
29543 263401 218081 -6304 14030 -6055
29608 263884 218417 -6358 13977 -6015
29674 264386 218741 -6360 13942 -6000
29733 264837 219004 -6282 13990 -6032
29803 265300 219282 -6238 14040 -6073
29808 265368 219208 -6228 14045 -6111
29788 265199 218972 -6225 14022 -6117
29755 265004 218695 -6213 14019 -6111
29715 264693 218374 -6197 14028 -6115
29703 264593 218206 -6191 14056 -6123
29578 263691 217375 -6187 14097 -6114
29535 263435 217148 -6178 14108 -6108
29557 263473 217191 -6177 14137 -6184
29491 263085 216829 -6156 14146 -6211
29406 262700 216454 -6144 14143 -6204
29398 263306 216981 -6033 14054 -6379
29426 263478 217107 -6051 14065 -6378
29475 263734 217338 -6071 14088 -6391
29517 263922 217516 -5992 14106 -6393
29520 263900 217500 -6055 14098 -6410
29525 263870 217483 -6074 14109 -6400
29549 264001 217612 -6075 14098 -6379
29598 264280 217855 -6058 14101 -6378
29648 264564 218086 -6048 14114 -6396
29678 264694 218181 -6053 14090 -6401
29704 264762 218233 -6064 14041 -6388
29714 264774 218226 -6056 14052 -6394
29728 264779 218208 -6039 14083 -6407
29741 264816 218193 -6018 14060 -6406
29715 264649 217958 -5985 14018 -6427
29704 264527 217794 -5999 13961 -6437
29692 264388 217633 -6024 13984 -6447
29643 264074 217230 -6038 14012 -6471
29515 263218 216415 -6064 14033 -6493
29514 263241 216378 -6075 14053 -6503
29436 262732 215873 -6076 14001 -6478
29355 262350 215460 -6082 13925 -6512
29253 261876 214968 -6088 13919 -6544
29142 261336 214385 -6016 13974 -6545
29039 260838 213881 -5968 13993 -6594
28908 260148 213210 -6022 14006 -6620
28818 259687 212756 -6052 14003 -6614
28688 258977 212080 -6054 13983 -6604
28622 258687 211778 -6053 13932 -6581
28517 258013 211110 -6057 13937 -6577
28423 257517 210621 -6078 13929 -6600
28395 257314 210410 -6097 13887 -6619
28322 256839 209986 -6081 13876 -6574
28245 256360 209504 -6088 13908 -6587
28201 256055 209226 -6053 13930 -6647
28096 255369 208610 -6038 13923 -6639
28021 254878 208163 -6092 13953 -6629
27960 254520 207842 -6115 13912 -6619
27872 254001 207313 -6109 13902 -6645
27815 253616 206942 -6090 13955 -6679
27758 253239 206582 -6078 13924 -6677
27709 252881 206257 -6086 13909 -6641
27678 252631 206039 -6102 13904 -6616
27621 252226 205672 -6104 13894 -6653
27559 251754 205269 -6089 13894 -6675
27498 251285 204856 -6083 13890 -6663
27416 250730 204394 -6083 13902 -6639
27402 250574 204216 -6083 13930 -6622
27330 250063 203754 -6083 13889 -6649
27271 249562 203333 -6082 13868 -6658
27274 249521 203261 -6093 13888 -6632
27151 248626 202459 -6096 13921 -6645
27143 248503 202406 -6082 13908 -6645
27168 248514 202435 -6069 13786 -6641
27064 247837 201837 -6069 13884 -6700
27060 247820 201824 -6026 13912 -6699
26975 247284 201367 -6040 13936 -6728
26929 247004 201131 -6093 13979 -6715
26902 246799 200928 -6062 13932 -6692
26859 246462 200679 -6028 13925 -6717
26802 245977 200311 -6048 13903 -6711
26759 245640 200039 -6067 13882 -6698
26752 245479 199907 -6065 13861 -6741
26747 245378 199859 -6045 13795 -6760
26810 245610 200111 -6042 13807 -6735
26744 245016 199592 -6074 13890 -6733
26759 244754 199541 -6059 13946 -6719
26812 244559 199588 -6017 13913 -6737
26845 244497 199651 -6037 13922 -6767
26819 244069 199321 -6078 13952 -6750
26782 243658 199042 -6084 13925 -6735
26801 243464 198972 -6069 13888 -6707
26843 243525 199101 -6051 13914 -6713
26887 243620 199253 -6028 13947 -6740
26941 243574 199360 -6025 13935 -6710
26967 243303 199289 -6032 13948 -6684
26983 243131 199212 -6025 13947 -6648
26996 243044 199176 -6023 13940 -6600
27034 243159 199292 -6035 13923 -6591
27099 243449 199526 -6054 13940 -6600
27102 243276 199363 -6061 13950 -6600
27151 243477 199547 -6056 13949 -6599
27202 243638 199669 -6022 13968 -6608
27191 243370 199476 -5981 13866 -6557
27297 243928 200035 -6052 13928 -6567
27358 244211 200295 -6064 13965 -6607
27390 244376 200428 -5957 13985 -6598
27418 244535 200576 -5929 14020 -6606
27452 244756 200758 -6024 14057 -6590
27466 244836 200821 -6031 14025 -6567
27457 244739 200706 -6015 13982 -6570
27450 244662 200625 -6025 13991 -6564
27505 245037 200931 -6015 13926 -6593
27534 245137 200991 -6032 13921 -6565
27506 244892 200759 -6047 13949 -6552
27550 245080 200931 -6069 13970 -6564
27581 245197 201015 -6024 13982 -6541
27603 245271 201061 -6004 14003 -6548
27636 245370 201164 -6046 14017 -6551
27680 245588 201344 -6067 14005 -6544
27692 245589 201342 -6051 13990 -6545
27703 245612 201329 -5999 13950 -6575
27730 245704 201399 -6042 13967 -6556
27763 245848 201511 -6079 13978 -6536
27817 246129 201757 -6089 13996 -6522
27887 246486 202082 -6082 14012 -6501
27932 246687 202245 -6073 14010 -6491
27969 246818 202350 -6079 14047 -6489
28023 247048 202522 -6112 14070 -6475
28157 247831 203230 -6128 14034 -6456
28333 248860 204121 -6102 14030 -6420
28460 249558 204738 -6088 14072 -6403
28607 250400 205510 -6089 14074 -6389
28818 251653 206587 -6091 13975 -6317
28978 252641 207423 -6117 13887 -6288
29192 254074 208604 -6125 13891 -6292
29308 254888 209211 -6083 13945 -6291
29373 255317 209574 -6087 14015 -6319
29470 256037 210193 -6141 14092 -6338
29576 256811 210821 -6131 14076 -6325
29652 257436 211303 -6087 14031 -6325
29697 257839 211575 -6024 14022 -6334
29729 258111 211757 -6003 13999 -6336
29731 258146 211770 -6051 14012 -6346
29743 258295 211884 -6092 14020 -6375
29791 258660 212131 -6082 14035 -6369
29782 258620 212083 -6091 14044 -6377
29867 259199 212537 -6135 14054 -6382
29868 259178 212499 -6098 14072 -6366
29888 259302 212580 -6083 14071 -6383
29900 259355 212611 -6135 14068 -6389
29938 259617 212799 -6155 14024 -6414
29984 259920 213026 -6153 13982 -6409
30001 260023 213077 -6134 13995 -6397
30006 260052 213066 -6117 14021 -6397
30019 260113 213097 -6119 14034 -6384
30036 260214 213153 -6120 14035 -6375
30057 260308 213199 -6117 14043 -6372
30063 260311 213185 -6115 14052 -6374
30069 260328 213176 -6113 14055 -6374
30081 260352 213175 -6116 14049 -6367
30093 260388 213188 -6108 13982 -6369
30126 260575 213313 -6124 14021 -6364
30140 260644 213316 -6142 14040 -6372
30141 260585 213252 -6132 14020 -6373
30191 260867 213436 -6125 14020 -6349
30118 260219 212904 -6145 14017 -6376
30178 260574 213222 -6139 14038 -6396
30201 260642 213293 -6073 14074 -6402
30187 260573 213220 -6083 14076 -6418
30160 260459 213119 -6116 14049 -6367
30134 260378 213050 -6108 13982 -6369
30090 260161 212857 -6124 14021 -6364
30027 259852 212584 -6142 14040 -6372
29993 259710 212461 -6132 14020 -6373
29963 259589 212349 -6125 14020 -6349
29921 259390 212182 -6145 14017 -6376
29916 259423 212174 -6139 14038 -6396
29833 258904 211757 -6073 14074 -6402
29854 259058 211894 -6083 14076 -6418
29804 258695 211594 -6120 13982 -6429
29766 258446 211377 -6094 13973 -6401
29713 258094 211079 -6106 13981 -6390
29667 257814 210857 -6121 13975 -6399
29653 257736 210791 -6133 13980 -6399
29634 257624 210693 -6142 14016 -6391
29581 257301 210412 -6126 14032 -6363
29532 256988 210164 -6144 14032 -6375
29533 257036 210215 -6172 14049 -6383
29535 257051 210227 -6072 14030 -6391
29515 256885 210082 -6120 14032 -6389
29470 256561 209823 -6138 14020 -6390
29428 256250 209559 -6141 14009 -6386
29404 256059 209413 -6123 14012 -6381
29391 255937 209309 -6118 14026 -6375
29385 255914 209276 -6135 14013 -6370
29381 255862 209200 -6149 13993 -6365
29337 255522 208903 -6139 14011 -6358
29371 255732 209048 -6117 14013 -6359
29268 254896 208353 -6107 13983 -6374
29284 254929 208459 -6112 13976 -6386
29321 255136 208656 -6124 13987 -6383
29257 254748 208312 -6125 13994 -6374
29216 254564 208145 -6120 14003 -6368
29160 254316 207944 -6126 14026 -6374
29122 254228 207847 -6127 14005 -6388
29043 253803 207472 -6123 13976 -6364
28983 253487 207213 -6128 13970 -6376
28917 253110 206922 -6155 13970 -6423
28877 252918 206787 -6100 13993 -6423
28855 252836 206665 -6039 13991 -6437
28750 252186 206129 -6092 14034 -6451
28779 252399 206336 -6118 14064 -6443
28718 251992 205978 -6096 14039 -6449
28709 251971 205944 -6086 13994 -6449
28700 251942 205918 -6104 13977 -6440
28733 252210 206150 -6122 13977 -6444
28718 252171 206059 -6127 13952 -6464
28748 252416 206262 -6113 13966 -6444
28772 252619 206419 -6137 13973 -6475
28803 252852 206598 -6127 14020 -6443
28828 253054 206747 -6086 14029 -6453
28836 253105 206777 -6111 14029 -6459
28814 252951 206625 -6134 14011 -6446
28806 252920 206582 -6122 13951 -6433
28833 253131 206743 -6112 13975 -6447
28871 253395 206939 -6106 14026 -6461
28909 253660 207123 -6123 14010 -6435
28968 254080 207423 -6110 13936 -6413
28968 254076 207350 -6096 13957 -6395
29073 255423 208268 -6133 14030 -6354
29083 255631 208420 -6085 14049 -6362
29138 256149 208788 -6105 14069 -6380
29100 255923 208579 -6139 14072 -6369
29165 256407 208977 -6119 14047 -6366
29212 256750 209257 -6105 14021 -6373
29248 257020 209440 -6113 13992 -6375
29269 257178 209565 -6129 13964 -6375
29280 257284 209645 -6147 13935 -6396
29304 257484 209790 -6134 13945 -6373
29324 257658 209926 -6135 13985 -6360
29342 257825 210039 -6161 14014 -6370
29368 258038 210208 -6128 14030 -6349
29390 258235 210341 -6091 14043 -6352
29413 258392 210482 -6110 14061 -6352
29427 258500 210566 -6140 14062 -6349
29445 258630 210672 -6154 14046 -6363
29457 258715 210721 -6139 14037 -6374
29470 258775 210777 -6124 14003 -6369
29482 258865 210841 -6131 13975 -6363
29519 259124 211047 -6142 13993 -6361
29583 259583 211376 -6143 14023 -6361
29566 259417 211203 -6146 14021 -6354
29624 259814 211510 -6153 14000 -6349
29650 259925 211562 -6146 14008 -6346
29677 260064 211694 -6146 14020 -6348
29802 260895 212381 -6155 14003 -6362
29833 261200 212579 -6160 13994 -6381
29868 261568 212842 -6205 13974 -6357
29902 262030 213178 -6193 13984 -6368
29949 262595 213588 -6178 13989 -6348
29986 263069 213896 -6181 13983 -6343
29999 263344 214078 -6192 13978 -6361
30001 263522 214173 -6135 14008 -6358
30000 263671 214262 -6097 14029 -6364
30032 264109 214549 -6148 14041 -6352
30051 264278 214651 -6166 14033 -6342
30069 264522 214811 -6114 13978 -6312
30094 264732 214967 -6112 13990 -6328
30069 264572 214826 -6135 13995 -6340
30065 264626 214858 -6164 14007 -6345
30095 264917 215073 -6151 14039 -6326
30210 265877 215802 -6129 14052 -6331
30344 266995 216601 -6144 14049 -6345
30427 267710 217073 -6132 14051 -6337
30472 268155 217345 -6108 14055 -6374
30520 268590 217624 -6184 13965 -6441
30573 269028 217920 -6178 13958 -6449
30589 269234 217989 -6148 13983 -6417
30550 269024 217760 -6122 13986 -6402
30530 268873 217609 -6130 13959 -6414
30527 268872 217575 -6154 13942 -6411
30529 268885 217548 -6155 13952 -6402
30528 268850 217493 -6129 13989 -6407
30522 268795 217424 -6126 14015 -6420
30511 268698 217300 -6153 14005 -6446
30446 268156 216854 -6167 13988 -6467
30447 268150 216824 -6156 13996 -6476
30364 267402 216228 -6142 14015 -6472
30298 266887 215847 -6133 14011 -6460
30285 266723 215762 -6145 14011 -6443
30198 266143 215321 -6157 14011 -6442
30105 265632 214917 -6149 13997 -6420
29988 265019 214428 -6137 13984 -6396
29894 264537 214081 -6148 13958 -6435
29811 264168 213790 -6128 13957 -6444
29723 263729 213445 -6058 13976 -6449
29641 263331 213134 -6085 13998 -6460
29546 262783 212715 -6145 14031 -6441
29495 262586 212560 -6143 14021 -6437
29405 261990 212115 -6132 14006 -6433
29386 261951 212098 -6125 13998 -6414
29355 261741 211945 -6138 13961 -6392
29299 261406 211685 -6160 13914 -6395
29247 261094 211428 -6163 13916 -6401
29184 260698 211107 -6157 13943 -6385
29154 260560 211001 -6222 13942 -6392
29160 260690 211115 -6258 13961 -6387
29159 260724 211121 -6196 13993 -6379
29123 260507 210929 -6182 14006 -6391
29094 260305 210768 -6212 13997 -6380
29101 260391 210831 -6220 13970 -6389
29082 260268 210697 -6204 13943 -6393
29065 260153 210582 -6164 13961 -6381
29052 260028 210471 -6138 13992 -6394
28988 259547 210060 -6153 13975 -6405
28955 259317 209877 -6206 13888 -6403
28930 259084 209681 -6182 13921 -6388
28907 258883 209529 -6162 13993 -6396
28916 258890 209497 -6144 14010 -6417
28887 258610 209261 -6144 13952 -6430
28887 258549 209153 -6156 13947 -6425
28846 258145 208826 -6158 13953 -6417
28833 257930 208701 -6161 13988 -6418
28857 258043 208837 -6159 14037 -6434
28854 258037 208833 -6162 13898 -6418
28766 257534 208367 -6160 13931 -6399
28712 257320 208205 -6148 13991 -6416
28616 256815 207750 -6111 14032 -6424
28573 256635 207614 -6109 14049 -6426
28518 256354 207376 -6140 14036 -6423
28465 256053 207145 -6111 14036 -6417
28403 255743 206856 -6073 14009 -6427
28429 255950 207013 -6087 13976 -6415
28382 255677 206766 -6114 13957 -6400
28418 255898 206990 -6121 13904 -6418
28408 255793 206903 -6117 13890 -6434
28410 255803 206896 -6107 13936 -6399
28402 255738 206835 -6142 13979 -6381
28389 255648 206758 -6161 14005 -6389
28384 255623 206740 -6100 14026 -6398
28369 255520 206638 -6088 14024 -6404
28347 255359 206487 -6131 14028 -6392
28347 255351 206465 -6136 14029 -6395
28360 255417 206520 -6116 14013 -6389
28365 255439 206526 -6094 13997 -6378
28363 255380 206472 -6102 13991 -6376
28362 255344 206442 -6136 13983 -6367
28388 255493 206554 -6149 13971 -6360
28421 255682 206706 -6141 13967 -6362
28591 256689 207442 -6177 14018 -6404
28575 256703 207430 -6119 14032 -6389
28547 256563 207294 -6124 14057 -6380
28514 256412 207172 -6174 14072 -6365
28538 256699 207385 -6158 14042 -6367
28539 256664 207341 -6130 13920 -6360
28510 256494 207193 -6154 13941 -6357
28535 256614 207306 -6175 13952 -6366
28530 256570 207246 -6170 13962 -6351
28532 256548 207220 -6178 13972 -6346
28514 256372 207066 -6209 13991 -6346
28517 256387 207077 -6187 14017 -6328
28522 256395 207077 -6154 14031 -6350
28521 256390 207068 -6167 14035 -6359
28515 256286 206972 -6235 13941 -6326
28527 256360 207026 -6206 13972 -6317
28560 256563 207196 -6187 14010 -6332
28587 256708 207312 -6193 13994 -6338
28577 256540 207179 -6200 13961 -6325
28582 256518 207164 -6193 13981 -6310
28588 256510 207176 -6180 14013 -6301
28577 256388 207057 -6182 13983 -6321
28573 256291 206969 -6184 13948 -6337
28589 256346 207004 -6204 13942 -6331
28564 256097 206768 -6232 13919 -6335
28595 256251 206897 -6229 13924 -6327
28636 256414 207014 -6236 13957 -6315
28626 256248 206879 -6243 13991 -6336
28722 256817 207394 -6222 13974 -6348
28746 256934 207504 -6209 13961 -6300
28731 256863 207451 -6239 13958 -6298
28708 256804 207423 -6251 13968 -6333
28694 256831 207454 -6196 13996 -6345
28679 256843 207466 -6211 13999 -6351
28649 256748 207368 -6292 13979 -6332
28615 256603 207245 -6283 13964 -6336
28598 256545 207202 -6227 13970 -6346
28626 256820 207444 -6204 13969 -6342
28612 256701 207316 -6195 13957 -6340
28593 256612 207221 -6213 13929 -6344
28626 256755 207338 -6231 13949 -6346
28583 256426 207075 -6200 13972 -6317
28565 256304 206953 -6223 13972 -6323
28561 256271 206925 -6299 13945 -6313
28543 256148 206813 -6267 13888 -6305
28572 256283 206915 -6245 13890 -6332
28546 256067 206698 -6299 13966 -6336
28546 256023 206657 -6311 13984 -6332
28569 256168 206790 -6292 14002 -6311
28644 256683 207258 -6259 14040 -6295
28716 257148 207681 -6245 13942 -6270
28760 257377 207895 -6275 13825 -6255
28789 257547 208055 -6307 13837 -6246
28798 257542 208067 -6299 13920 -6233
28805 257559 208100 -6313 13945 -6210
28812 257528 208112 -6291 13958 -6229
28832 257624 208220 -6302 13965 -6244
28815 257427 208044 -6297 13969 -6260
28803 257276 207954 -6270 13953 -6269
28829 257394 208046 -6288 13944 -6277
28758 256742 207534 -6311 13968 -6295
28810 257053 207871 -6295 13975 -6281
28794 256879 207763 -6277 13965 -6253
28732 256522 207470 -6373 13919 -6301
28666 256155 207182 -6293 13961 -6294
28609 255911 206997 -6285 13987 -6325
28549 255638 206762 -6316 14012 -6342
28479 255264 206449 -6278 13996 -6346
28406 254858 206136 -6232 13951 -6344
28356 254576 205908 -6218 13951 -6326
28296 254217 205625 -6251 13938 -6318
28278 254126 205528 -6282 13891 -6329
28195 253559 205073 -6277 13876 -6282
28232 253811 205304 -6294 13916 -6276
28171 253250 204886 -6315 13961 -6295
28135 252934 204658 -6254 13957 -6319
28088 252620 204399 -6256 13966 -6346
28089 252633 204426 -6298 13954 -6330
28060 252444 204268 -6286 13950 -6324
28018 252132 204014 -6256 13953 -6320
27966 251779 203744 -6223 13935 -6311
27956 251696 203677 -6231 13928 -6316
27974 251880 203814 -6286 13887 -6325
28035 252328 204141 -6289 13829 -6321
28109 252934 204534 -6239 13825 -6319
28179 253527 204873 -6202 13831 -6333
28304 254563 205530 -6189 13810 -6352
28433 255610 206149 -6193 13800 -6387
28573 256720 206833 -6203 13828 -6412
28724 257894 207557 -6225 13867 -6428
28853 258839 208103 -6241 13909 -6457
28917 259237 208274 -6246 13967 -6480
29042 260069 208805 -6235 13953 -6529
29084 260180 208739 -6212 13863 -6546
29135 260351 208875 -6223 13823 -6495
29169 260366 208912 -6253 13885 -6557
29068 259445 208169 -6232 13959 -6636
28986 258807 207691 -6171 13926 -6628
28813 257475 206667 -6167 13947 -6640
28614 256011 205567 -6185 14014 -6612
27670 249024 200609 -6185 13926 -6515
27544 248064 199892 -6196 13917 -6564
27233 245563 197988 -6161 13898 -6546
26644 240877 194400 -6177 13926 -6479
26061 236117 190875 -6190 13895 -6516
25706 232967 188713 -6207 13778 -6622
25409 229638 186581 -6220 13633 -6670
25326 224544 184172 -6224 13662 -6646
27749 221694 187502 -6231 13823 -6613
30449 222230 192301 -6261 13946 -6591
35231 224427 200953 -6292 14000 -6493
49746 246363 236946 -6221 13684 -6635
57401 252721 253640 -6192 13289 -6724
56312 246619 248045 -6193 13032 -6535
48103 241199 229477 -6182 12718 -6226
33320 232162 200791 -6203 12583 -6080
28062 245092 204255 -6383 13284 -6682
36580 287133 246400 -6724 14400 -7345
43709 300886 274135 -6207 14815 -7411
46245 301567 282109 -5114 14378 -7496
47306 300684 283970 -5014 13388 -7679
47819 300557 284659 -5696 12720 -7630
48052 301092 284327 -6418 13038 -7456
47550 301377 279462 -6631 13557 -7671
38813 272055 229276 -6416 13865 -7853
23123 199262 165977 -6279 14139 -7140
19144 167438 142320 -6234 14288 -6809
27218 172335 156450 -6204 14268 -7151
33969 186094 173845 -6238 14117 -7062
35852 192874 181023 -6111 13740 -6951
36046 197533 184671 -5796 13350 -7220
36631 201397 188372 -5812 13313 -7500
38569 205992 194503 -6116 13548 -7552
41454 212914 203928 -6270 13746 -7461
44637 221067 214636 -6248 13609 -7394
47523 229571 224945 -6109 13270 -7406
49436 235845 232096 -6040 12996 -7274
50620 240443 237038 -6113 12918 -7158
51098 244430 240401 -6181 13118 -7135
51217 247507 242760 -6200 13434 -7050
51325 256007 249198 -6179 13685 -6924
50856 256153 248670 -6144 13668 -6813
50394 256253 248062 -6142 13650 -6781
49869 256301 247273 -6139 13682 -6746
49306 256303 246379 -6143 13659 -6733
48831 256263 245575 -6163 13706 -6673
48324 256136 244599 -6183 13853 -6599
47466 255941 243084 -6181 13935 -6557
46616 255561 241473 -6172 13930 -6460
45935 255193 240030 -6166 13830 -6452
45170 254895 238537 -6074 13836 -6497
44645 254344 237167 -6050 13929 -6482
44062 254097 235886 -6089 13980 -6457
43821 253991 235169 -6069 14011 -6435
43775 254064 234817 -6020 14017 -6424
43687 254201 234429 -6013 13946 -6423
43464 254309 233901 -6006 13923 -6396
43120 254444 233262 -6001 13958 -6357
42913 254609 232826 -6024 13983 -6349
42874 254766 232624 -5978 14020 -6303
39431 248950 221995 -5554 14162 -6570
39057 249017 221664 -5516 14176 -6576
38647 248517 220959 -5520 14170 -6589
38480 247331 220079 -5576 14159 -6673
38342 246436 219342 -5510 14181 -6668
38260 245397 218568 -5334 14222 -6669
38181 244963 218171 -5373 14261 -6698
38149 244312 217724 -5520 14192 -6688
38240 243286 217177 -5522 14090 -6684
38323 243020 217072 -5378 14048 -6694
38402 242592 216837 -5179 13971 -6753
38527 242205 216710 -5043 13931 -6807
38739 241350 216361 -5045 14008 -6879
39007 240458 216054 -5144 14102 -6956
39300 239713 215904 -5227 14089 -6946
39556 239254 215888 -5308 14063 -6999
39785 238877 215882 -5273 14102 -7057
40008 238420 215856 -5155 14123 -7074
40219 237924 215803 -5221 14123 -7145
40403 237698 215890 -5318 14120 -7177
40555 237549 215965 -5325 14070 -7161
40708 237308 215992 -5298 14039 -7141
40856 237113 216041 -5251 14077 -7140
41011 236953 216080 -5249 14089 -7144
41219 236264 215896 -5280 14071 -7112
41400 235990 215938 -5288 14062 -7072
41559 236266 216268 -5291 14064 -7036
41740 235430 215965 -5311 14065 -7006
41947 236264 216711 -5336 14067 -7007
41965 236180 216628 -5377 14060 -7036
42025 236218 216739 -5377 13975 -7068
42098 236224 216821 -5371 13972 -7075
42152 235746 216567 -5458 13928 -7047
42235 235819 216722 -5514 13970 -7075
42285 235289 216448 -5473 14031 -7132
42416 235217 216578 -5470 14018 -7047
42474 235274 216673 -5511 13942 -7066
42535 235299 216759 -5601 13926 -7146
42604 235147 216728 -5540 13987 -7133
42682 235004 216745 -5394 13991 -7152
42788 235432 217105 -5429 13980 -7177
42827 235050 216893 -5473 13938 -7178
43021 234532 216863 -5443 13964 -7190
43185 234573 217058 -5445 13922 -7188
43350 234712 217331 -5445 13899 -7208
43496 234979 217677 -5465 13937 -7244
43627 235181 217954 -5547 13912 -7258
43795 235319 218259 -5517 13920 -7203
43989 235500 218610 -5486 13931 -7178
44315 235747 219189 -5583 13939 -7200
44602 236658 220074 -5563 13915 -7164
44879 237297 220795 -5453 13922 -7183
45086 237657 221271 -5534 13972 -7184
45261 237871 221637 -5622 13987 -7141
45408 238100 221958 -5591 13980 -7112
45523 238468 222323 -5555 13967 -7096
45594 238827 222592 -5525 13977 -7087
45752 238536 222571 -5549 13992 -7081
45842 238788 222811 -5602 13958 -7090
45885 239279 223114 -5599 13943 -7062
45924 239357 223204 -5552 13943 -7035
45955 239740 223456 -5553 13916 -7053
45973 239852 223526 -5612 13919 -7068
46121 239522 223570 -5671 13938 -7058
46286 239509 223780 -5673 13947 -7047
46409 239427 223911 -5670 13949 -7038
46551 239390 224101 -5722 13921 -7013
46705 239455 224366 -5706 13938 -7014
46866 239459 224605 -5669 13946 -7002
47013 239568 224892 -5684 13927 -6951
47108 240048 225306 -5646 13926 -7028
47195 240268 225572 -5570 14007 -7054
47324 240466 225888 -5585 14029 -7072
47361 240909 226189 -5672 14023 -7057
47404 240965 226308 -5621 14000 -7024
47467 241342 226619 -5558 13959 -7003
47465 241862 226904 -5582 13949 -6976
47453 242247 227113 -5640 13944 -6959
47447 242448 227226 -5724 13929 -6979
47434 242670 227341 -5715 13923 -6951
47403 243010 227479 -5684 13919 -6927
47331 243485 227630 -5736 13949 -6950
47275 243843 227748 -5691 14000 -6923
47244 244017 227807 -5606 14018 -6937
47244 244132 227881 -5695 14002 -6945
47246 244176 227897 -5785 14001 -6899
47223 244388 227963 -5742 14014 -6883
47214 244480 228000 -5673 14011 -6884
47248 244577 228076 -5686 13998 -6886
47304 244603 228145 -5734 13933 -6884
47373 244469 228155 -5702 13961 -6863
47422 244659 228314 -5703 13996 -6847
47493 244571 228352 -5718 14013 -6849
47525 244821 228526 -5736 14024 -6863
47479 245157 228675 -5768 14016 -6870
47503 245110 228718 -5759 14016 -6868
47548 245155 228787 -5746 14022 -6873
47537 245191 228800 -5786 14025 -6875
47581 245114 228840 -5748 13992 -6875
47643 245041 228897 -5688 13920 -6859
47671 245041 228939 -5763 13899 -6834
47688 245204 229074 -5871 13933 -6885
47697 245467 229236 -5813 13986 -6916
47710 245621 229363 -5648 14028 -6915
47788 245665 229500 -5674 14050 -6933
47754 246184 229718 -5764 14061 -6913
47726 246225 229724 -5714 14052 -6910
47753 246422 229872 -5707 14034 -6907
47777 246613 230005 -5752 13996 -6904
47794 246755 230111 -5745 13920 -6911
47782 246916 230195 -5774 13891 -6897
47794 247022 230263 -5778 13930 -6822
47814 247066 230294 -5782 13951 -6827
47813 247262 230389 -5862 13978 -6854
47820 247224 230391 -5806 14018 -6812
47859 247211 230443 -5728 14034 -6815
47911 247223 230511 -5788 14034 -6799
47944 247216 230549 -5871 14020 -6767
47973 247279 230617 -5896 14012 -6751
47997 247394 230691 -5812 13980 -6764
48012 247510 230764 -5754 13961 -6777
48026 247750 230877 -5796 13982 -6772
48092 247506 230813 -5849 13992 -6763
48130 247825 231025 -5862 14010 -6756
48193 247835 231095 -5848 14026 -6765
48241 247925 231213 -5842 14024 -6770
48186 248379 231375 -5843 14010 -6764
48189 248175 231313 -5875 13995 -6768
48321 247956 231385 -5887 13995 -6778
48408 247788 231442 -5827 13964 -6796
48501 247526 231505 -5854 13975 -6781
48765 246973 231674 -5864 13964 -6733
49085 246155 231831 -5903 13950 -6701
49420 245329 232022 -5940 13955 -6743
49708 244980 232426 -5846 13997 -6738
50094 244712 233031 -5713 14021 -6732
50726 244256 234027 -5782 14031 -6757
51892 245747 237232 -5883 14045 -6774
53028 247442 240551 -5739 13981 -6752
54390 249130 244532 -5791 14015 -6757
55548 249644 247416 -5904 13945 -6828
56312 249641 249230 -5990 13842 -6869
56964 249968 250924 -6003 13874 -6790
57512 250531 252534 -5986 13990 -6757
58003 250937 253916 -6023 13991 -6830
58533 251445 255383 -6065 13903 -6820
59030 251976 256834 -6064 13954 -6752
59428 252315 257986 -6094 13992 -6789
59719 252650 258893 -6095 13851 -6919
59954 253211 259801 -6078 13712 -7009
60138 253621 260537 -6107 13680 -7016
60279 253639 260997 -6130 13672 -6954
60414 253689 261454 -6159 13626 -6885
60534 253876 261940 -6187 13622 -6868
60655 254041 262369 -6193 13638 -6875
60775 254291 262809 -6190 13580 -6905
60847 254786 263306 -6194 13521 -6923
60914 255097 263662 -6210 13550 -6896
60986 255580 264100 -6265 13624 -6852
60942 256442 264616 -6317 13621 -6821
60923 256720 264810 -6309 13575 -6798
60944 257347 265238 -6276 13582 -6791
60867 258062 265603 -6266 13642 -6819
60750 258561 265788 -6283 13690 -6782
60627 259326 266081 -6304 13650 -6665
60486 259972 266242 -6329 13587 -6665
60333 260657 266430 -6351 13654 -6694
60155 261190 266468 -6300 13680 -6647
59921 261956 266576 -6299 13630 -6647
59644 262543 266540 -6366 13735 -6649
59353 263152 266479 -6348 13752 -6598
58925 263643 266174 -6292 13686 -6535
58524 264064 265886 -6246 13708 -6482
58273 264263 265671 -6236 13738 -6431
58042 264366 265444 -6255 13767 -6394
57762 264505 265181 -6279 13811 -6378
57533 264550 264908 -6274 13855 -6332
57354 264553 264698 -6332 13896 -6306
57160 264562 264446 -6379 13910 -6206
56909 264637 264139 -6278 13986 -6196
55898 263936 262098 -6231 14121 -6037
55797 264182 262141 -6231 14121 -6054
55863 264063 262132 -6176 14104 -6070
55795 264209 262145 -6164 14109 -6085
55781 264118 262101 -6183 14095 -6090
55809 264147 262146 -6194 14078 -6093
55830 264187 262187 -6205 14036 -6088
55819 264166 262161 -6192 14014 -6011
55775 264200 262127 -6199 14041 -5968
55781 264242 262153 -6233 14071 -6012
55817 264180 262149 -6207 14094 -6045
55789 264214 262107 -6172 14109 -6095
55740 264314 262111 -6191 14111 -6105
55727 264347 262121 -6202 14122 -6102
55768 264334 262147 -6187 14118 -6106
55793 264298 262149 -6176 14119 -6078
55784 264381 262163 -6186 14126 -6057
55786 264344 262134 -6229 14066 -6039
55737 264475 262112 -6242 14030 -6042
55666 264584 262040 -6214 14065 -6050
55628 264533 261923 -6199 14087 -6047
55573 264730 261937 -6193 14095 -6068
55606 264744 261926 -6197 14097 -6084
55528 264745 261791 -6203 14103 -6069
55334 264813 261603 -6195 14095 -6066
55256 264799 261513 -6199 14099 -6073
55188 264702 261356 -6206 14129 -6069
55043 264650 261150 -6184 14014 -5972
54912 264747 261075 -6240 14048 -5977
54806 264807 261000 -6261 14075 -6051
54719 264798 260869 -6193 14113 -6087
54597 264802 260725 -6154 14149 -6098
54465 264845 260565 -6224 14152 -6111
54228 265048 260414 -6240 14129 -6133
54231 265020 260361 -6189 14123 -6133
54029 265168 260193 -6171 14109 -6097
53833 265161 259958 -6204 14041 -6078
53759 265180 259866 -6245 13978 -6068
53701 265185 259771 -6244 14002 -6079
53526 265224 259611 -6213 14050 -6044
53436 265217 259504 -6221 14069 -6039
53353 265244 259410 -6244 14088 -6065
53247 265276 259271 -6195 14099 -6070
53142 265329 259152 -6161 14108 -6090
53042 265353 259018 -6180 14116 -6092
52887 265406 258853 -6207 14126 -6081
52808 265408 258745 -6233 14053 -6064
52740 265322 258568 -6217 14049 -6057
52623 265199 258288 -6210 14069 -6068
52531 265069 258047 -6221 14096 -6077
52425 265066 257882 -6213 14105 -6074
52307 265054 257699 -6195 14104 -6068
52097 264982 257292 -6195 14106 -6070
52007 264725 256955 -6201 14099 -6083
51843 264794 256732 -6203 14094 -6094
51808 264807 256686 -6210 14084 -6091
51691 264772 256469 -6223 14055 -6057
51354 264747 256041 -6229 14055 -6030
51232 264571 255807 -6234 14099 -6049
51193 264542 255716 -6221 14110 -6065
51152 264417 255597 -6210 14102 -6023
51046 264393 255440 -6217 14083 -6040
50880 264302 255132 -6212 14087 -6080
50807 264280 255011 -6145 14122 -6068
50768 264150 254838 -6128 14129 -6090
50717 264043 254650 -6198 14140 -6102
50591 264080 254502 -6226 14102 -6080
50566 264026 254466 -6205 14061 -6071
50586 264046 254454 -6167 14079 -6076
50472 264061 254329 -6157 14092 -6078
50485 263917 254274 -6189 14083 -6072
50496 263913 254289 -6214 14076 -6095
50491 263852 254219 -6194 14100 -6068
50463 263869 254210 -6184 14113 -6052
50490 263776 254190 -6219 14110 -6071
50562 263719 254242 -6213 14118 -6063
50692 263579 254289 -6232 14084 -6053
50753 263529 254334 -6243 14092 -6062
50774 263545 254362 -6221 14097 -6072
50814 263527 254399 -6196 14095 -6077
50877 263505 254462 -6177 14102 -6078
50981 263403 254531 -6183 14110 -6092
51057 263359 254583 -6193 14097 -6116
51128 263332 254653 -6192 14095 -6119
51220 263251 254695 -6191 14090 -6115
51307 263194 254757 -6240 14067 -6086
51412 263104 254820 -6223 14066 -6115
51472 263121 254888 -6197 14083 -6141
51559 262932 254843 -6194 14089 -6145
51600 263008 254923 -6203 14085 -6146
52508 261760 255276 -6176 14071 -6130
52520 261922 255402 -6166 14053 -6123
52522 261875 255396 -6185 14046 -6114
52636 261798 255432 -6220 14010 -6110
52629 261771 255392 -6253 13981 -6122
52705 261563 255351 -6223 14020 -6078
52765 261410 255285 -6221 14034 -6085
52785 261421 255297 -6256 14059 -6117
52817 261280 255218 -6213 14079 -6126
52830 261121 255132 -6186 14055 -6164
53088 260552 254860 -6186 14042 -6153
53054 260777 254916 -6181 14066 -6141
53064 260612 254780 -6180 14078 -6157
53058 260734 254855 -6174 14037 -6179
53086 260871 254955 -6222 14055 -6139
53153 260646 254853 -6203 14056 -6150
53115 260822 254940 -6188 14037 -6142
53059 260707 254863 -6201 14052 -6112
53072 260730 254916 -6218 14080 -6158
53008 260740 254873 -6195 14107 -6204
52929 260733 254819 -6147 14108 -6212
52905 260725 254810 -6166 14101 -6217
52916 260636 254775 -6190 14112 -6203
52911 260553 254721 -6117 14021 -6147
52890 260553 254702 -6142 14032 -6131
52816 260815 254808 -6169 14044 -6146
52833 260763 254777 -6179 14045 -6164
52797 261038 254905 -6160 14070 -6129
52714 261124 254871 -6174 14094 -6118
52702 261107 254845 -6213 14100 -6128
53504 260160 255088 -6205 14114 -6100
53614 260015 255128 -6226 14162 -6067
53706 260186 255324 -6265 14110 -6036
53717 260378 255442 -6250 13986 -6018
53642 260769 255571 -6206 13979 -6010
53554 260916 255525 -6198 14023 -5991
53522 260952 255523 -6222 14069 -5963
53482 261223 255623 -6230 14106 -5953
53467 261075 255480 -6218 14097 -5930
53291 261430 255500 -6231 14088 -5899
53079 261638 255441 -6246 14082 -5956
52989 261661 255418 -6207 14099 -5983
52911 261701 255398 -6164 14105 -5953
52826 261628 255317 -6211 14114 -5973
52788 261553 255276 -6238 14156 -5991
52743 261518 255241 -6195 14154 -6007
52693 261534 255201 -6180 14109 -6032
52664 261537 255187 -6192 14071 -6039
52629 261633 255238 -6194 14053 -6053
52601 261616 255255 -6195 14061 -6084
52636 261493 255212 -6180 14096 -6063
52570 261634 255230 -6182 14112 -6050
52537 261559 255156 -6277 14078 -6033
52585 261378 255101 -6198 14102 -6074
52608 261314 255101 -6191 14117 -6115
52629 261227 255100 -6212 14122 -6121
52670 261030 255046 -6203 14116 -6102
52671 261062 255073 -6182 14102 -6114
52696 261093 255116 -6178 14094 -6133
52713 261145 255198 -6197 14099 -6106
52754 261105 255264 -6220 14117 -6052
52779 261012 255288 -6206 14075 -6001
52751 261082 255338 -6162 14055 -6029
52704 261172 255391 -6162 14091 -6065
52634 261251 255414 -6173 14115 -6075
52622 261243 255406 -6176 14066 -6033
52618 261304 255430 -6184 14079 -6019
52525 261334 255352 -6184 14075 -6028
52494 261468 255336 -6192 14049 -6041
52378 261598 255288 -6199 14120 -6070
52364 261642 255257 -6227 14078 -5924
52406 261760 255320 -6274 14132 -5960
52445 261492 255178 -6267 14147 -6044
52365 261582 255204 -6198 14160 -6078
52396 261362 255142 -6188 14170 -6077
52434 261164 255071 -6208 14186 -6055
52451 261022 255028 -6179 14181 -6062
52498 260721 254932 -6155 14148 -6049
52536 260697 254969 -6162 14116 -5986
52555 260585 254926 -6173 14087 -5926
52601 260361 254844 -6179 14047 -5898
52622 260176 254740 -6176 14050 -5886
52579 260342 254786 -6164 14107 -5822
52679 260414 254930 -6185 14149 -5818
52924 260417 255180 -6197 14156 -5830
53065 260523 255378 -6178 14171 -5815
53277 260618 255647 -6193 14162 -5826
53429 260803 255898 -6192 14128 -5780
53467 261175 256184 -6159 14135 -5749
53623 261796 256816 -6170 14182 -5730
38121 237985 219113 -6556 14403 -5971
30965 234926 209759 -6454 15152 -6038
30918 243942 219331 -6078 14891 -6650
33880 257051 233818 -5778 14371 -7001
35500 260865 238205 -5809 13677 -7204
34475 252245 229562 -5993 13105 -7394
29014 222797 200481 -6316 13304 -7592
23374 182299 164450 -6553 14021 -7899
32293 190112 180800 -6485 14705 -7763
42450 215692 211677 -6253 14755 -7023
48387 231534 229917 -6556 14403 -5971
51977 241180 241013 -6454 15152 -6038
53644 246971 247341 -6078 14891 -6650
54216 250621 250776 -5778 14371 -7001
54323 252461 252349 -5809 13677 -7204
54233 253588 253297 -5993 13105 -7394
54003 254018 253664 -6316 13304 -7592
53787 254269 253844 -6553 14021 -7899
53826 253705 253794 -6485 14705 -7763
53929 253507 253990 -6253 14755 -7023
54099 253102 254111 -6166 13794 -6422
54260 253010 254426 -6238 13575 -6417
54353 253218 254799 -6205 13601 -6351
54339 253811 255221 -6168 13796 -6264
54270 254337 255506 -6163 13852 -6254
54137 254914 255739 -6173 13714 -6297
54007 255302 255854 -6150 13590 -6332
53931 255542 255923 -6122 13563 -6376
53870 255826 256040 -6146 13635 -6414
53786 255873 255977 -6163 13787 -6431
53548 256187 255874 -6162 13910 -6462
53162 256714 255727 -6209 13932 -6468
52769 256974 255425 -6276 13913 -6435
52359 257203 255022 -6314 13923 -6377
51898 257390 254525 -6332 13917 -6318
51462 257462 253990 -6338 13947 -6269
51093 257464 253476 -6358 13986 -6245
50559 257735 252910 -6410 13997 -6226
50072 257734 252205 -6495 13976 -6187
49607 257804 251516 -6575 13882 -6161
40748 264022 241012 -6494 13811 -6027
40359 263412 239631 -6531 13757 -6078
40295 263169 239058 -6470 13755 -6147
40302 262802 238512 -6341 13866 -6124
40275 263010 238217 -6276 14002 -6063
40455 260166 236625 -6307 14091 -6032
40701 255334 233934 -6367 14066 -6075
41002 250905 231353 -6405 13981 -6121
41402 247086 228923 -6356 13866 -6102
42160 245258 227844 -6233 13806 -6014
43557 245050 228998 -6058 14044 -5840
46845 248535 234176 -6136 14065 -5839
49274 250589 237704 -6185 14000 -5825
50805 251873 240088 -6167 14041 -5743
51804 252040 241355 -6104 14152 -5675
52525 252381 242433 -6104 14222 -5840
53030 252984 243347 -6150 14221 -6042
53420 253235 243962 -6148 14171 -6210
53760 253547 244528 -6130 14150 -6303
54048 253775 244979 -6200 14131 -6259
54287 253811 245256 -6298 14078 -6246
54500 253637 245400 -6333 14021 -6356
54740 253495 245602 -6360 13915 -6461
55149 253458 246123 -6364 13820 -6512
55619 253835 247020 -6306 13763 -6572
56021 254067 247775 -6235 13775 -6603
56407 253977 248376 -6187 13832 -6598
56617 254573 249016 -6150 13860 -6616
56742 254469 249158 -6100 13899 -6638
56924 254401 249456 -5998 13910 -6657
57058 254171 249577 -5892 13909 -6672
57129 254113 249705 -5874 13959 -6674
57168 254238 249899 -5890 14015 -6697
57212 254363 250093 -5893 14029 -6699
57313 254645 250492 -5903 14022 -6651
57382 254812 250767 -5920 13989 -6735
57446 255175 251104 -5933 13992 -6811
57477 255653 251459 -5849 14040 -6805
57548 255823 251694 -5814 14057 -6848
57564 256300 251994 -5862 14033 -6857
57579 256192 251986 -5833 13984 -6873
57614 256366 252144 -5815 13956 -6885
57620 256539 252225 -5790 13951 -6870
57636 256677 252338 -5737 13958 -6875
57655 256857 252466 -5730 13959 -6894
57665 256927 252536 -5742 13969 -6936
57714 256954 252647 -5704 13992 -6896
57738 257122 252802 -5670 13993 -6896
57762 257213 252880 -5706 14018 -6936
57742 257353 252910 -5642 14040 -6910
57889 256233 252344 -5582 13997 -6921
57937 255942 252271 -5596 13974 -6911
57902 256379 252386 -5648 13987 -6892
57868 255993 252095 -5672 13969 -6910
57894 255836 252067 -5664 13973 -6935
57892 255505 251875 -5653 13957 -6947
57877 255211 251686 -5665 13943 -6948
57847 255187 251641 -5718 13982 -6933
57837 254771 251395 -5747 14007 -6931
57826 254738 251376 -5744 13998 -6884
57803 254443 251197 -5743 13858 -6900
57795 254240 251056 -5726 13902 -6896
57806 254194 251075 -5617 13973 -6926
57809 253953 250967 -5658 14028 -6987
57788 253756 250770 -5741 14009 -6980
57795 253435 250612 -5682 13988 -6973
57793 253348 250548 -5617 13999 -6960
57800 252939 250296 -5602 13967 -6946
57779 252990 250279 -5641 13940 -6924
57781 252658 250076 -5661 13872 -6921
57788 252455 249958 -5655 13912 -6868
57766 252359 249888 -5736 13971 -6885
57732 252345 249813 -5804 13957 -6863
57743 251818 249491 -5676 14001 -6885
57730 251803 249462 -5668 14034 -6940
57709 251562 249275 -5797 13980 -6930
57710 251413 249212 -5807 13974 -6913
57685 251094 248951 -5762 13968 -6910
57663 251069 248903 -5675 13919 -6886
57648 250550 248561 -5725 13929 -6876
57636 250570 248548 -5763 13921 -6898
57612 250469 248442 -5758 13939 -6897
57605 250457 248352 -5780 13969 -6857
57633 249918 248078 -5777 13966 -6867
57645 250210 248215 -5757 13961 -6845
57675 250176 248238 -5734 13986 -6842
57671 249978 248125 -5746 13969 -6840
57644 250316 248190 -5759 13941 -6835
57618 250244 248110 -5716 13941 -6873
57637 250253 248156 -5749 13929 -6854
57615 250127 248053 -5797 13935 -6854
57611 249998 247995 -5758 13945 -6836
57679 249998 248135 -5746 13991 -6780
57796 250273 248500 -5824 13991 -6802
57934 250432 248843 -5845 13988 -6873
58092 250977 249430 -5688 14027 -6891
58218 251987 250165 -5614 14040 -6891
58310 251825 250248 -5714 14035 -6888
58340 252036 250390 -5674 13978 -6884
58300 252105 250353 -5586 13928 -6899
58304 251958 250278 -5580 13937 -6909
58298 251652 250091 -5603 13956 -6903
58293 251287 249906 -5679 13949 -6941
58284 251030 249759 -5711 13937 -7002
58291 250780 249638 -5633 13986 -6953
58302 250378 249450 -5662 14014 -6931
58307 250171 249353 -5723 14008 -6959
58301 250085 249287 -5644 14016 -6967
58305 249914 249192 -5626 13953 -6968
58309 249712 249104 -5663 13990 -6979
58400 250442 249264 -5792 13938 -6828
58428 250392 249300 -5811 13990 -6785
58466 250413 249359 -5795 13992 -6787
58454 250277 249272 -5817 13966 -6757
58470 250183 249281 -5902 13967 -6736
58501 250179 249343 -5936 13985 -6838
58534 250131 249414 -5824 14009 -6897
58572 249983 249422 -5687 14003 -6900
58607 250057 249544 -5768 14022 -6887
58662 250094 249699 -5853 14051 -6848
58737 250076 249842 -5798 14030 -6847
58760 250400 250016 -5776 13989 -6838
58774 250328 250009 -5809 13943 -6822
58829 250317 250099 -5856 13907 -6817
58865 250284 250143 -5873 13905 -6828
58886 250271 250182 -5833 13918 -6781
58901 250253 250190 -5851 13908 -6787
58935 250245 250250 -5892 13891 -6821
58966 250200 250280 -5815 13924 -6780
58991 250203 250326 -5773 13981 -6793
59015 250264 250399 -5853 14005 -6796
59045 250282 250479 -5934 14001 -6778
59083 250344 250600 -5944 13982 -6772
59131 250232 250653 -5905 13990 -6768
59180 250101 250701 -5897 14007 -6758
59206 250013 250721 -5933 13987 -6734
59247 250124 250852 -5961 13950 -6728
59283 250272 250966 -5907 13923 -6733
59323 250303 251020 -5864 13925 -6718
59342 250097 250963 -5899 13937 -6695
59390 250535 251216 -5930 13933 -6697
59424 250407 251198 -5949 13927 -6729
59453 250705 251359 -5964 13902 -6763
59443 250970 251444 -5971 13893 -6781
59472 250877 251474 -5983 13915 -6762
59510 250894 251566 -6003 13944 -6751
59490 250902 251560 -5989 13949 -6755
59494 250811 251561 -5965 13848 -6735
59503 250684 251540 -6013 13864 -6771
59507 250550 251515 -5931 13940 -6749
59510 250459 251528 -5886 13983 -6763
59497 250422 251510 -5975 14001 -6794
59519 250723 251708 -6011 13978 -6783
59530 250416 251604 -5973 13938 -6765
59584 250672 251824 -5946 13920 -6747
59558 250548 251734 -5961 13906 -6727
59577 250498 251765 -5963 13850 -6770
59597 250580 251831 -5971 13852 -6721
59600 250623 251861 -5991 13876 -6716
59601 250729 251920 -6046 13887 -6745
59490 252562 252510 -6054 13912 -6656
59487 252805 252608 -6049 13911 -6653
59501 252604 252524 -6025 13951 -6630
59528 252710 252635 -6006 13973 -6629
59568 252858 252753 -6023 13950 -6636
59589 252637 252694 -6019 13907 -6654
59592 253175 252942 -5989 13888 -6673
59562 253130 252876 -5996 13916 -6674
59598 253128 252971 -6014 13935 -6689
59590 253112 252973 -6027 13958 -6635
59559 251881 252635 -6011 13911 -6669
59555 251704 252525 -6016 13952 -6652
59548 251654 252507 -6007 13967 -6641
59532 251555 252433 -6052 13957 -6660
59525 251422 252378 -6060 13987 -6628
59526 251197 252270 -6000 14005 -6630
59522 251069 252202 -6089 13909 -6635
59514 251059 252195 -6097 13924 -6616
59494 250990 252133 -6071 13940 -6593
59479 250898 252069 -6043 13955 -6570
59471 250802 252015 -6055 13958 -6560
59446 250711 251925 -6083 13945 -6560
59420 250554 251804 -6091 13947 -6557
59388 250505 251711 -6080 13953 -6551
59362 250483 251658 -6066 13945 -6539
59336 250467 251594 -6071 13905 -6560
59315 250565 251580 -6071 13917 -6566
59276 250264 251354 -6076 13914 -6560
59273 250580 251489 -6086 13928 -6542
59272 250332 251356 -6094 13928 -6544
59255 250288 251281 -6112 13938 -6551
59218 250565 251326 -6109 13953 -6548
59168 250186 251094 -6088 13942 -6516
59163 250077 251057 -6094 13930 -6487
59096 249934 250881 -6122 13896 -6528
59043 249759 250754 -6068 13883 -6554
58992 249523 250587 -5988 13928 -6573
58950 249337 250462 -6027 13969 -6605
58904 249178 250343 -6081 13985 -6597
58870 248984 250219 -6064 13978 -6591
58697 247837 249549 -6105 13970 -6565
58717 247867 249624 -6093 13967 -6545
58742 247914 249715 -6078 13970 -6517
58779 247956 249836 -6087 13961 -6511
58807 247847 249857 -6110 13911 -6515
58841 247735 249900 -6094 13928 -6498
58887 247592 249969 -6080 13964 -6472
58953 247320 250021 -6088 13987 -6456
59039 247304 250239 -6102 14004 -6449
59141 247535 250572 -6117 14009 -6445
59209 247008 250529 -6132 14002 -6442
59304 246882 250788 -6153 14008 -6427
59407 246991 251172 -6159 14030 -6389
59489 247135 251546 -6183 14029 -6372
59578 247945 252282 -6376 13982 -6351
59600 248642 252946 -6657 13914 -6320
59652 249710 253893 -6768 13884 -6359
59666 250825 254813 -6620 13945 -6408
59602 251528 255489 -6385 13980 -6428
59480 251982 256000 -6318 13957 -6418
59322 252718 256616 -6358 13973 -6346
59145 253592 257234 -6344 13987 -6293
58950 254453 257743 -6328 13934 -6293
58759 255423 258308 -6314 13850 -6287
58553 256193 258633 -6290 13830 -6246
58356 256986 258933 -6292 13859 -6204
58089 257453 258967 -6297 13862 -6129
57818 258080 259063 -6312 13888 -6084
57549 258683 259129 -6366 13939 -6066
57248 259127 259003 -6404 13943 -6026
56962 259566 258928 -6437 13949 -6034
56627 259976 258770 -6501 13984 -6003
56240 260448 258572 -6515 14013 -5921
55803 260895 258232 -6501 14015 -5845
55374 261416 257959 -6560 13964 -5777
54983 261913 257746 -6674 13932 -5725
54678 262212 257505 -6759 13957 -5674
54436 262328 257243 -6729 13999 -5623
54233 262601 257116 -6594 14044 -5584
54077 262853 257080 -6502 14064 -5536
53948 263187 257137 -6523 14065 -5471
53893 263291 257138 -6598 14060 -5412
53812 263565 257215 -6636 14067 -5373
53737 263865 257281 -6611 14095 -5348
53699 263860 257178 -6644 14008 -5346
53667 263999 257198 -6655 14047 -5322
53559 264119 257073 -6674 14085 -5265
53467 263804 256752 -6674 14104 -5261
53362 263895 256605 -6708 14088 -5233
53160 263864 256300 -6753 14085 -5164
52830 264035 256297 -6693 14093 -5360
52779 263804 256133 -6607 14118 -5314
52774 264007 256258 -6663 14132 -5331
52762 264062 256269 -6645 14085 -5330
52759 263916 256172 -6627 14093 -5383
52741 263899 256153 -6728 14121 -5375
52736 263894 256161 -6748 14136 -5383
52744 263779 256100 -6671 14134 -5390
52739 263814 256116 -6592 14139 -5384
52684 264115 256227 -6579 14140 -5384
52630 264200 256217 -6643 14126 -5388
52622 264177 256189 -6669 14130 -5358
52636 264017 256102 -6600 14117 -5328
52641 263936 256030 -6556 14078 -5320
52617 264093 256066 -6542 14091 -5320
52587 264254 256089 -6538 14123 -5341
52592 264220 256007 -6544 14133 -5345
52623 264123 255891 -6514 14145 -5329
52687 263983 255759 -6477 14152 -5329
52751 263930 255700 -6485 14158 -5349
52775 264131 255718 -6499 14167 -5344
52838 263863 255491 -6495 14155 -5358
52950 263980 255580 -6545 14138 -5365
53104 263787 255553 -6607 14115 -5356
53273 263522 255515 -6581 14104 -5355
53346 263727 255673 -6548 14133 -5318
53407 263505 255599 -6605 14134 -5350
53508 263374 255592 -6663 14137 -5418
53593 263122 255489 -6566 14156 -5453
53666 262851 255381 -6476 14167 -5493
53738 262703 255339 -6505 14179 -5503
53787 262620 255299 -6477 14175 -5510
53825 262597 255261 -6420 14148 -5512
53855 262618 255270 -6507 14044 -5486
53866 262608 255219 -6516 14071 -5486
53887 262915 255389 -6516 14109 -5506
53917 262821 255306 -6463 14145 -5477
53930 263482 255664 -6436 14149 -5467
53910 263342 255544 -6531 14143 -5482
53942 263408 255601 -6534 14163 -5452
53959 263447 255595 -6431 14179 -5463
53967 263581 255655 -6478 14184 -5476
53956 263755 255737 -6556 14143 -5481
53921 263680 255654 -6532 14090 -5481
53920 263642 255619 -6472 14107 -5472
53910 263645 255615 -6429 14134 -5474
53899 263754 255682 -6441 14144 -5477
53881 263776 255681 -6474 14157 -5493
53871 263869 255739 -6468 14166 -5496
53861 263879 255732 -6425 14159 -5497
53979 263162 255312 -6473 14144 -5588
54030 262798 255195 -6462 14110 -5540
54066 263318 255561 -6533 14061 -5576
54015 263162 255463 -6593 14071 -5608
54038 262892 255346 -6488 14121 -5598
54070 262529 255158 -6429 14148 -5625
54071 262258 255028 -6521 14159 -5648
54067 262020 254904 -6510 14150 -5637
54089 261811 254819 -6414 14129 -5608
54114 261710 254799 -6376 14104 -5594
54137 261590 254748 -6392 14099 -5587
54153 261374 254646 -6448 14080 -5581
54167 261456 254741 -6516 14037 -5601
54207 261161 254616 -6483 14052 -5570
54277 261553 254934 -6430 14088 -5542
54243 261258 254732 -6519 14112 -5545
54279 261056 254683 -6532 14144 -5520
54324 260980 254676 -6415 14164 -5550
54348 260964 254709 -6434 14174 -5576
54360 260976 254725 -6475 14166 -5565
54394 260835 254702 -6443 14162 -5524
54439 260701 254681 -6398 14169 -5481
54475 260761 254754 -6448 14113 -5488
54495 260932 254885 -6451 14111 -5501
54515 260824 254816 -6414 14129 -5483
54549 260681 254788 -6364 14150 -5477
54573 260623 254800 -6361 14155 -5481
54590 260551 254765 -6376 14153 -5485
54626 260406 254722 -6379 14160 -5476
54657 260244 254668 -6371 14176 -5468
54708 260035 254608 -6357 14166 -5485
54758 259889 254578 -6452 14133 -5502
54803 259729 254521 -6432 14131 -5545
54854 259839 254637 -6412 14137 -5584
54874 260018 254731 -6456 14146 -5568
54895 260039 254735 -6455 14153 -5562
54896 260118 254793 -6380 14149 -5540
54929 260374 254959 -6359 14143 -5481
54969 260003 254743 -6433 14115 -5520
54990 260334 254965 -6469 14109 -5582
54899 260521 254976 -6380 14150 -5543
54929 260578 255073 -6459 14216 -5554
54962 260369 254976 -6417 14187 -5569
54973 260081 254825 -6345 14126 -5558
54993 260100 254840 -6313 14095 -5518
54984 260491 254995 -6296 14136 -5476
54935 260760 255057 -6320 14174 -5467
54891 260868 255071 -6333 14177 -5478
54827 261148 255157 -6297 14136 -5408
54760 261531 255286 -6385 14159 -5414
54096 259914 252966 -6325 14138 -5530
54105 259584 252731 -6334 14151 -5519
54175 259123 252535 -6289 14183 -5530
54345 258839 252605 -6258 14206 -5551
54581 258655 252842 -6244 14198 -5551
54837 258382 253064 -6236 14178 -5545
55037 257972 253087 -6242 14153 -5584
55301 257790 253307 -6274 14154 -5625
55605 257609 253579 -6286 14146 -5623
55796 257683 253841 -6278 14124 -5591
55888 257865 254069 -6350 14120 -5557
56150 257785 254358 -6389 14141 -5579
56618 257467 254835 -6335 14143 -5598
57378 258333 256449 -6347 14162 -5517
58257 259519 258300 -6413 14189 -5402
59016 260303 259803 -6407 14134 -5348
59452 261915 261389 -6246 13924 -5330
59676 260724 260963 -6053 13751 -5363
58890 256543 257247 -5914 13419 -5173
53969 247671 244328 -5752 12830 -4680
42472 229778 216396 -6350 14120 -5557
31523 231812 211535 -6389 14141 -5579
40449 280097 262656 -6335 14143 -5598
50479 302852 297856 -6347 14162 -5517
52797 305146 304728 -6413 14189 -5402
53239 305678 306282 -6407 14134 -5348
53289 306017 306787 -6246 13924 -5330
53313 306035 306997 -6053 13751 -5363
53505 305716 307195 -5914 13419 -5173
53948 304780 306240 -5752 12830 -4680
47065 278282 262817 -7020 15069 -5942
22871 162124 147935 -7004 15131 -7008
43708 195864 198111 -6174 14488 -7301
53693 225650 231600 -5568 14159 -6786
57502 239273 246177 -5609 13995 -5977
59396 247830 254344 -5843 13944 -5307
60315 253023 258899 -5995 14295 -4811
60578 255403 260794 -6041 14758 -4582
60572 256523 261569 -6010 14813 -5060
60537 257472 262233 -5962 14534 -6730
60547 257998 262677 -6031 14602 -7971
60570 258365 263031 -6227 14821 -7102
60587 258652 263335 -6290 14262 -5961
60567 258998 263583 -6195 13508 -5951
60550 259622 263943 -6132 13378 -6186
60577 260136 264244 -6141 13665 -6187
60581 260442 264365 -6170 13936 -6113
60500 260615 264291 -6168 13982 -6126
60423 260831 264246 -6154 13907 -6152
60345 261169 264258 -6162 13844 -6142
60049 259328 263075 -6301 14064 -5697
60178 258066 262651 -6357 14054 -5699
60289 256595 262121 -6341 14076 -5747
60282 256119 261970 -6249 14103 -5758
60314 255913 261939 -6229 14102 -5804
60303 256391 262223 -6291 14110 -5828
60221 256302 262152 -6340 14121 -5839
60149 256580 262297 -6367 14118 -5842
60036 257003 262467 -6368 14105 -5860
59883 257569 262678 -6367 14099 -5850
59713 258082 262838 -6426 14094 -5783
59544 258312 262806 -6476 14093 -5834
59408 258556 262821 -6381 14097 -5955
59302 258866 262888 -6293 13998 -6068
59202 259013 262842 -6455 13939 -6109
59097 259169 262795 -6672 13970 -6057
58970 259540 262839 -6730 13965 -6069
58841 259845 262816 -6688 13986 -6085
58703 260169 262788 -6578 13984 -6087
58558 260491 262736 -6501 13948 -6059
58453 260650 262648 -6499 13892 -5933
58398 260644 262526 -6408 13941 -5973
58372 260577 262432 -6380 13993 -5999
58349 260569 262353 -6399 14008 -6004
58374 260333 262201 -6419 14008 -6026
58372 260270 262145 -6427 14007 -6025
58392 260462 262238 -6427 14002 -5998
58407 260280 262101 -6418 14010 -5956
58342 260492 262120 -6400 14043 -5917
58269 260495 262007 -6446 14010 -5847
58254 260479 261962 -6437 14020 -5844
58266 260129 261764 -6470 14055 -5831
58272 259990 261662 -6521 14068 -5846
58215 260030 261599 -6513 14039 -5823
58183 259808 261410 -6482 14030 -5747
58158 259784 261349 -6518 14022 -5777
58127 259814 261287 -6558 14005 -5839
58121 259695 261162 -6467 14025 -5854
58097 259745 261140 -6548 13977 -5821
58162 259299 260889 -6511 13964 -5869
58182 259411 260937 -6408 14024 -5893
58196 259096 260741 -6342 14023 -5891
58282 258632 260511 -6332 14030 -5934
58362 258572 260522 -6367 14020 -5954
58401 258327 260393 -6418 13977 -5953
58463 258069 260272 -6408 13994 -5913
58571 257586 260055 -6408 13993 -5903
58677 257354 260003 -6511 13968 -5912
58778 257026 259876 -6549 13960 -5859
58864 256937 259902 -6492 13929 -5888
59461 256544 260075 -6492 13940 -5948
59437 256718 260051 -6504 13948 -5975
59375 257269 260184 -6520 13960 -5972
59265 257657 260185 -6492 13984 -5976
59166 258288 260285 -6467 14002 -5973
59018 259392 260490 -6492 14014 -5987
58815 260155 260418 -6471 13984 -6038
58753 260261 260213 -6430 13950 -6040
58692 260148 259897 -6473 13911 -5994
58641 260457 259795 -6514 13896 -6024
58619 260671 259650 -6464 13962 -6100
58683 260371 259339 -6381 13936 -6132
58785 260102 259171 -6361 13880 -6124
58936 259665 258951 -6329 13896 -6047
59065 259502 258846 -6244 13968 -5968
59208 258817 258543 -6223 14059 -5940
59391 258083 258256 -6253 14023 -5965
59529 257465 257998 -6260 13951 -5978
59593 257221 257877 -6287 14022 -5932
59627 257119 257781 -6302 14048 -5997
59678 256963 257684 -6367 14076 -6056
59724 256759 257581 -6372 14100 -6085
59759 256555 257495 -6304 14116 -6136
59777 256475 257447 -6303 14103 -6205
59775 256490 257422 -6332 14062 -6253
59773 256532 257401 -6325 14012 -6268
59780 256530 257371 -6290 13979 -6271
59786 256340 257257 -6309 13915 -6258
59808 256142 257115 -6312 13906 -6276
59826 256195 257138 -6296 13917 -6298
59838 256334 257162 -6257 13931 -6294
59866 256461 257158 -6225 13952 -6287
59890 256285 257042 -6225 13981 -6287
59933 256578 257172 -6238 14000 -6284
59979 256456 257126 -6250 14002 -6296
60015 256509 257167 -6245 13997 -6306
60031 256681 257262 -6256 13973 -6273
60033 256492 257197 -6311 13965 -6242
60067 256451 257236 -6309 13999 -6244
60063 256546 257296 -6265 14014 -6206
60036 256611 257310 -6259 13990 -6168
60013 256626 257303 -6269 13976 -6201
60003 256622 257322 -6240 14006 -6219
59983 256597 257328 -6188 14028 -6222
59966 256663 257357 -6215 14036 -6239
59932 257080 257544 -6252 14044 -6247
59916 256997 257491 -6228 14027 -6234
59920 257364 257702 -6209 13963 -6201
59868 257517 257715 -6213 13939 -6198
59848 257616 257770 -6220 13967 -6222
59693 258301 258033 -6205 14039 -6197
59695 258218 257998 -6207 14014 -6210
59698 258102 257927 -6207 14007 -6209
59689 258034 257879 -6201 14026 -6198
59683 258030 257852 -6189 14046 -6198
59679 258142 257875 -6184 14062 -6202
59685 257831 257687 -6223 13996 -6143
59692 257993 257774 -6217 14030 -6167
59713 258010 257781 -6190 14044 -6180
59731 257893 257743 -6178 14050 -6173
59709 258282 257926 -6198 14072 -6158
59650 258064 257769 -6203 14074 -6174
59647 258140 257827 -6195 14063 -6145
59607 258115 257768 -6202 14045 -6116
59548 258196 257767 -6236 14036 -6149
59494 258171 257718 -6114 14061 -6138
59464 258020 257617 -6159 14082 -6172
59439 257846 257492 -6212 14099 -6183
59407 257730 257410 -6191 14083 -6181
59372 257772 257399 -6160 14080 -6157
59366 257914 257503 -6151 14069 -6140
59349 257785 257405 -6166 14040 -6143
59328 258296 257637 -6190 14025 -6160
59291 258115 257507 -6205 14048 -6158
59294 258174 257543 -6197 14048 -6094
59285 258100 257471 -6245 14009 -6101
59283 258042 257450 -6276 14030 -6129
59271 257958 257398 -6213 14082 -6124
59262 257880 257354 -6198 14086 -6151
59258 257818 257314 -6225 14073 -6139
59255 257771 257281 -6227 14058 -6130
59245 257761 257263 -6209 14051 -6143
59232 257800 257271 -6193 14057 -6147
59225 257783 257261 -6202 14062 -6140
59227 257754 257225 -6238 14041 -6136
59218 257717 257190 -6286 13991 -6117
59216 257603 257102 -6282 13987 -6110
59213 257544 257051 -6245 14016 -6119
59216 257478 257018 -6235 14024 -6119
59228 257373 256942 -6234 14032 -6124
59240 257266 256854 -6234 14038 -6135
59243 256992 256715 -6236 14029 -6150
59261 257326 256882 -6232 14025 -6156
59306 257053 256779 -6224 14037 -6170
59339 257154 256865 -6255 14051 -6168
59321 257222 256880 -6302 14024 -6152
59307 256807 256677 -6289 13993 -6137
59323 256774 256688 -6261 14009 -6105
59286 256654 256581 -6287 14007 -6131
59236 256444 256447 -6298 14034 -6138
58980 254002 254926 -6328 14022 -6177
58955 253821 254787 -6294 14030 -6164
58931 253704 254709 -6277 14017 -6193
58907 253534 254575 -6312 14013 -6210
58881 253433 254482 -6344 13936 -6187
58864 253332 254398 -6308 13940 -6191
58839 253371 254382 -6271 13969 -6204
58806 253113 254181 -6283 13960 -6200
58808 253021 254164 -6302 13969 -6200
58784 252859 254027 -6293 13977 -6207
58753 252733 253899 -6272 13943 -6209
58738 252522 253756 -6269 13960 -6204
58721 252434 253653 -6287 13990 -6193
58696 252103 253444 -6305 13918 -6180
58690 252252 253454 -6314 13895 -6191
58678 252247 253415 -6315 13946 -6205
58657 252261 253377 -6304 13955 -6214
58678 252486 253501 -6303 13948 -6206
58664 251958 253152 -6292 14007 -6192
58670 252311 253339 -6262 14020 -6192
58615 252157 253201 -6260 13985 -6161
58605 252139 253217 -6296 13958 -6151
58568 252060 253142 -6313 13970 -6165
58504 251882 253010 -6258 14009 -6174
58458 251687 252890 -6266 13988 -6184
58409 251607 252802 -6334 13997 -6198
58367 251724 252818 -6301 14003 -6212
58341 251871 252878 -6238 13988 -6222
58312 252139 252998 -6228 13974 -6221
58301 252070 252948 -6232 13962 -6204
58299 251932 252885 -6245 13948 -6188
58282 252101 252940 -6247 13964 -6171
58262 251948 252854 -6225 13994 -6128
58278 251839 252822 -6285 13991 -6132
58261 251570 252665 -6363 13970 -6121
58256 251502 252652 -6317 13980 -6120
58248 251478 252635 -6295 14015 -6182
58248 251413 252607 -6340 14030 -6203
58247 251275 252560 -6339 14025 -6217
58253 251279 252590 -6292 14013 -6226
58261 251344 252651 -6251 14015 -6220
58272 251272 252643 -6257 14016 -6223
58272 251125 252584 -6286 14007 -6222
58274 251034 252555 -6287 14001 -6212
58273 250927 252514 -6273 13954 -6163
58263 250934 252501 -6262 13964 -6190
58261 251060 252572 -6272 13975 -6216
58277 251296 252705 -6276 13972 -6232
58289 251229 252659 -6259 13964 -6245
58283 251044 252566 -6250 13966 -6245
58175 250666 252517 -6255 13957 -6190
58166 250732 252558 -6281 13937 -6179
58179 250966 252751 -6330 13902 -6175
58194 250712 252659 -6369 13879 -6141
58227 251093 252918 -6330 13914 -6097
58206 250930 252816 -6344 13961 -6126
58228 250981 252886 -6368 13999 -6132
58241 250978 252909 -6287 14025 -6128
58244 251003 252935 -6272 14039 -6161
58244 251039 252980 -6315 14034 -6159
58253 251067 253008 -6332 14014 -6159
58253 251016 252982 -6314 14002 -6159
58263 250995 253010 -6302 13993 -6140
58274 251040 253066 -6353 13970 -6097
58280 251125 253131 -6384 13972 -6087
58286 251071 253123 -6359 13998 -6106
58301 251020 253126 -6317 14011 -6106
58306 250994 253135 -6285 13994 -6117
58304 250878 253071 -6291 13987 -6133
58325 250994 253165 -6309 14021 -6149
58332 251005 253175 -6320 14006 -6166
58348 251066 253220 -6321 13970 -6174
58365 250944 253158 -6315 13966 -6155
58376 250900 253163 -6349 13935 -6100
58412 251342 253412 -6384 13947 -6087
58434 251255 253372 -6354 13985 -6126
58453 251558 253565 -6321 13988 -6104
58433 251704 253615 -6328 13978 -6073
58425 251671 253622 -6374 13972 -6114
58411 251597 253595 -6361 14010 -6126
58378 251663 253634 -6281 14041 -6131
58335 251545 253556 -6321 14044 -6151
58310 251431 253497 -6388 14042 -6156
58287 251401 253492 -6329 13955 -6113
58262 251277 253444 -6303 13966 -6126
58253 251288 253477 -6322 13956 -6128
58245 251532 253632 -6349 13933 -6137
58238 251279 253499 -6332 13982 -6139
58280 251708 253804 -6291 14014 -6103
58256 251689 253759 -6370 13995 -6098
58261 251559 253721 -6427 14007 -6100
58277 251535 253714 -6324 14031 -6100
58276 251650 253798 -6338 13988 -6090
58267 251657 253798 -6438 13963 -6070
58273 251727 253857 -6442 13972 -6078
58269 251600 253790 -6377 13974 -6083
58267 251576 253781 -6317 13997 -6095
58274 251690 253858 -6327 14007 -6097
58272 251736 253890 -6370 13997 -6094
58283 251689 253871 -6372 13988 -6089
58299 251658 253885 -6332 13992 -6097
58304 251672 253890 -6304 13991 -6117
58304 251759 253952 -6429 13926 -6076
58298 251784 253945 -6398 13951 -6097
58306 251839 253973 -6355 13960 -6128
58304 251824 253969 -6343 13957 -6137
58319 251944 254009 -6357 13981 -6129
58311 251671 253852 -6404 13992 -6115
58340 252030 254068 -6407 13999 -6135
58370 252016 254079 -6371 13997 -6132
58383 251928 254056 -6392 13998 -6083
58392 252369 254284 -6452 13960 -6095
58354 252222 254179 -6456 13943 -6097
58357 252220 254223 -6362 13986 -6108
58327 252196 254180 -6370 14021 -6155
58289 252157 254154 -6447 14029 -6165
58253 251988 254061 -6404 14023 -6153
58232 251883 253994 -6317 14011 -6140
58220 251814 253979 -6290 13998 -6119
58206 251974 254092 -6328 13979 -6093
58187 251946 254081 -6382 13953 -6080
58193 252138 254220 -6396 13935 -6102
58198 251980 254149 -6364 13913 -6047
58212 252377 254361 -6425 13919 -6033
58189 252191 254256 -6496 13968 -6061
58211 252162 254251 -6400 14007 -6055
58213 252001 254141 -6346 14026 -6098
58218 251870 254077 -6413 14026 -6108
58220 251797 254066 -6460 14016 -6108
58221 251741 254043 -6455 14009 -6098
58221 251559 253951 -6400 14008 -6073
58235 251500 253932 -6357 14005 -6061
58247 251495 253940 -6405 13966 -6044
58249 251404 253890 -6444 13946 -6026
58257 251250 253811 -6412 13979 -6039
58274 251130 253768 -6381 13997 -6054
58281 251045 253710 -6371 13999 -6080
58285 251042 253703 -6389 14012 -6095
58291 251111 253732 -6428 14008 -6083
58296 250999 253665 -6426 13995 -6069
58301 250900 253584 -6391 13997 -6065
58307 250829 253530 -6388 14004 -6080
58318 250939 253579 -6461 13917 -6029
58325 250875 253518 -6478 13964 -6049
58330 250727 253449 -6470 14004 -6068
58365 251043 253629 -6416 14004 -6065
58378 250668 253426 -6386 14005 -6012
58396 250952 253592 -6432 13986 -6032
58361 251053 253587 -6467 13989 -6067
58335 250884 253483 -6389 14030 -6074
58314 250788 253424 -6384 14033 -6101
58251 250659 253286 -6490 13959 -6028
58201 250494 253160 -6385 13965 -6039
58159 250292 253014 -6331 13962 -6038
58123 250068 252860 -6353 13953 -6042
58084 249909 252754 -6389 13951 -6058
58054 249775 252649 -6373 13969 -6084
58042 250041 252784 -6314 13999 -6022
58017 249626 252521 -6346 14010 -6010
58040 249879 252688 -6434 14028 -6032
57986 249644 252455 -6364 13985 -5998
57983 249521 252387 -6418 14009 -6017
57984 249489 252330 -6420 14027 -6033
57968 249376 252249 -6359 14014 -6042
57961 249176 252139 -6311 14029 -6045
57964 248971 252037 -6302 14045 -6059
57958 248729 251909 -6359 14026 -6074
57955 248604 251841 -6410 14000 -6070
57965 248479 251805 -6383 14001 -6070
57959 248414 251763 -6358 13993 -6061
57951 248326 251702 -6395 13937 -6045
57951 248344 251715 -6409 13902 -6059
57955 248430 251754 -6376 13929 -6087
57969 248573 251844 -6368 13947 -6102
57964 248489 251798 -6363 13946 -6103
57969 248522 251826 -6340 13971 -6099
57977 248643 251898 -6343 13996 -6088
57996 248799 251978 -6339 14012 -6101
57990 248491 251793 -6319 13990 -6100
58020 248782 251964 -6335 13977 -6052
58062 248945 252072 -6414 13955 -6004
58076 248735 251948 -6471 13948 -6049
58098 249021 252110 -6405 13997 -6111
58076 249019 252111 -6341 14035 -6140
58088 248987 252158 -6395 14050 -6159
58064 248981 252149 -6386 14044 -6141
58026 248954 252115 -6308 14008 -6132
58000 248935 252114 -6286 13964 -6120
57992 248978 252140 -6296 13954 -6117
57982 248871 252085 -6314 13957 -6127
57985 248868 252105 -6366 13927 -6098
57989 249135 252261 -6373 13923 -6024
57994 249000 252200 -6405 13972 -6063
58035 249255 252395 -6446 14025 -6105
58037 249399 252454 -6352 14045 -6089
58035 249277 252391 -6326 14042 -6119
58075 249377 252503 -6373 14049 -6106
58087 249366 252502 -6389 14037 -6082
58101 249439 252570 -6362 14019 -6089
58104 249396 252549 -6322 14026 -6093
58109 249397 252563 -6366 13927 -6098
58122 249468 252612 -6373 13923 -6024
58135 249522 252659 -6405 13972 -6063
58147 249536 252683 -6446 14025 -6105
58162 249573 252723 -6352 14045 -6089
58185 249626 252797 -6326 14042 -6119
58205 249470 252724 -6373 14049 -6106
58213 249396 252689 -6389 14037 -6082
58246 249598 252835 -6362 14019 -6089
58266 249594 252853 -6322 14026 -6093
58287 249574 252853 -6411 13949 -6000
58310 249548 252870 -6432 13978 -6004
58337 249682 252961 -6400 14018 -6032
58374 249914 253104 -6353 14020 -6049
58397 249714 253032 -6335 14007 -6063
58442 249968 253211 -6344 14010 -6078
58487 250025 253292 -6378 13993 -6090
58515 250032 253322 -6387 13993 -6087
58541 250417 253555 -6360 14007 -6085
58527 250306 253504 -6374 13986 -6084
58516 250661 253880 -6456 13983 -6063
58506 250533 253820 -6424 13956 -6070
58539 250632 253899 -6333 13966 -6084
58546 250473 253809 -6321 13972 -6061
58545 250440 253805 -6366 13991 -6055
58545 250460 253804 -6411 13963 -6076
58548 250424 253795 -6403 13955 -6073
58553 250335 253732 -6340 13985 -6021
58550 250473 253787 -6408 14011 -6037
58530 250646 253827 -6525 14015 -6014
58367 251895 253923 -6435 13974 -6009
58367 251616 253771 -6456 13954 -5989
58395 251749 253857 -6452 13991 -6009
58439 251503 253769 -6447 14007 -6022
58460 251407 253731 -6441 14025 -6017
58479 251476 253794 -6398 14020 -6018
58479 251011 253608 -6364 14005 -6027
58534 250657 253532 -6366 14010 -6021
58524 250310 253381 -6349 14016 -6015
58546 250078 253355 -6369 14021 -6014
58600 249514 253180 -6474 13991 -5983
58715 249245 253287 -6405 14003 -5957
58861 248855 253374 -6407 14009 -5951
59027 248514 253551 -6430 14014 -5985
59178 248650 253966 -6369 14081 -6004
59432 248729 254553 -6315 14114 -6023
59515 248492 254606 -6361 14111 -6032
59726 248704 255171 -6375 14097 -6020
60462 249924 257297 -6319 14073 -5996
61272 251189 259424 -6393 13994 -5892
61783 251585 260520 -6446 14014 -5826
62126 252928 261879 -6423 13978 -5853
60950 246236 256233 -6355 13964 -5845
57531 238853 246099 -6342 13992 -5808
51351 231938 230049 -6406 13974 -5846
39139 214560 200877 -6465 13987 -5884
28663 219127 198374 -6450 14051 -5872
33668 257247 237942 -6401 14107 -5751
40710 282891 267477 -6397 14090 -5642
46689 296300 288198 -6403 13911 -5622
48615 298940 292568 -6242 13526 -5702
46938 290100 277803 -5872 12805 -5434
30447 219662 199894 -5789 12850 -5082
28705 160737 155697 -6031 13907 -5378
47640 200592 208873 -6432 14788 -5610
53156 213838 226335 -6638 14821 -6268
55802 221121 235034 -6366 14268 -7164
57480 227062 241260 -6114 13937 -7131
58834 233095 247073 -6121 13740 -6774
59751 238577 251913 -6441 13849 -6487
60132 242037 254683 -6735 14260 -6794
60169 243425 255677 -6641 14607 -7784
60165 244418 256409 -6421 14951 -7791
60180 245228 257038 -6220 14643 -6740
60244 246013 257762 -6082 13709 -6227
60277 246377 258175 -6117 13238 -6413
60256 246238 258195 -6187 13294 -6570
60265 246569 258544 -6225 13554 -6434
60310 247737 259443 -6206 13757 -6200
60302 248860 260249 -6158 13735 -6048
60276 249507 260725 -6154 13636 -6095
60241 250046 261122 -6160 13625 -6181
60221 250855 261679 -6136 13730 -6212
60162 251324 261956 -6141 13850 -6219
60123 252162 262452 -6168 13939 -6226
60027 252734 262692 -6189 13967 -6283
59912 253332 262912 -6282 13962 -6302
59810 253723 262987 -6371 14008 -6237
59685 253881 262916 -6347 14078 -6133
59532 254275 262970 -6322 14134 -5971
59363 254874 263095 -6289 14116 -5926
59179 255480 263189 -6303 14100 -5913
59001 256152 263320 -6303 14092 -5855
58809 256857 263424 -6254 14098 -5814
58596 257446 263436 -6234 14088 -5785
58321 258020 263300 -6233 14077 -5729
58063 258631 263195 -6217 14081 -5719
57803 259208 263090 -6197 14061 -5742
57542 259709 262934 -6205 14035 -5636
57287 260085 262712 -6248 14070 -5600
57038 260506 262536 -6296 14113 -5574
56761 260901 262309 -6320 14121 -5584
56461 261244 261976 -6304 14119 -5584
56265 261532 261763 -6290 14153 -5542
56181 261340 261458 -6291 14201 -5502
56059 261627 261430 -6298 14230 -5508
55981 261840 261436 -6310 14214 -5508
55908 261903 261342 -6445 14133 -5542
55738 262049 261144 -6406 14103 -5512
55613 261865 260835 -6332 14136 -5474
55565 261789 260740 -6308 14174 -5508
55506 261608 260576 -6315 14158 -5528
55414 261525 260406 -6327 14119 -5481
55292 261527 260216 -6336 14079 -5541
55154 261602 260056 -6327 14085 -5608
54988 261673 259866 -6260 14142 -5607
54864 261651 259628 -6288 14175 -5610
54723 261729 259446 -6411 14138 -5606
54496 261848 259140 -6412 14090 -5657
54386 261538 258727 -6356 14107 -5716
54046 261430 257653 -6381 14136 -5672
54072 261137 257434 -6390 14125 -5676
54115 260852 257298 -6377 14133 -5655
54178 260511 257152 -6339 14125 -5692
54246 260056 256897 -6358 14132 -5721
54316 259972 256925 -6409 14099 -5714
54390 259541 256699 -6437 14096 -5720
54478 259426 256683 -6459 14071 -5676
54548 259173 256570 -6464 14059 -5631
54583 259111 256570 -6460 14117 -5652
54664 258994 256537 -6466 14120 -5684
54801 258675 256501 -6452 14077 -5738
54877 258358 256327 -6421 14067 -5738
54885 258399 256344 -6399 14066 -5733
54914 258027 256114 -6423 14045 -5768
54962 257992 256142 -6480 14083 -5793
54976 257740 255950 -6498 14084 -5756
55002 257623 255844 -6489 13935 -5679
55025 257612 255822 -6517 13941 -5724
55074 257458 255746 -6474 14026 -5756
55170 256869 255432 -6434 14047 -5785
55290 256256 255159 -6490 14068 -5811
55430 255976 255113 -6465 14072 -5822
55658 254923 254736 -6369 14051 -5849
56081 253338 254398 -6316 14037 -5822
56685 251013 253928 -6306 14032 -5768
57592 250535 255096 -6418 13989 -5726
58415 250573 256569 -6436 14018 -5667
58937 249776 257241 -6464 14082 -5621
59318 249510 257931 -6606 14135 -5577
59433 249191 257953 -6638 14160 -5635
59514 248998 257929 -6520 14131 -5838
59553 248584 257699 -6549 14110 -5951
59558 248264 257475 -6680 14092 -6006
59567 248525 257620 -6723 14000 -6092
59584 249167 257989 -6683 13888 -6143
59580 249586 258192 -6611 13861 -6099
59585 249989 258408 -6568 13905 -6029
59600 250354 258634 -6562 13907 -6029
59599 250562 258742 -6577 13860 -6050
59608 250643 258798 -6577 13860 -6005
59620 250601 258749 -6551 13896 -5939
59620 250265 258478 -6536 13931 -5911
59632 249987 258302 -6562 13960 -5893
59689 249672 258114 -6590 13983 -5856
59710 248937 257587 -6578 14009 -5825
59723 248500 257281 -6589 14001 -5768
59703 248162 257021 -6601 14012 -5741
59723 247943 256909 -6518 14037 -5782
59727 247550 256649 -6469 14040 -5759
59731 249812 257952 -6508 13980 -5884
59736 249998 258047 -6500 14023 -5808
59738 250198 258182 -6559 14037 -5803
59743 250321 258257 -6538 14059 -5771
59752 250481 258343 -6450 14075 -5766
59764 250712 258475 -6551 14006 -5763
59792 250997 258645 -6522 14032 -5799
59824 251206 258779 -6460 14063 -5801
59838 251282 258782 -6426 14076 -5819
59870 251317 258764 -6444 14065 -5834
59918 251375 258741 -6463 14055 -5841
59965 251418 258706 -6432 14061 -5836
60014 251276 258558 -6373 14066 -5827
60055 251264 258495 -6319 14061 -5822
60136 251431 258558 -6394 14007 -5757
60189 251193 258355 -6414 14019 -5751
60242 251214 258338 -6415 14035 -5786
60333 251412 258462 -6433 14050 -5798
60395 251297 258388 -6440 14111 -5810
60457 251687 258638 -6442 14095 -5805
60457 251762 258685 -6476 14047 -5747
60486 251871 258806 -6527 14058 -5771
60503 252232 259067 -6538 14085 -5830
60458 252364 259147 -6475 14108 -5839
60454 252597 259342 -6470 14083 -5868
60441 252836 259527 -6562 14082 -5880
60417 252986 259629 -6523 14086 -5878
60402 253038 259672 -6391 14065 -5885
60401 253424 259908 -6340 14082 -5895
60411 253660 260072 -6328 14068 -5900
60428 253784 260189 -6325 14029 -5897
60429 254208 260431 -6333 14035 -5904
60409 254325 260491 -6310 14059 -5847
60440 254441 260578 -6377 14059 -5824
60453 254555 260658 -6485 14006 -5823
60433 254702 260723 -6416 14008 -5809
60468 255086 261019 -6348 14071 -5845
60512 255538 261352 -6398 14103 -5846
60499 255857 261511 -6448 14107 -5828
60485 255960 261570 -6430 14088 -5846
60507 256453 261899 -6367 14085 -5871
60503 256842 262153 -6329 14117 -5873
60475 257005 262212 -6378 14092 -5853
60492 257309 262388 -6438 14053 -5847
60503 257428 262464 -6441 14049 -5815
60521 257484 262502 -6407 14029 -5782
60530 257552 262537 -6345 14026 -5832
60537 257808 262666 -6322 14032 -5865
60555 257645 262570 -6339 14049 -5879
60547 257831 262692 -6349 14065 -5908
60537 258093 262961 -6312 14049 -5959
60513 257990 262873 -6276 14038 -5933
60510 258364 263104 -6302 14036 -5919
60519 258119 262964 -6430 14012 -5892
60554 258605 263262 -6372 14039 -5844
60498 258575 263216 -6358 14063 -5856
60513 258527 263228 -6412 14082 -5874
60544 258588 263263 -6366 14109 -5835
60561 258414 263179 -6330 14120 -5869
60562 258350 263149 -6404 14120 -5863
60570 258380 263171 -6435 14113 -5846
60581 258215 263075 -6388 14094 -5854
60597 258197 263077 -6393 14038 -5800
60603 258271 263122 -6421 14039 -5821
60603 258197 263076 -6425 14068 -5832
60618 258207 263106 -6399 14083 -5827
60635 258137 263063 -6359 14079 -5842
60640 258043 263004 -6353 14077 -5850
60641 258050 262986 -6353 14069 -5872
60635 258124 263007 -6348 14063 -5900
60650 258149 263018 -6351 14065 -5901
60650 258142 262951 -6354 14057 -5876
60654 257942 262826 -6407 14022 -5835
60679 258217 262994 -6432 14018 -5845
60721 258158 262992 -6393 14043 -5856
60741 258098 262993 -6386 14051 -5812
60727 258415 263151 -6426 14042 -5829
60718 258142 263009 -6444 14061 -5856
60754 257910 262898 -6354 14109 -5854
60736 257751 262790 -6340 14127 -5881
60712 257653 262742 -6442 14115 -5902
60695 257394 262573 -6453 14100 -5900
60692 257198 262441 -6406 14056 -5861
60693 256912 262271 -6369 14022 -5847
60685 256584 262061 -6353 14038 -5864
60675 256482 261985 -6389 14032 -5865
60693 256219 261845 -6408 14039 -5890
60717 255953 261706 -6362 14079 -5832
60708 256068 261711 -6394 14079 -5814
60674 255717 261459 -6493 14065 -5838
60696 255576 261351 -6445 14097 -5811
60689 255289 261145 -6359 14115 -5841
60691 255204 261072 -6508 14031 -5830
60681 255030 260935 -6478 14036 -5840
60684 254971 260861 -6407 14052 -5846
60675 254712 260670 -6367 14072 -5840
60664 254610 260582 -6412 14070 -5833
60647 254627 260538 -6477 14060 -5839
60628 254582 260458 -6460 14067 -5845
60616 254414 260321 -6396 14064 -5835
60604 254299 260206 -6383 14060 -5821
60586 254131 260059 -6481 14010 -5790
60571 253984 259927 -6463 14021 -5790
60561 253873 259817 -6425 14030 -5816
60549 253775 259715 -6412 14021 -5847
60558 253861 259723 -6463 14038 -5864
60543 253676 259549 -6491 14083 -5860
60525 253606 259474 -6436 14067 -5846
60558 253526 259419 -6403 14031 -5825
60554 253126 259109 -6464 14006 -5830
60562 253421 259264 -6470 14011 -5825
60506 253246 259084 -6408 14053 -5861
60485 252808 258805 -6468 14085 -5887
60457 252601 258623 -6449 14087 -5898
60388 252300 258355 -6358 14061 -5920
60332 252046 258145 -6329 14060 -5900
60292 252007 258059 -6357 14018 -5861
60245 251685 257804 -6404 14012 -5865
60222 251549 257693 -6418 14055 -5905
60170 251354 257515 -6387 14041 -5836
60161 251577 257644 -6436 14004 -5802
60155 251104 257333 -6498 14019 -5807
60156 251508 257544 -6412 14072 -5790
60102 251184 257282 -6344 14073 -5874
60126 251352 257404 -6429 14072 -5903
60187 251857 257748 -6499 14115 -5848
60203 251862 257747 -6415 14119 -5847
60202 251658 257655 -6316 14090 -5854
60262 251893 257852 -6325 14095 -5831
60286 251741 257763 -6395 14087 -5824
60338 251947 257951 -6455 14040 -5776
60353 251989 257982 -6430 14024 -5750
60362 251884 257927 -6354 14043 -5766
60374 251784 257865 -6319 14052 -5783
60380 251772 257849 -6333 14075 -5779
60377 251645 257751 -6371 14091 -5770
60354 251569 257670 -6379 14088 -5786
60347 251664 257721 -6356 14088 -5800
60366 251838 257830 -6375 14100 -5782
60357 251756 257724 -6403 14115 -5777
60333 251519 257583 -6455 14040 -5776
60360 251673 257691 -6430 14024 -5750
60399 251778 257781 -6354 14043 -5766
60396 251721 257750 -6319 14052 -5783
60403 252109 257978 -6333 14075 -5779
60371 252107 257976 -6371 14091 -5770
60394 252379 258175 -6379 14088 -5786
60379 252837 258423 -6356 14088 -5800
60358 253273 258691 -6375 14100 -5782
60338 253423 258773 -6403 14115 -5777
60309 253448 258768 -6436 14023 -5711
60283 253518 258836 -6448 14058 -5701
60255 253638 258898 -6465 14083 -5739
60244 254127 259203 -6402 14114 -5765
60220 253924 259082 -6335 14126 -5801
60264 254459 259463 -6443 14123 -5835
60220 254505 259445 -6499 14109 -5824
60232 254563 259507 -6396 14103 -5817
60249 254514 259477 -6364 14091 -5811
60246 254411 259423 -6424 14042 -5809
60235 254284 259336 -6472 14017 -5819
60238 254185 259279 -6466 14041 -5849
60250 254194 259300 -6410 14057 -5795
60243 254085 259238 -6449 14057 -5804
60249 254094 259268 -6514 14069 -5827
60238 253967 259188 -6414 14076 -5788
60242 253951 259191 -6362 14083 -5798
60235 253717 259076 -6423 14096 -5792
60239 253716 259099 -6473 14096 -5808
60230 253654 259052 -6491 14059 -5803
60241 253718 259105 -6467 14025 -5778
60274 253819 259186 -6451 14048 -5774
60276 253737 259127 -6493 14069 -5778
60297 253997 259316 -6519 14058 -5780
60333 254130 259395 -6477 14067 -5763
60324 253893 259214 -6426 14077 -5745
60388 254375 259564 -6440 14063 -5758
60430 254415 259614 -6483 14064 -5776
60445 254495 259679 -6500 14053 -5771
60478 254998 260019 -6495 14032 -5777
60448 254926 259974 -6497 14022 -5755
60459 254902 259981 -6489 14028 -5740
60459 254896 259988 -6470 14045 -5748
60407 254821 259919 -6495 14052 -5760
60369 254735 259856 -6512 14067 -5792
60363 254751 259868 -6480 14070 -5765
60354 254891 259976 -6479 14069 -5678
60310 254753 259876 -6547 14064 -5686
60309 254956 260013 -6559 14072 -5756
60315 255195 260159 -6445 14095 -5771
60325 255249 260199 -6432 14086 -5751
60260 255547 260225 -6549 14078 -5776
60221 255430 260145 -6553 14085 -5806
60255 255491 260207 -6465 14089 -5796
60256 255319 260096 -6418 14071 -5798
60258 255373 260139 -6445 14089 -5803
60247 255429 260169 -6524 14029 -5789
60250 255456 260210 -6575 13970 -5784
60246 255444 260219 -6513 14028 -5742
60254 255545 260299 -6488 14043 -5756
60258 255649 260357 -6588 14002 -5760
60245 255559 260280 -6569 14016 -5708
60245 255574 260295 -6473 14075 -5746
60258 255733 260396 -6535 14085 -5755
60242 255788 260396 -6612 14075 -5765
60231 255731 260341 -6605 14058 -5788
60240 255742 260360 -6547 14056 -5797
60241 255855 260394 -6502 14100 -5807
60239 256017 260479 -6534 14046 -5796
60222 256207 260529 -6586 13979 -5766
60208 255979 260382 -6620 13973 -5727
60225 256359 260625 -6592 13953 -5726
60239 256509 260715 -6557 13981 -5756
60243 256601 260785 -6586 14009 -5774
60208 257192 261073 -6607 14019 -5766
60135 257166 261019 -6567 14022 -5770
60144 257231 261101 -6556 14024 -5793
60111 257131 261014 -6559 14023 -5795
60052 257317 261080 -6560 14024 -5781
60003 257487 261128 -6636 14035 -5751
59948 257707 261157 -6666 13967 -5718
59868 258324 261373 -6654 13989 -5667
59767 259479 261842 -6670 14000 -5722
59616 259871 261802 -6645 14029 -5749
59476 260483 261972 -6511 14075 -5749
59397 260756 262021 -6503 14086 -5771
59279 261452 262245 -6609 14076 -5792
59168 261463 262119 -6570 14069 -5831
59150 261619 262169 -6463 14056 -5816
59131 261709 262166 -6432 14013 -5771
59106 261697 262127 -6460 13959 -5765
59074 261514 261988 -6495 13957 -5765
59076 261392 261943 -6564 14004 -5739
59080 261294 261896 -6545 14044 -5686
59094 261245 261894 -6497 14067 -5718
59099 261274 261919 -6540 14094 -5745
59082 261176 261864 -6477 14124 -5703
59077 261191 261883 -6418 14131 -5736
59095 261193 261890 -6469 14127 -5757
59106 261090 261826 -6502 14104 -5752
59104 261131 261833 -6490 14052 -5715
59103 261095 261804 -6425 14054 -5708
59131 260868 261700 -6343 14092 -5761
59160 260735 261641 -6338 14099 -5793
59181 260644 261592 -6364 14101 -5791
59205 260605 261571 -6351 14099 -5794
59230 260281 261385 -6322 14093 -5821
59256 260263 261393 -6304 14093 -5827
59302 260379 261470 -6320 14087 -5827
59354 260274 261494 -6358 14075 -5835
59379 260736 261762 -6396 14041 -5803
59355 260650 261715 -6390 14039 -5799
59395 260407 261654 -6361 14076 -5836
59424 260183 261575 -6347 14082 -5852
59409 260025 261493 -6344 14093 -5843
59395 259771 261367 -6385 14129 -5826
59392 259452 261207 -6388 14149 -5845
59397 259257 261101 -6357 14134 -5826
59395 259072 261015 -6340 14111 -5806
59392 258724 260834 -6354 14093 -5842
59391 258750 260873 -6370 14082 -5817
59416 258244 260616 -6310 14088 -5809
59447 258606 260836 -6333 14101 -5866
59435 258220 260592 -6395 14104 -5900
59465 257852 260421 -6345 14106 -5898
59495 257583 260282 -6286 14089 -5881
59493 257402 260168 -6268 14052 -5893
59485 257279 260084 -6299 14040 -5902
59497 257014 259932 -6344 14044 -5893
59505 256712 259760 -6348 14066 -5910
59504 256521 259650 -6413 14013 -5811
59496 256643 259709 -6475 14038 -5839
59504 256484 259597 -6391 14087 -5820
59499 256304 259484 -6357 14115 -5864
59506 256170 259405 -6425 14110 -5879
59503 256044 259317 -6438 14087 -5890
59507 255898 259209 -6389 14067 -5864
59516 255879 259208 -6341 14073 -5832
59527 255626 259035 -6339 14083 -5835
59525 255671 259049 -6405 14039 -5828
59530 255704 259024 -6464 13996 -5803
59539 255531 258895 -6429 14022 -5789
59546 255372 258783 -6370 14055 -5802
59585 255435 258843 -6357 14074 -5826
59616 255299 258770 -6366 14080 -5843
59623 255394 258821 -6360 14061 -5849
59584 255436 258801 -6351 14066 -5836
59576 255456 258825 -6361 14052 -5828
59561 255444 258794 -6372 14051 -5842
59504 255294 258671 -6412 14053 -5821
59465 255142 258556 -6459 14051 -5781
59448 255040 258493 -6432 14064 -5778
59417 254896 258371 -6400 14062 -5768
59385 254880 258345 -6426 14084 -5735
59359 254998 258390 -6434 14097 -5788
59376 255066 258458 -6367 14113 -5833
59391 255037 258463 -6313 14124 -5835
59380 255200 258537 -6396 14135 -5849
59386 255074 258476 -6416 14136 -5831
59424 255020 258487 -6335 14107 -5813
59428 254856 258368 -6344 14045 -5777
59428 254852 258379 -6376 14011 -5750
59423 254757 258326 -6389 14010 -5781
59431 254651 258286 -6396 14028 -5821
59436 254727 258337 -6347 14069 -5773
59428 254906 258439 -6377 14087 -5766
59428 255237 258675 -6434 14099 -5779
59440 255690 258981 -6362 14115 -5761
59442 255917 259121 -6348 14114 -5795
59428 256040 259213 -6420 14107 -5798
59427 256310 259382 -6466 14067 -5775
59420 256682 259597 -6447 14048 -5757
59409 257031 259768 -6405 14079 -5768
59403 257267 259904 -6423 14087 -5797
59398 257425 259949 -6469 14080 -5811
59375 257331 259828 -6459 14075 -5823
59383 257468 259942 -6391 14085 -5848
59429 257796 260172 -6360 14094 -5843
59465 257840 260237 -6396 14076 -5827
59437 258361 260526 -6422 14057 -5848
59352 258707 260629 -6463 13976 -5814
59412 258660 260734 -6424 14009 -5847
59403 258674 260755 -6409 14040 -5862
59394 258480 260637 -6429 14070 -5873
59412 258206 260558 -6418 14083 -5896
59460 257907 260476 -6379 14068 -5904
59514 257652 260434 -6375 14069 -5849
59529 257420 260346 -6412 14073 -5849
59537 257377 260362 -6426 14086 -5902
59575 257248 260351 -6345 14064 -5850
59627 256913 260246 -6385 14119 -5906
59668 256866 260270 -6329 14078 -5912
59668 256319 259980 -6271 14060 -5896
59797 255988 259949 -6263 14059 -5893
59854 255839 259949 -6294 14054 -5901
59913 255523 259883 -6327 14048 -5914
59949 255021 259668 -6310 14056 -5916
60029 254417 259492 -6282 14078 -5842
60292 254100 259746 -6440 14073 -5835
60681 254590 260705 -6353 14087 -5800
61371 255555 262423 -6344 14099 -5871
62167 256239 264058 -6408 14115 -5886
62751 255437 264485 -6398 14116 -5860
63086 255314 264918 -6364 14112 -5882
63463 255061 265389 -6346 14112 -5884
62748 249090 261091 -6366 14114 -5905
58963 245232 252374 -6394 14098 -5907
51361 239401 234500 -6433 14100 -5844
36975 221563 203822 -6480 14127 -5768
30716 233738 213864 -6528 14166 -5681
38639 273755 257457 -6531 14122 -5599
47858 297929 289531 -6445 13999 -5584
51272 303410 300967 -6313 13773 -5706
52398 304033 303561 -6051 12830 -5495
52668 302837 301496 -5876 11865 -4825
46314 278203 263483 -6051 12662 -4683
23851 172933 157240 -6538 14425 -4776
40238 185056 187075 -6774 15052 -5563
52295 221594 227837 -6526 14546 -6822
55812 231948 240128 -6244 14208 -6817
57382 238914 246960 -6098 14088 -6221
58142 244676 251703 -6179 14133 -5817
58458 249665 255165 -6463 14522 -5777
58358 252986 257122 -6627 14708 -6757
58164 255411 258441 -6635 14817 -8326
57963 256814 259050 -6776 15119 -7905
57769 257545 259221 -6611 14663 -6212
57606 257293 258815 -6256 13671 -5911
57521 257076 258589 -6163 13227 -6334
57456 257221 258575 -6166 13214 -6507
57347 257631 258656 -6198 13430 -6438
57233 258031 258661 -6173 13611 -6318
57140 258458 258700 -6101 13615 -6248
57091 258533 258616 -6077 13588 -6236
57080 258219 258363 -6107 13618 -6250
57074 257969 258164 -6141 13697 -6270
57064 257718 257969 -6197 13820 -6306
57052 257495 257796 -6251 13923 -6334
57020 257400 257675 -6253 13931 -6277
56982 257481 257665 -6213 14009 -6210
56957 257353 257543 -6209 14096 -6128
56984 256952 257342 -6240 14124 -6081
57008 256535 257121 -6297 14133 -6050
57007 256319 257001 -6356 14154 -5990
57006 256069 256812 -6389 14157 -5924
57027 255747 256628 -6368 14143 -5869
57037 255843 256670 -6324 14119 -5812
57076 255707 256660 -6326 14057 -5747
57104 255614 256654 -6349 14001 -5699
57053 255903 256765 -6340 13984 -5707
57015 255057 256396 -6502 14118 -5757
57012 255060 256381 -6427 14122 -5751
57019 254566 256090 -6378 14102 -5744
57066 254206 255929 -6383 14086 -5751
57084 253909 255750 -6444 14065 -5758
57088 253773 255654 -6490 14047 -5788
57099 253567 255527 -6445 14043 -5747
57108 253338 255389 -6452 14020 -5740
57135 253124 255273 -6517 14001 -5725
57149 252919 255153 -6452 14028 -5706
57157 252809 255058 -6399 14066 -5772
57161 252795 255038 -6487 14073 -5813
57175 252692 254981 -6540 14074 -5837
57179 252535 254874 -6515 14073 -5822
57177 252319 254718 -6474 14087 -5800
57219 252196 254674 -6435 14107 -5799
57238 251899 254483 -6455 14090 -5820
57255 251820 254425 -6542 14053 -5826
57306 251883 254454 -6615 14010 -5782
57320 251579 254244 -6573 13981 -5754
57318 251372 254081 -6496 14026 -5762
57304 251101 253835 -6477 14069 -5790
57181 249781 252767 -6461 14053 -5827
57099 250594 253127 -6434 14039 -5810
56955 250903 253111 -6429 14033 -5808
56871 250514 252786 -6456 14003 -5830
56787 250498 252696 -6543 14021 -5806
56676 250506 252554 -6588 14074 -5803
56579 250298 252275 -6569 14021 -5604
56546 250107 252114 -6679 13906 -5660
56535 250203 252183 -6789 13851 -5787
56551 251008 252696 -6655 13976 -5719
56512 251513 252941 -6523 14059 -5737
56493 252165 253302 -6517 14058 -5820
56542 251789 253026 -6459 14052 -5853
56600 252260 253358 -6378 14058 -5873
56622 252137 253273 -6331 14035 -5864
56694 252179 253346 -6390 13966 -5888
56761 252333 253463 -6493 13944 -5889
56819 252343 253482 -6546 13959 -5838
56906 252102 253357 -6486 13965 -5831
56984 251696 253135 -6483 13993 -5852
57070 251474 253026 -6437 14044 -5851
57150 251259 252914 -6426 14044 -5907
57231 250962 252764 -6506 14035 -5921
57293 250530 252526 -6491 14036 -5900
57355 250120 252343 -6435 14017 -5856
57406 249871 252215 -6448 14015 -5862
57444 249804 252176 -6463 14029 -5838
57462 249795 252161 -6480 14025 -5824
57476 249970 252272 -6499 14024 -5842
57489 250160 252358 -6509 14017 -5873
57472 249963 252206 -6508 14013 -5887
57486 250264 252405 -6531 14009 -5902
57525 250525 252605 -6567 14019 -5912
57531 250693 252702 -6573 14019 -5890
57521 251341 253086 -6592 13985 -5845
57487 251444 253141 -6584 13989 -5849
57511 251474 253181 -6506 13984 -5884
57503 251499 253179 -6505 13966 -5862
57466 251545 253194 -6575 13963 -5867
57439 251495 253158 -6584 13983 -5915
57433 251537 253204 -6484 14042 -5916
57411 251580 253229 -6407 14053 -5937
57402 251761 253326 -6510 14053 -5948
57373 252116 253504 -6584 14057 -5915
57374 251875 253378 -6551 14007 -5888
57413 252186 253607 -6510 13968 -5884
57393 252356 253716 -6478 13977 -5894
57382 252161 253603 -6493 13972 -5913
57413 252238 253674 -6535 13986 -5931
57423 252245 253661 -6503 14001 -5851
57420 252428 253820 -6506 13998 -5855
57414 252295 253736 -6574 14042 -5884
57422 252215 253673 -6511 14044 -5838
57432 252119 253596 -6441 14020 -5867
57445 252116 253585 -6497 13979 -5847
57442 252163 253591 -6581 13969 -5810
57445 252176 253587 -6586 14000 -5799
57452 252190 253577 -6525 14012 -5798
57458 252144 253530 -6470 14035 -5824
57466 252066 253457 -6501 14036 -5822
57467 251981 253386 -6558 14037 -5808
57469 252068 253415 -6539 14046 -5812
57484 252337 253549 -6484 14047 -5820
57493 252050 253351 -6464 14034 -5823
57498 252187 253416 -6559 13974 -5775
57536 252290 253486 -6532 14003 -5775
57577 252271 253542 -6494 14024 -5786
57568 252570 253683 -6524 14041 -5785
57529 252467 253590 -6543 14067 -5803
57555 252361 253539 -6508 14056 -5817
57546 252236 253445 -6494 14041 -5784
57503 252326 253462 -6548 14037 -5791
57462 252441 253493 -6572 14055 -5797
57452 252414 253448 -6476 14062 -5776
57446 252463 253457 -6466 14042 -5792
57433 252726 253645 -6598 14046 -5826
57400 252606 253531 -6611 14052 -5842
57405 252914 253724 -6495 14055 -5816
57427 252736 253624 -6406 14055 -5794
57435 253224 253906 -6435 14040 -5794
57400 253198 253911 -6527 14047 -5787
57424 253308 254010 -6524 14030 -5797
57431 253275 253973 -6425 14028 -5741
57426 253353 253992 -6427 14036 -5733
57416 253478 254038 -6537 14003 -5738
57421 253442 254011 -6510 14031 -5692
57423 253406 253978 -6452 14057 -5740
57418 253501 254020 -6501 14055 -5762
57415 253532 254012 -6513 14063 -5762
57409 253432 253933 -6476 14072 -5754
57417 253464 253937 -6442 14079 -5711
57422 253399 253885 -6425 14075 -5703
57431 253319 253817 -6459 14066 -5725
57440 253190 253729 -6511 14058 -5719
57452 253172 253714 -6540 14027 -5697
57467 253303 253803 -6521 14021 -5706
57480 253462 253859 -6491 14056 -5712
57492 253155 253668 -6489 14071 -5701
57502 253464 253815 -6495 14083 -5694
57532 253468 253858 -6483 14083 -5713
57570 253513 253937 -6457 14080 -5732
57560 253848 254112 -6476 14080 -5714
57545 253692 254025 -6526 14088 -5693
57583 253526 253955 -6510 14084 -5709
57581 253303 253801 -6523 14042 -5685
57552 253227 253736 -6571 14022 -5660
57532 253045 253600 -6614 14044 -5687
57518 253151 253735 -6567 14079 -5681
57504 253069 253668 -6451 14110 -5694
57496 252993 253591 -6497 14120 -5726
57464 252917 253463 -6561 14106 -5732
57482 253007 253558 -6512 14101 -5722
57520 252821 253470 -6447 14100 -5711
57509 252961 253505 -6433 14074 -5697
57506 252820 253425 -6500 13994 -5668
57540 252835 253445 -6563 13964 -5677
57552 252623 253296 -6521 14029 -5685
57571 252495 253234 -6462 14070 -5656
57574 252386 253167 -6545 14080 -5651
57588 252314 253138 -6578 14094 -5639
57611 252173 253058 -6461 14115 -5653
57638 252084 253030 -6498 14124 -5640
57653 251984 252976 -6599 14116 -5621
57660 251982 252981 -6614 14104 -5655
57687 251919 252964 -6577 14051 -5609
57716 251756 252885 -6554 14073 -5622
57730 251540 252773 -6606 14079 -5639
57744 251361 252680 -6622 14080 -5644
57765 251284 252655 -6559 14082 -5645
57779 251239 252634 -6531 14089 -5639
57800 251411 252744 -6550 14091 -5641
57806 251204 252605 -6567 14094 -5647
57816 251281 252662 -6586 14092 -5649
57860 251287 252696 -6603 13990 -5620
57902 250879 252526 -6645 14008 -5617
57916 251192 252730 -6676 14061 -5627
57881 251196 252710 -6629 14069 -5631
57897 251046 252644 -6584 14069 -5594
57902 250866 252544 -6620 14069 -5585
57862 250678 252405 -6688 14050 -5641
57840 250485 252278 -6619 14075 -5631
57828 250171 252078 -6526 14117 -5606
57811 250000 251950 -6612 14109 -5615
57801 249872 251864 -6668 14067 -5597
57788 249842 251828 -6575 14056 -5598
57795 250014 251934 -6489 14058 -5590
57800 249731 251746 -6510 14036 -5588
57802 250135 251972 -6573 14008 -5595
57770 249717 251665 -6603 14010 -5626
57793 249778 251726 -6540 14056 -5603
57783 249699 251641 -6515 14053 -5599
57777 249821 251723 -6614 14061 -5618
57767 249712 251632 -6615 14080 -5560
57766 249617 251576 -6553 14054 -5555
57770 249596 251562 -6614 14056 -5570
57762 249610 251568 -6658 14077 -5572
57753 249787 251668 -6594 14092 -5559
57743 249838 251682 -6516 14101 -5547
57749 249814 251658 -6498 14098 -5569
57751 249765 251615 -6547 14092 -5581
57751 249823 251634 -6590 14084 -5583
57748 249913 251665 -6559 14082 -5587
57753 250244 251860 -6491 14076 -5590
57771 250496 251984 -6556 13999 -5606
57760 250282 251803 -6572 14036 -5637
57782 250537 251947 -6549 14054 -5645
57812 250908 252174 -6550 14062 -5643
57828 250883 252165 -6580 14094 -5609
57843 251189 252342 -6544 14093 -5609
57822 251059 252279 -6522 14061 -5611
57840 250989 252261 -6595 14065 -5532
57825 250996 252232 -6650 14090 -5523
57789 251068 252239 -6550 14077 -5581
57766 251120 252237 -6522 14087 -5651
57753 251110 252221 -6605 14097 -5657
57739 251068 252183 -6558 14101 -5642
57711 251033 252136 -6461 14103 -5631
57695 251425 252368 -6471 14091 -5603
57713 251282 252327 -6547 14066 -5587
57721 251761 252665 -6612 14052 -5608
57682 251860 252701 -6593 14072 -5562
57666 252026 252781 -6647 14046 -5502
57673 252087 252815 -6616 14069 -5480
57667 252265 252965 -6496 14088 -5525
57642 252104 252840 -6489 14095 -5546
57632 252359 252993 -6574 14129 -5529
57628 252474 253033 -6602 14091 -5552
57628 252479 253015 -6552 14044 -5587
57622 252673 253111 -6511 14085 -5563
57605 252781 253144 -6537 14095 -5543
57605 252844 253187 -6601 14069 -5546
57605 253060 253385 -6641 14036 -5525
57606 253100 253399 -6607 14037 -5513
57603 253132 253407 -6577 14093 -5524
57592 253259 253451 -6588 14086 -5542
57583 253270 253448 -6596 14062 -5536
57601 253289 253454 -6583 14082 -5523
57602 253385 253465 -6535 14081 -5543
57590 253311 253406 -6498 14094 -5561
57588 253605 253562 -6542 14108 -5561
57629 253615 253632 -6622 14104 -5572
57652 253771 253749 -6638 14058 -5553
57610 254150 253933 -6601 14036 -5492
57570 254125 253895 -6583 14049 -5504
57573 254257 253976 -6631 14062 -5559
57535 254288 253973 -6562 14106 -5571
57482 254131 253849 -6476 14138 -5576
57439 253973 253719 -6593 14142 -5576
57417 253902 253657 -6627 14133 -5565
57369 253861 253570 -6490 14117 -5559
57328 253957 253595 -6388 14093 -5554
57269 254004 253543 -6519 13993 -5569
57254 254119 253617 -6536 14036 -5597
57278 254176 253677 -6454 14088 -5576
57257 254251 253683 -6409 14108 -5564
57231 254156 253641 -6526 14114 -5569
57234 254339 253749 -6561 14133 -5568
57205 254347 253708 -6472 14157 -5589
57162 254458 253743 -6521 14178 -5572
57120 254438 253712 -6584 14175 -5544
57100 254442 253712 -6570 14115 -5516
57103 254297 253629 -6508 14074 -5495
57111 254227 253594 -6402 14090 -5507
57100 254309 253636 -6390 14088 -5518
57086 254396 253679 -6452 14066 -5543
57096 254396 253682 -6496 14066 -5569
57100 254416 253685 -6471 14093 -5590
57086 254580 253760 -6427 14116 -5607
57054 254902 253897 -6434 14129 -5623
57018 255073 253980 -6488 14135 -5631
57006 255136 254000 -6559 14085 -5537
57012 254977 253878 -6481 14097 -5513
57023 254694 253734 -6454 14096 -5531
57035 254905 253839 -6443 14076 -5598
57091 254941 253953 -6450 14058 -5636
57096 255099 254057 -6514 14066 -5598
57055 255337 254153 -6592 14082 -5621
57044 255182 254063 -6560 14111 -5647
57062 255050 254009 -6430 14146 -5622
57046 254749 253830 -6460 14133 -5612
57016 254520 253717 -6580 14097 -5591
56996 254386 253649 -6578 14091 -5615
56991 254155 253522 -6518 14103 -5642
56972 253977 253415 -6481 14112 -5635
56956 253835 253341 -6467 14104 -5623
56928 253841 253311 -6475 14084 -5626
56959 253562 253223 -6465 14082 -5628
56995 253694 253363 -6405 14087 -5576
56985 253593 253284 -6465 14082 -5602
57010 253500 253281 -6546 14103 -5613
57042 253522 253330 -6538 14081 -5597
57061 253368 253269 -6618 14096 -5597
57093 253255 253275 -6607 14108 -5604
57137 252952 253171 -6543 14115 -5603
57172 252569 253001 -6491 14117 -5598
57192 252428 252965 -6509 14093 -5627
57195 252486 253023 -6588 14076 -5650
57164 252527 253041 -6626 14086 -5647
57143 252726 253165 -6578 14095 -5639
57139 252814 253210 -6526 14051 -5518
57150 252694 253155 -6524 14050 -5528
57164 252405 253006 -6539 14056 -5573
57186 252191 252919 -6554 14046 -5620
57200 252057 252856 -6576 14050 -5667
57202 252078 252882 -6594 14066 -5681
57193 252248 252963 -6581 14073 -5655
57190 252236 252897 -6553 14094 -5611
57203 252136 252867 -6539 14085 -5576
57243 249845 251506 -6575 14063 -5652
57197 249852 251496 -6673 14010 -5632
57193 250032 251626 -6579 13987 -5564
57203 249703 251425 -6528 14030 -5610
57188 250014 251614 -6583 14070 -5626
57145 249684 251391 -6506 14088 -5599
57171 249744 251466 -6460 14095 -5657
57164 249718 251432 -6512 14111 -5641
57148 249724 251429 -6537 14109 -5627
57139 249700 251420 -6513 14085 -5631
57140 249615 251365 -6497 14084 -5632
57132 249654 251395 -6620 13990 -5589
57120 249902 251545 -6577 13981 -5587
57111 249950 251531 -6528 14025 -5556
57111 249977 251537 -6504 14077 -5574
57111 249781 251435 -6491 14076 -5604
57133 249631 251361 -6504 14076 -5620
57136 249435 251245 -6519 14055 -5656
57136 249434 251232 -6533 14046 -5692
57151 249625 251357 -6564 14044 -5708
57079 249766 251095 -6507 13963 -5606
57047 249875 251162 -6531 14002 -5598
57017 249823 251100 -6540 14050 -5607
56991 249786 251044 -6526 14065 -5553
56969 250019 251186 -6618 14068 -5571
56971 249804 251090 -6637 14094 -5595
56982 250299 251433 -6476 14122 -5586
56956 250256 251395 -6465 14123 -5602
56980 250283 251443 -6557 14113 -5590
56991 250098 251345 -6602 14079 -5596
56982 250039 251300 -6589 14031 -5591
56975 250046 251315 -6539 14044 -5589
56980 250007 251315 -6554 14085 -5604
56984 249892 251244 -6614 14091 -5612
56992 250023 251331 -6617 14097 -5590
56994 250263 251480 -6559 14101 -5566
56980 250202 251430 -6520 14080 -5572
56974 250147 251397 -6522 14070 -5580
56975 250182 251425 -6530 14068 -5587
56970 250072 251338 -6548 14043 -5600
56968 250065 251323 -6580 14014 -5606
56972 250166 251373 -6594 14031 -5582
56978 250353 251467 -6599 14076 -5567
56971 250406 251425 -6566 14099 -5576
56961 250274 251315 -6544 14096 -5554
56988 250479 251417 -6602 14080 -5507
57027 250398 251395 -6678 14061 -5566
57030 250314 251350 -6668 14081 -5626
57014 250748 251580 -6524 14115 -5623
56980 250687 251519 -6519 14120 -5644
56987 250766 251580 -6627 14076 -5598
56938 250673 251481 -6581 14050 -5574
56886 250541 251364 -6502 14066 -5583
56857 250537 251373 -6506 14053 -5598
56832 250431 251307 -6569 14037 -5615
56810 250501 251351 -6614 14004 -5616
56790 250516 251352 -6574 14017 -5621
56765 250708 251431 -6501 14068 -5564
56773 250540 251386 -6580 14055 -5591
56796 250768 251555 -6656 14061 -5584
56770 250853 251567 -6627 14076 -5598
56762 250720 251487 -6581 14050 -5574
56784 250788 251531 -6502 14066 -5583
56787 250713 251482 -6506 14053 -5598
56762 250862 251609 -6569 14037 -5615
56760 250960 251673 -6614 14004 -5616
56761 250938 251653 -6574 14017 -5621
56771 250812 251576 -6501 14068 -5564
56766 250799 251562 -6580 14055 -5591
56757 250783 251542 -6656 14061 -5584
56761 250746 251530 -6578 14027 -5546
56775 250813 251640 -6655 14071 -5539
56784 250573 251495 -6677 14114 -5526
56792 250633 251541 -6607 14097 -5550
56800 250717 251576 -6528 14086 -5567
56803 250659 251537 -6543 14108 -5547
56812 250684 251540 -6618 14103 -5537
56820 250857 251622 -6627 14106 -5522
56809 250700 251487 -6541 14119 -5526
56813 250936 251636 -6521 14107 -5559
56838 251117 251745 -6557 14051 -5562
56858 251025 251746 -6578 14024 -5587
56867 251462 252001 -6573 14042 -5613
56823 251258 251867 -6545 14059 -5600
56845 251272 251920 -6526 14068 -5627
56832 251137 251858 -6538 14076 -5641
56793 251000 251777 -6611 14092 -5619
56772 250897 251716 -6633 14094 -5617
56756 250629 251563 -6591 14090 -5585
56738 250529 251504 -6645 14024 -5567
56727 250474 251482 -6646 14050 -5573
56713 250267 251348 -6507 14112 -5583
56710 250422 251453 -6503 14133 -5610
56739 250079 251288 -6579 14136 -5590
56785 250435 251588 -6523 14127 -5592
56771 250131 251398 -6449 14127 -5579
56813 250005 251397 -6450 14111 -5558
56842 249829 251308 -6484 14087 -5555
56832 249698 251240 -6537 14058 -5530
56826 249736 251265 -6565 14024 -5536
56829 249575 251179 -6494 14045 -5504
56816 249269 250956 -6503 14068 -5509
56812 249087 250823 -6609 14071 -5522
56811 249061 250782 -6554 14096 -5500
56808 248945 250716 -6484 14118 -5536
56801 248701 250552 -6607 14120 -5527
56819 248419 250374 -6684 14107 -5541
56845 248344 250349 -6612 14102 -5552
56876 247998 250106 -6551 14099 -5526
56865 247499 249734 -6568 14061 -5489
56899 247589 249783 -6634 14025 -5485
56923 247308 249582 -6668 14052 -5503
56990 247429 249651 -6613 14088 -5513
57077 247115 249413 -6546 14084 -5550
57122 246604 249061 -6547 14061 -5597
57199 246852 249209 -6585 14073 -5581
57317 247175 249510 -6618 14116 -5554
57375 247227 249574 -6617 14108 -5584
57415 247771 249930 -6583 14071 -5584
57416 247755 249898 -6570 14048 -5534
57432 248320 250263 -6601 14050 -5509
57439 248856 250601 -6669 14111 -5489
57499 249074 250799 -6693 14148 -5486
57534 249116 250892 -6632 14115 -5440
57553 249324 251047 -6579 14096 -5320
57588 249339 251124 -6609 14118 -5271
57648 249196 251160 -6626 14156 -5267
57773 249706 251722 -6532 14197 -5235
58028 250630 252760 -6536 14200 -5226
58498 251939 254307 -6543 14125 -5121
58896 253069 255610 -6489 14144 -5106
59222 253663 256446 -6516 14133 -5071
59493 254011 256986 -6543 14114 -5015
59576 254464 257410 -6571 14131 -4999
57908 248613 251485 -6569 14157 -5039
52499 243653 239565 -6490 14158 -5001
42189 224457 211981 -6492 14149 -4969
30464 216155 196686 -6544 14173 -5012
32848 248599 230511 -6465 14234 -5040
41865 282806 268760 -6394 14253 -5046
48739 299179 291498 -6496 14133 -5090
50838 302311 298521 -6484 13825 -5160
51514 302322 299185 -6033 13008 -4980
50526 296613 289266 -5763 12262 -4426
34778 233468 214728 -6099 13198 -4748
25807 156890 148898 -6633 14743 -5470
45750 198735 202857 -6591 14848 -6181
52169 218484 225463 -6126 14364 -6896
54842 226993 235065 -5986 14223 -6603
56218 233207 240907 -6080 14033 -6128
57010 238693 245379 -6486 14127 -5819
57380 242281 248101 -6911 14592 -5811
57517 244823 249968 -6811 14766 -6709
57614 247001 251606 -6497 14882 -8089
57676 247991 252466 -6508 15192 -7840
57763 248162 252804 -6464 14756 -6336
57806 248178 252956 -6246 13808 -5882
57809 248611 253273 -6142 13377 -6128
57789 249445 253744 -6081 13366 -6112
57729 250530 254134 -6080 13526 -5932
57678 251856 254606 -6084 13599 -5887
57505 253175 254730 -6050 13587 -5952
57077 254795 254432 -6000 13641 -6006
56481 256390 253658 -6009 13719 -6091
55953 257470 252558 -6061 13790 -6194
55718 257177 251259 -6091 13855 -6268
55513 256878 250224 -6131 13897 -6289
55118 257405 249449 -6160 13934 -6288
54722 257779 248623 -6145 14001 -6271
54753 256895 247878 -6112 14045 -6229
55001 255081 247126 -6095 14049 -6195
55246 253936 246827 -6074 14026 -6077
55371 253576 246733 -6057 14072 -5884
55450 253041 246428 -6055 14263 -5671
55490 252657 246129 -6066 14398 -5582
55469 252066 245700 -6087 14326 -5628
55485 251994 245619 -6059 14224 -5560
55468 251881 245447 -5999 14260 -5401
55443 251582 245194 -5979 14345 -5323
55438 251087 244889 -5993 14234 -5664
55498 250548 244719 -5993 14187 -5795
55650 249723 244633 -5991 14178 -5868
55962 248013 244417 -6008 14221 -5896
56487 244881 244006 -6013 14241 -5945
57185 241607 244003 -6006 14233 -6009
57898 239086 244989 -5989 14236 -6037
58291 234926 243935 -5965 14233 -6052
57977 228992 240425 -5952 14225 -6048
57715 225213 238236 -5891 14210 -5910
57762 223590 237709 -5895 14214 -5812
57709 221770 237043 -5965 14258 -5820
57837 221422 237469 -6067 14295 -5902
58080 221600 238204 -6154 14349 -6000
58077 220957 238097 -6354 14483 -6079
58503 222913 240331 -6687 14503 -6226
59182 226488 243816 -6933 14370 -6430
59678 229149 246385 -6884 14283 -6463
60109 231756 248871 -6357 13908 -6267
60657 236147 252653 -6272 13859 -6050
61112 240595 256222 -6301 13872 -5947
61471 244631 259381 -6387 13729 -5850
61640 248416 261994 -6398 13725 -5569
61644 251780 264072 -6365 13875 -5361
61449 254870 265671 -6512 13996 -5329
60993 258048 266925 -6646 14026 -5246
60369 260612 267472 -6530 13979 -5095
59835 262799 267971 -6453 14016 -5050
59390 264882 268515 -6561 14168 -5012
58963 266328 268680 -6546 14266 -4887
58600 267635 268856 -6460 14286 -4749
58310 268460 268823 -6436 14271 -4605
58077 268976 268727 -6364 14269 -4430
57946 269390 268749 -6280 14280 -4278
57902 269608 268785 -6218 14345 -4150
57914 269604 268709 -6190 14437 -4057
57952 269551 268611 -6187 14467 -4021
57977 269494 268552 -6187 14497 -4010
58008 269307 268401 -6137 14558 -4031
58019 269557 268497 -6085 14591 -4038
58050 269299 268253 -6082 14583 -4005
58153 268803 268008 -6080 14563 -3974
58262 268687 267997 -6088 14559 -3971
58398 268470 267943 -6112 14599 -3968
58466 268832 268153 -6101 14606 -3963
58428 269175 268208 -6078 14582 -3964
58438 269269 268180 -6093 14593 -3972
58433 269220 268073 -6130 14564 -4009
58352 269329 268008 -6213 14548 -4114
58275 269448 267938 -6187 14533 -4153
58229 269169 267673 -6120 14597 -4183
