2025-10-08 23:43:45    绿光---红外光---红光---X轴---Y轴---Z轴
43987 290196 266623 -2802 12843 -9934
44013 290325 266777 -2808 12849 -9943
44058 290497 266978 -2819 12834 -9998
44100 290675 267169 -2713 12809 -10011
44133 290811 267326 -2642 12817 -10005
44168 290973 267490 -2695 12801 -9990
44209 291081 267626 -2696 12745 -9976
44248 291222 267758 -2687 12753 -9953
44279 291350 267909 -2713 12783 -9924
44303 291460 268030 -2777 12771 -9945
44312 291531 268118 -2803 12728 -9989
44319 291613 268195 -2785 12683 -9978
44322 291686 268270 -2848 12701 -9974
44326 291758 268332 -2905 12742 -9990
44326 291800 268372 -2861 12720 -9972
44328 291814 268387 -2908 12702 -9987
44331 291841 268407 -2998 12723 -9972
44329 291860 268421 -2885 12734 -9844
44332 291883 268443 -2929 12762 -9834
44343 291891 268448 -2985 12764 -9837
44350 291901 268463 -3040 12721 -9840
44367 291908 268460 -3038 12705 -9827
44376 291901 268466 -2992 12755 -9825
44395 291905 268472 -2982 12793 -9836
44421 291915 268487 -3005 12789 -9820
44440 291914 268493 -3006 12786 -9809
44458 291917 268487 -2924 12841 -9743
44476 291920 268486 -2948 12815 -9722
44474 291854 268437 -3022 12811 -9730
44443 291778 268378 -3041 12816 -9742
44133 291191 267955 -3050 12777 -9712
44139 291196 267948 -3081 12762 -9696
44142 291188 267944 -3089 12782 -9721
44144 291171 267938 -3070 12778 -9706
44145 291166 267927 -3136 12782 -9733
44143 291163 267934 -3152 12816 -9770
44147 291184 267959 -3003 12851 -9788
44153 291195 267965 -2983 12862 -9838
44165 291218 267995 -3077 12826 -9853
44183 291240 268026 -3100 12778 -9849
44544 291431 268314 -3023 12705 -9866
44575 291425 268309 -3009 12677 -9852
44609 291416 268291 -2970 12718 -9867
44626 291371 268273 -2979 12756 -9884
44614 291288 268241 -3002 12774 -9884
44585 291218 268211 -3017 12780 -9885
44553 291149 268186 -2990 12788 -9841
44520 291108 268164 -2966 12797 -9764
44495 291076 268159 -2984 12775 -9757
44476 291038 268161 -2948 12779 -9808
44464 291019 268150 -2858 12792 -9850
44461 290996 268150 -2868 12817 -9860
44466 290987 268153 -2883 12827 -9848
44475 290979 268140 -2861 12800 -9838
44496 290990 268148 -2887 12782 -9826
44516 290955 268141 -2892 12793 -9805
44534 290958 268142 -2875 12813 -9769
44550 290957 268156 -2901 12835 -9773
44566 290965 268160 -2939 12848 -9770
44579 290945 268160 -2970 12852 -9761
44591 290946 268167 -2869 12860 -9735
44607 290957 268179 -2784 12861 -9754
44621 290942 268189 -2821 12873 -9767
44635 290952 268203 -2890 12873 -9770
44657 290983 268217 -2933 12861 -9769
44676 290978 268239 -2875 12861 -9747
44695 290949 268221 -2815 12885 -9734
44724 290978 268252 -2863 12879 -9748
44756 290987 268260 -2921 12845 -9763
44790 291030 268304 -2929 12835 -9765
44826 291036 268321 -2932 12869 -9784
44865 291083 268355 -2901 12859 -9777
44903 291110 268375 -2886 12827 -9778
44939 291142 268410 -2913 12809 -9800
44971 291126 268413 -2941 12787 -9802
45007 291165 268433 -2921 12804 -9791
45045 291171 268461 -2871 12843 -9767
45085 291193 268483 -2879 12840 -9761
45119 291204 268493 -2911 12804 -9767
45155 291231 268502 -2933 12812 -9793
45179 291226 268491 -2939 12821 -9819
45179 291157 268459 -2960 12836 -9840
45161 291134 268461 -2948 12828 -9848
45127 291108 268455 -2939 12805 -9811
45091 291072 268447 -2977 12795 -9762
45059 291063 268444 -3005 12806 -9800
45032 291065 268456 -2937 12845 -9837
45007 291047 268445 -2765 12825 -9831
44984 291018 268429 -2748 12818 -9856
44972 291008 268427 -2854 12821 -9882
44978 291017 268442 -2874 12767 -9889
44977 291025 268444 -2849 12728 -9891
44993 291064 268463 -2841 12737 -9914
45004 291043 268450 -2856 12732 -9909
45019 291044 268455 -2880 12726 -9886
45033 291053 268466 -2878 12737 -9907
45044 291038 268470 -2803 12776 -9881
45047 291038 268473 -2833 12781 -9879
45062 291034 268476 -2910 12761 -9909
45067 291022 268471 -2813 12770 -9898
45075 291005 268469 -2749 12771 -9908
45089 291007 268476 -2824 12787 -9932
45105 291010 268478 -2887 12782 -9942
45122 291010 268487 -2875 12758 -9940
45146 291011 268502 -2828 12750 -9938
45165 291011 268496 -2789 12749 -9935
45194 291031 268508 -2824 12779 -9900
45224 291044 268509 -2851 12765 -9915
45255 291064 268523 -2817 12752 -9942
45288 291087 268519 -2792 12754 -9959
45321 291081 268513 -2790 12745 -9958
45354 291075 268503 -2809 12722 -9953
45390 291070 268485 -2839 12721 -9967
45423 291042 268449 -2846 12711 -9998
45461 291020 268431 -2812 12691 -10020
45504 291012 268431 -2799 12748 -10002
45542 291003 268436 -2808 12732 -10013
45585 291040 268471 -2808 12722 -10031
45629 291065 268503 -2811 12716 -10034
45665 291114 268511 -2840 12724 -10041
45691 291133 268521 -2883 12739 -10033
45691 291108 268498 -2857 12705 -10008
45675 291089 268490 -2804 12679 -9969
45641 291063 268505 -2821 12678 -9918
45603 291055 268491 -2856 12721 -9925
45561 291040 268498 -2754 12741 -9951
45526 291030 268500 -2777 12759 -9981
45502 291049 268508 -2872 12759 -10000
45477 291058 268523 -2860 12726 -10010
45461 291077 268541 -2821 12693 -9980
45451 291077 268554 -2846 12675 -9961
45448 291095 268563 -2905 12679 -9950
45454 291148 268593 -2950 12674 -9952
45459 291167 268602 -2938 12677 -9970
45466 291181 268603 -2848 12718 -9944
45472 291212 268641 -2836 12710 -9903
45474 291211 268648 -2953 12705 -9916
45473 291228 268669 -2980 12722 -9946
45471 291236 268670 -2900 12715 -9954
45473 291255 268685 -2916 12733 -9958
45480 291278 268694 -2992 12731 -9962
45488 291288 268702 -3014 12714 -9950
45497 291317 268726 -2977 12694 -9929
45506 291329 268728 -2938 12683 -9917
45518 291357 268738 -2937 12708 -9918
45532 291369 268741 -2982 12728 -9932
45554 291404 268758 -3013 12728 -9943
45578 291454 268783 -2974 12714 -9945
45598 291474 268793 -2962 12681 -9952
45617 291496 268787 -2989 12652 -9972
45635 291502 268780 -3000 12626 -9969
45657 291524 268775 -3005 12621 -9965
45679 291536 268785 -3014 12621 -9974
45704 291560 268813 -3010 12605 -9971
45730 291605 268820 -2974 12651 -9924
45748 291619 268831 -3020 12670 -9937
45771 291623 268835 -3058 12659 -9937
45793 291648 268844 -3075 12643 -9955
45815 291677 268849 -3071 12660 -9966
45832 291670 268845 -3085 12702 -9962
45850 291690 268826 -3064 12700 -9991
45859 291657 268807 -3016 12663 -10005
45844 291604 268779 -3016 12652 -9949
45807 291537 268739 -3031 12662 -9929
45764 291487 268718 -3026 12685 -9972
45724 291450 268697 -2930 12695 -10000
45690 291429 268695 -2896 12680 -10004
45663 291427 268691 -2982 12666 -9980
45646 291428 268698 -3024 12647 -9976
45635 291429 268708 -3042 12615 -9970
45628 291447 268725 -3046 12604 -9968
45629 291454 268724 -3044 12603 -9978
45635 291480 268737 -3062 12590 -9984
45646 291477 268729 -2979 12652 -9982
45660 291466 268728 -3006 12670 -9988
45668 291466 268730 -3050 12673 -9987
45673 291464 268725 -2972 12677 -9980
45676 291456 268718 -2971 12664 -10006
45680 291457 268736 -3063 12643 -10005
45686 291471 268748 -3097 12638 -9998
45692 291475 268766 -3076 12629 -9992
45702 291490 268765 -3032 12633 -10003
45709 291493 268775 -3013 12667 -9992
45718 291487 268771 -3021 12688 -9976
45734 291513 268793 -3053 12674 -9975
45753 291541 268811 -3044 12653 -9977
45773 291555 268814 -3000 12644 -9982
45792 291575 268833 -3012 12638 -9971
45819 291595 268848 -3048 12631 -9963
45840 291622 268858 -3057 12619 -9957
45870 291649 268880 -3065 12625 -9963
45899 291675 268901 -3080 12639 -9967
45924 291716 268922 -3059 12648 -9967
45952 291755 268967 -3023 12681 -9963
45979 291781 268977 -3024 12695 -9965
46009 291803 269005 -3036 12674 -9971
46041 291838 269030 -3062 12689 -9976
46071 291887 269069 -3092 12707 -9974
46090 291891 269070 -3084 12669 -9955
46108 291890 269074 -3065 12626 -9933
45847 291744 269071 -3079 12605 -9922
45856 291749 269080 -3086 12595 -9925
45860 291745 269085 -3059 12633 -9926
45867 291756 269098 -3114 12697 -9942
45874 291767 269112 -3040 12697 -9920
45868 291758 269106 -2971 12695 -9944
45863 291726 269089 -3047 12711 -9951
45860 291710 269084 -3122 12715 -9944
45861 291698 269067 -3105 12694 -9948
45864 291681 269056 -3057 12684 -9959
45864 291656 269032 -3048 12675 -9963
45868 291631 269011 -3077 12654 -9965
45878 291624 268997 -3015 12695 -9933
45893 291616 268985 -2978 12665 -9950
45906 291617 268986 -2994 12643 -9970
45924 291613 268992 -3032 12639 -9979
45943 291617 268978 -3038 12626 -9989
45958 291613 268958 -3021 12613 -9994
45978 291625 268957 -3026 12609 -9998
45997 291624 268936 -3045 12600 -10000
46023 291656 268938 -3046 12603 -10004
46038 291647 268917 -2986 12658 -10018
46057 291648 268918 -2983 12649 -10018
46080 291670 268918 -3009 12612 -10028
46103 291661 268905 -3020 12595 -10031
46117 291641 268879 -3015 12600 -10039
46139 291652 268876 -3038 12610 -10045
46162 291664 268880 -3049 12585 -10045
46182 291657 268877 -3036 12551 -10051
46192 291632 268827 -3040 12552 -10028
46203 291603 268780 -3047 12557 -10011
46189 291509 268716 -3031 12584 -10061
46147 291396 268638 -2962 12588 -10101
46091 291319 268575 -2951 12581 -10115
46031 291250 268520 -2999 12590 -10117
45963 291144 268451 -2995 12561 -10116
45906 291076 268404 -2996 12513 -10117
45870 291154 268463 -2989 12487 -10102
45845 291315 268601 -2965 12494 -10183
45809 291400 268489 -2946 12500 -10301
45676 291181 267810 -2954 12410 -10520
45399 290659 266755 -2943 12314 -10275
45079 290170 265780 -2930 12386 -9871
44731 289790 265034 -3048 12421 -9901
44431 289524 264726 -3119 12212 -9808
44257 289195 265437 -3101 11857 -9568
44228 288211 265844 -2984 11415 -9502
44420 287838 266918 -2405 10702 -10354
44740 288153 268568 -2074 11307 -11139
45124 288656 270516 -2651 12492 -11567
45987 289498 269831 -3282 12388 -11929
45695 289605 268610 -2882 11729 -12052
45500 289725 267901 -2928 11723 -12336
45393 289883 267646 -3223 11937 -12561
45344 290043 267663 -3317 12073 -12873
45343 290179 267894 -3269 12129 -12786
45368 290277 268191 -3238 12163 -12409
45400 290386 268467 -3190 12146 -11980
45418 290457 268645 -3192 12210 -11788
45423 290481 268764 -3236 12261 -11534
45433 290515 268860 -2974 11427 -10765
45433 290531 268914 -3011 11106 -10542
45428 290544 268934 -3207 11247 -10425
45420 290521 268932 -3304 11569 -10350
45397 290462 268911 -3217 11769 -10253
45343 290353 268863 -3057 11912 -10203
45272 290262 268826 -3003 12063 -10197
45191 290200 268799 -3030 12148 -10140
45110 290119 268757 -3077 12211 -10107
45029 290012 268700 -3133 12326 -10100
44969 289972 268687 -3208 12371 -10069
44912 289935 268665 -3299 12386 -9998
44865 289869 268637 -3364 12435 -9954
44832 289854 268624 -3376 12492 -9975
44803 289859 268642 -3296 12559 -10012
44780 289867 268645 -3252 12592 -10004
44771 289908 268694 -3300 12697 -10002
44762 289944 268722 -3307 12835 -10045
44750 289950 268737 -3278 12849 -10008
44730 289957 268741 -3250 12825 -9945
44705 289971 268755 -3219 12820 -9882
44685 289994 268767 -3212 12766 -9833
44666 290006 268784 -3206 12650 -9800
44644 290003 268788 -3190 12594 -9774
44630 290015 268796 -3190 12585 -9784
44620 290029 268808 -3210 12539 -9768
44606 290042 268813 -3200 12525 -9801
44600 290077 268833 -3136 12528 -9870
44597 290108 268854 -3125 12567 -9909
44596 290142 268874 -3161 12606 -9920
44596 290142 268880 -3174 12655 -9935
44603 290148 268883 -3170 12714 -9964
44616 290176 268901 -3143 12726 -10009
44629 290202 268907 -3129 12738 -10038
44643 290208 268905 -3140 12722 -10036
44660 290227 268922 -3153 12681 -10036
44686 290263 268939 -3138 12659 -10020
44709 290300 268971 -3105 12644 -10008
44729 290355 269007 -3103 12642 -10006
44747 290381 269022 -3123 12643 -10000
44768 290429 269063 -3082 12652 -9974
44794 290492 269088 -3046 12656 -9955
44817 290529 269116 -3069 12625 -9976
44835 290560 269120 -3089 12606 -9993
44838 290549 269120 -3083 12601 -9975
44808 290494 269087 -3065 12613 -9972
44755 290440 269048 -3086 12609 -10002
44685 290376 269028 -3103 12594 -10016
44608 290329 269004 -3091 12619 -10016
44531 290279 268966 -3109 12663 -10007
44461 290240 268948 -3078 12712 -10019
44394 290204 268926 -3114 12667 -9986
44340 290159 268891 -3145 12603 -9974
44300 290145 268915 -3155 12582 -9981
44271 290142 268942 -3070 12596 -10011
44247 290146 268935 -3015 12586 -10026
44232 290159 268938 -3094 12589 -10016
44223 290169 268931 -3135 12592 -10025
44214 290173 268927 -3109 12573 -10025
44195 290176 268922 -3064 12605 -10010
44173 290162 268898 -3098 12574 -10024
44148 290148 268898 -3127 12560 -10026
44132 290149 268916 -3127 12563 -10039
44113 290174 268930 -3097 12560 -10005
44095 290189 268954 -3140 12574 -9992
44078 290178 268950 -3169 12595 -10000
44069 290202 268965 -3095 12625 -10010
44057 290199 268972 -3105 12628 -10034
44051 290194 268975 -3170 12645 -10028
44051 290201 268993 -3135 12618 -10009
44053 290197 268979 -3115 12608 -10003
44056 290205 268987 -3118 12607 -10004
44066 290208 268978 -3166 12603 -10003
44080 290225 268999 -3190 12596 -9983
44096 290252 269012 -3167 12584 -9981
44114 290281 269043 -3155 12565 -9991
44133 290326 269075 -3164 12573 -10005
44156 290362 269109 -3163 12600 -10001
44177 290397 269147 -3164 12616 -9972
44189 290409 269152 -3165 12616 -9954
44202 290417 269156 -3146 12595 -9947
44203 290398 269155 -3151 12599 -9941
44177 290327 269131 -3162 12606 -9946
44124 290264 269106 -3181 12614 -9949
44061 290212 269086 -3208 12637 -9966
43986 290154 269062 -3201 12616 -9988
43919 290126 269060 -3211 12597 -9983
43851 290082 269058 -3235 12620 -9950
43800 290061 269057 -3235 12649 -9956
43756 290035 269054 -3212 12641 -9975
43722 290032 269046 -3147 12625 -9981
43704 290040 269067 -3149 12644 -9986
43686 290040 269072 -3199 12642 -9971
43684 290008 269059 -3180 12624 -9961
43684 289993 269063 -3162 12622 -9970
43692 290025 269118 -3163 12616 -9973
43691 290064 269142 -3175 12603 -9961
43684 290054 269176 -3189 12590 -9960
43674 290042 269188 -3167 12614 -9953
43668 290026 269203 -3131 12662 -9909
43659 290023 269214 -3173 12659 -9907
43653 289998 269209 -3222 12648 -9923
43651 289980 269214 -3143 12641 -9912
43648 289977 269220 -3106 12656 -9935
43652 289972 269239 -3178 12707 -9945
43657 289953 269226 -3223 12699 -9933
43664 289943 269230 -3213 12639 -9935
43674 289922 269213 -3171 12628 -9944
43694 289931 269220 -3148 12699 -9950
43709 289925 269232 -3184 12674 -9935
43724 289902 269215 -3192 12655 -9927
43746 289889 269207 -3162 12651 -9926
43774 289877 269206 -3145 12647 -9931
43799 289873 269202 -3182 12634 -9940
43827 289883 269218 -3200 12611 -9931
43855 289895 269220 -3180 12602 -9921
43887 289932 269237 -3167 12621 -9944
43910 289933 269234 -3163 12625 -9949
43922 289904 269223 -3159 12625 -9983
43902 289843 269183 -3166 12636 -9993
43855 289782 269164 -3181 12662 -10013
43791 289723 269135 -3178 12646 -10001
43721 289683 269134 -3195 12642 -9973
43651 289644 269115 -3198 12621 -9965
43588 289607 269117 -3223 12609 -9977
43535 289579 269107 -3197 12631 -10009
43491 289551 269104 -3103 12642 -10025
43460 289537 269109 -3117 12676 -10021
43446 289540 269124 -3177 12672 -10020
43440 289544 269139 -3147 12625 -10022
43440 289558 269148 -3092 12596 -10022
43443 289533 269143 -3093 12585 -10020
43451 289554 269172 -3119 12574 -10003
43450 289554 269173 -3139 12568 -9982
43453 289582 269198 -3138 12572 -9984
43443 289585 269220 -3110 12591 -9973
43434 289598 269231 -3127 12596 -9985
43423 289608 269251 -3147 12617 -9972
43414 289605 269262 -3089 12648 -9960
43403 289595 269244 -3054 12644 -9983
43396 289572 269242 -3093 12650 -9983
43398 289583 269258 -3126 12662 -9999
43408 289608 269283 -3117 12644 -9992
43414 289604 269296 -3101 12623 -9986
43425 289612 269290 -3110 12622 -9999
43433 289584 269286 -3145 12618 -10004
43453 289564 269296 -3163 12609 -9987
43477 289558 269300 -3117 12627 -9957
43500 289556 269305 -3073 12650 -9953
43526 289550 269311 -3078 12641 -9968
43557 289546 269320 -3073 12618 -9971
43589 289572 269354 -3062 12596 -9975
43620 289593 269381 -3052 12584 -9962
43654 289601 269399 -3035 12576 -9958
43688 289596 269393 -3026 12590 -9979
43713 289555 269352 -3027 12598 -9998
43738 289488 269294 -3027 12583 -10023
43739 289391 269228 -2993 12638 -10054
43710 289281 269155 -3019 12638 -10068
43660 289171 269094 -3019 12639 -10059
43601 289092 269053 -3030 12641 -10057
43542 289020 269026 -3042 12624 -10063
43489 288995 269034 -3056 12594 -10070
43448 288971 269030 -3013 12584 -10081
43416 288946 269032 -2892 12567 -10108
43394 288941 269036 -2881 12573 -10140
43383 288942 269063 -2905 12579 -10159
43380 288971 269100 -2890 12548 -10147
43389 289037 269156 -2906 12536 -10139
43401 289065 269174 -2921 12527 -10137
43411 289080 269182 -2937 12517 -10137
43417 289110 269202 -2951 12506 -10135
43423 289109 269221 -2925 12500 -10120
43420 289104 269210 -2927 12495 -10134
43421 289105 269231 -2985 12501 -10140
43420 289129 269240 -2847 12552 -10143
43420 289138 269250 -2891 12584 -10142
43419 289150 269247 -2990 12577 -10136
43421 289154 269259 -2985 12549 -10130
43429 289189 269269 -2938 12543 -10114
43438 289206 269276 -2915 12557 -10114
43456 289235 269288 -2946 12563 -10123
43482 289281 269302 -2983 12560 -10109
43501 289306 269329 -2985 12550 -10100
43527 289328 269359 -2952 12559 -10094
43551 289353 269390 -2911 12590 -10086
43578 289396 269422 -2912 12573 -10068
43608 289428 269455 -2976 12547 -10074
43637 289463 269488 -3004 12554 -10084
43667 289493 269498 -2991 12554 -10073
43690 289501 269501 -2994 12535 -10071
43723 289556 269519 -3007 12527 -10079
43760 289602 269544 -3018 12534 -10097
43789 289648 269565 -3010 12535 -10105
43807 289641 269554 -2986 12554 -10100
43825 289646 269535 -2955 12575 -10071
43822 289592 269522 -2972 12594 -10089
43787 289524 269488 -2993 12578 -10104
43733 289463 269454 -2994 12544 -10081
43672 289415 269438 -3028 12528 -10053
43617 289400 269415 -3052 12520 -10069
43565 289367 269419 -3006 12539 -10113
43522 289364 269419 -2935 12559 -10133
43489 289340 269401 -2987 12566 -10144
43468 289316 269391 -3020 12546 -10117
43454 289285 269360 -2908 12565 -10138
43449 289240 269316 -2963 12524 -10127
43464 289295 269336 -3010 12510 -10134
43475 289286 269323 -3022 12507 -10137
43484 289302 269324 -2988 12523 -10130
43489 289259 269307 -2947 12523 -10094
43487 289234 269288 -3030 12546 -10098
43485 289210 269265 -3061 12567 -10111
43483 289208 269274 -2973 12548 -10122
43483 289232 269288 -3026 12578 -10123
43483 289229 269281 -3033 12567 -10131
43488 289231 269294 -2995 12552 -10120
43495 289252 269313 -2979 12534 -10129
43515 289343 269397 -3017 12524 -10131
43549 289508 269549 -3044 12520 -10124
43580 289675 269683 -3030 12522 -10124
43607 289894 269879 -3008 12501 -10138
43621 290080 270013 -2994 12464 -10128
43622 290173 270038 -2996 12573 -10226
43624 290261 269966 -3025 12605 -10173
43525 290016 269333 -3048 12609 -10023
43261 289170 268064 -3050 12621 -9999
42956 288307 266754 -3090 12554 -10257
42695 287848 266165 -3071 12328 -10079
42552 287605 266806 -2855 12165 -9597
42552 286526 266854 -2741 12176 -9567
42786 286051 267648 -2883 12123 -9299
43199 286641 269509 -2926 11671 -9185
43774 287780 272187 -2394 10793 -9991
44397 289206 275279 -2114 11330 -11027
44958 290215 277909 -2637 12572 -11533
45411 290702 279717 -3114 12501 -11503
45784 290984 280838 -3193 12049 -11611
46052 291051 281241 -3013 11902 -11897
46127 290451 280376 -3087 12074 -12187
45947 288945 278000 -3378 12191 -12635
45607 287858 275353 -3390 12199 -13023
45335 287831 274072 -3218 12244 -13092
45122 287976 273254 -2885 12215 -12088
44934 288139 272581 -2863 11952 -11443
44776 288270 272030 -2927 11702 -11225
44612 288303 271470 -3015 11276 -11069
44424 288313 270789 -3102 10993 -11018
44230 288297 270146 -3051 11044 -11017
44037 288214 269658 -2981 11301 -11025
43872 288144 269367 -3089 11610 -10903
43730 288096 269215 -3163 11718 -10667
43586 288054 269077 -2992 11603 -10605
43449 288040 268949 -3139 11662 -10529
43334 288093 268854 -3246 11826 -10497
43233 288170 268754 -3210 11978 -10478
43140 288243 268631 -3150 12068 -10457
43055 288293 268503 -3138 12163 -10423
43001 288366 268442 -3120 12242 -10326
42976 288461 268451 -3120 12299 -10296
42978 288557 268520 -3202 12346 -10329
43003 288646 268586 -3301 12437 -10357
43038 288681 268657 -3295 12564 -10367
43082 288714 268702 -3245 12645 -10320
43136 288766 268760 -3238 12703 -10222
43187 288800 268802 -3231 12721 -10168
43232 288835 268848 -3199 12656 -10161
43275 288849 268872 -3158 12601 -10126
43324 288905 268917 -3123 12548 -10055
43365 288929 268926 -3123 12473 -10053
43395 288913 268913 -3135 12430 -10111
43419 288894 268882 -3108 12406 -10099
43420 288818 268852 -3100 12389 -10095
43390 288732 268804 -3099 12387 -10113
43345 288655 268772 -3039 12385 -10113
43288 288576 268740 -3046 12399 -10132
43234 288527 268703 -3130 12415 -10154
43185 288508 268694 -3157 12432 -10168
43143 288492 268697 -3153 12435 -10178
43111 288478 268683 -3156 12416 -10184
43072 288393 268611 -3130 12437 -10213
43067 288377 268598 -3092 12427 -10207
43070 288381 268599 -2978 12476 -10219
43072 288395 268615 -3010 12471 -10195
43083 288402 268626 -3042 12467 -10178
43094 288403 268636 -3039 12476 -10173
43109 288419 268661 -3015 12474 -10168
43131 288433 268671 -3005 12472 -10154
43152 288449 268696 -3017 12485 -10139
43177 288488 268723 -3031 12489 -10141
43204 288481 268725 -3034 12496 -10149
43238 288509 268742 -2979 12530 -10153
43271 288534 268790 -3011 12514 -10148
43308 288565 268818 -3022 12503 -10134
43340 288587 268837 -3024 12523 -10114
43375 288604 268849 -3061 12531 -10106
43418 288647 268893 -3072 12517 -10116
43455 288666 268905 -3059 12529 -10101
43483 288681 268917 -3063 12527 -10061
43502 288668 268920 -3103 12519 -10055
43494 288590 268882 -3037 12544 -10079
43460 288505 268857 -2892 12568 -10100
43405 288462 268831 -2921 12591 -10103
43344 288401 268813 -3002 12581 -10106
43284 288354 268802 -2983 12558 -10101
43233 288330 268797 -2967 12552 -10097
43189 288294 268779 -2977 12551 -10092
43159 288267 268760 -3007 12540 -10074
43137 288242 268755 -3058 12531 -10075
43125 288225 268742 -3061 12529 -10085
43118 288219 268747 -2999 12560 -10076
43125 288221 268756 -2994 12588 -10065
43135 288214 268736 -3045 12583 -10060
43146 288188 268719 -3027 12573 -10059
43152 288162 268723 -2986 12562 -10072
43155 288129 268698 -3025 12563 -10076
43159 288113 268703 -3060 12557 -10089
43164 288115 268711 -3048 12560 -10091
43168 288100 268708 -3031 12566 -10082
43167 288095 268701 -3001 12570 -10082
43176 288115 268733 -3001 12559 -10068
43187 288148 268767 -3038 12607 -10094
43198 288179 268788 -3027 12584 -10092
43214 288215 268818 -3030 12578 -10086
43235 288247 268837 -3044 12574 -10082
43254 288298 268874 -3053 12562 -10085
43275 288337 268908 -3045 12557 -10078
43296 288360 268927 -3050 12541 -10059
43319 288405 268957 -3052 12527 -10039
43349 288450 268992 -3053 12532 -10040
43377 288466 269003 -3001 12559 -10068
43403 288482 269025 -3038 12607 -10094
43433 288518 269043 -3027 12584 -10092
43462 288548 269064 -3030 12578 -10086
43489 288576 269077 -3044 12574 -10082
43516 288597 269083 -3053 12562 -10085
43544 288608 269092 -3045 12557 -10078
43569 288628 269098 -3050 12541 -10059
43564 288571 269073 -3052 12527 -10039
43528 288514 269055 -3053 12532 -10040
43469 288452 269027 -3023 12573 -10067
43400 288385 268996 -3042 12582 -10079
43331 288341 268984 -3079 12599 -10094
43272 288318 268982 -3084 12573 -10102
43221 288291 268980 -3064 12557 -10076
43181 288283 268973 -3062 12559 -10052
43154 288287 268990 -3117 12551 -10059
43132 288282 269000 -3088 12532 -10076
43123 288292 269009 -3011 12531 -10096
43120 288332 269042 -3037 12582 -10129
43121 288342 269030 -3082 12580 -10142
43125 288338 269039 -3088 12537 -10136
43126 288361 269050 -3074 12526 -10135
43121 288344 269041 -3067 12511 -10121
43115 288327 269049 -3077 12494 -10102
43108 288316 269035 -3111 12502 -10101
43101 288317 269042 -3116 12502 -10114
43093 288304 269047 -3067 12497 -10099
43088 288306 269037 -3077 12508 -10107
43083 288288 269043 -3106 12534 -10094
43266 288499 269180 -3044 12533 -10103
43297 288534 269204 -3031 12542 -10105
43320 288564 269211 -3067 12523 -10104
43340 288577 269217 -3096 12517 -10116
43359 288591 269210 -3100 12506 -10119
43347 288525 269201 -3094 12484 -10117
43302 288500 269215 -3092 12487 -10119
43238 288478 269310 -3090 12492 -10137
43154 288411 269376 -3103 12502 -10154
43075 288293 269381 -3117 12529 -10148
43009 288225 269388 -3075 12550 -10142
42966 288203 269419 -3053 12546 -10132
42926 288155 269410 -3094 12530 -10109
42897 288121 269402 -3119 12511 -10113
42880 288127 269406 -3127 12506 -10134
42871 288119 269389 -3025 12492 -10162
42868 288094 269351 -2972 12462 -10197
42879 288045 269294 -3118 12468 -10195
42892 288010 269262 -3217 12482 -10151
42888 287901 269186 -3198 12480 -10090
42895 287829 269113 -3182 12548 -10075
42909 287754 269048 -3259 12512 -10076
42924 287732 269029 -3279 12473 -10065
42932 287665 268990 -3223 12487 -10056
42950 287647 268956 -3250 12505 -10039
42968 287619 268924 -3362 12518 -10040
42994 287624 268925 -3300 12523 -10095
43017 287632 268929 -3084 12544 -10173
43042 287646 268941 -2986 12585 -10173
43067 287647 268939 -3130 12555 -10200
43097 287681 268931 -3222 12512 -10194
43128 287713 268942 -3217 12494 -10162
43160 287745 268938 -3131 12488 -10144
43186 287760 268914 -3085 12493 -10138
43216 287781 268907 -3085 12481 -10118
43250 287796 268906 -3086 12465 -10096
43285 287818 268896 -3069 12457 -10079
43314 287826 268887 -3034 12462 -10052
43348 287844 268894 -3007 12549 -10052
43387 287881 268917 -3038 12561 -10071
43420 287924 268944 -3046 12558 -10076
43447 287941 268965 -3062 12564 -10096
43472 287928 268976 -3094 12566 -10123
43465 287859 268937 -3114 12565 -10129
43422 287773 268904 -3115 12566 -10124
43355 287678 268876 -3102 12583 -10114
43277 287591 268834 -3071 12585 -10118
43199 287515 268814 -3052 12577 -10117
43134 287468 268799 -3057 12587 -10061
43083 287428 268788 -3074 12562 -10038
43041 287391 268762 -3066 12529 -10071
43014 287351 268746 -2981 12514 -10087
42993 287321 268732 -2980 12513 -10110
42987 287311 268717 -3040 12503 -10117
42992 287326 268714 -3001 12483 -10117
42998 287296 268682 -2970 12480 -10123
43009 287280 268676 -2997 12493 -10122
43017 287333 268685 -3038 12520 -10127
43011 287326 268668 -3048 12545 -10153
43003 287324 268656 -3043 12548 -10178
42993 287329 268664 -3021 12549 -10162
42985 287349 268678 -3022 12536 -10141
42981 287353 268690 -3066 12533 -10128
42976 287364 268689 -3016 12547 -10134
42974 287363 268691 -2928 12522 -10143
42975 287376 268693 -2967 12537 -10140
42986 287401 268712 -3041 12549 -10150
42998 287423 268738 -3047 12519 -10141
43012 287465 268751 -2986 12528 -10127
43028 287467 268748 -2947 12555 -10140
43053 287487 268762 -2980 12532 -10148
43081 287542 268778 -3014 12506 -10146
43100 287559 268781 -3020 12507 -10142
43121 287590 268785 -2997 12501 -10132
43144 287596 268785 -2986 12501 -10139
43166 287618 268793 -2993 12493 -10154
43193 287650 268808 -3013 12480 -10162
43220 287690 268835 -3028 12465 -10153
43251 287714 268849 -2978 12500 -10157
43277 287735 268854 -3017 12499 -10164
43298 287735 268838 -3038 12479 -10172
43326 287789 268850 -3058 12479 -10181
43322 287733 268817 -3047 12474 -10171
43283 287679 268787 -3050 12486 -10173
43212 287597 268746 -3068 12506 -10181
43134 287530 268687 -3050 12486 -10191
43054 287436 268625 -3028 12460 -10189
42990 287391 268618 -3028 12499 -10137
42937 287395 268617 -3027 12520 -10183
42905 287443 268642 -2994 12504 -10195
42887 287537 268725 -3018 12480 -10205
42873 287638 268819 -3049 12469 -10189
42867 287773 268916 -3010 12453 -10181
42869 287959 269024 -2991 12429 -10162
42852 288030 268847 -3008 12420 -10154
42742 287689 268092 -3012 12396 -10169
42533 287099 267226 -3036 12403 -10238
42325 286589 266543 -2992 12439 -10304
42159 286199 266329 -2926 12464 -10343
42105 285837 266884 -2946 12486 -10344
42248 285283 267910 -3007 12505 -10290
42778 285547 271029 -3014 12373 -10135
43710 287353 275511 -2982 12101 -9833
44536 288973 279117 -2993 12059 -9745
45179 290026 281623 -3057 12219 -9913
45716 290730 283144 -3028 12111 -9765
46129 291114 283986 -2715 11564 -9929
46468 291468 284529 -2242 11034 -10552
46745 291757 284863 -2427 11536 -11005
46916 291656 284723 -3105 12265 -11374
44361 289065 269220 -3169 11746 -11277
44267 289079 269393 -2826 11385 -11052
44139 289099 269528 -2646 11181 -10861
43987 289107 269628 -2848 11244 -10863
43823 289082 269676 -3125 11339 -10811
43661 289081 269710 -3283 11380 -10832
43513 289069 269718 -3275 11454 -10792
43380 289035 269716 -2902 11816 -10646
43271 288993 269696 -2809 11999 -10575
43175 288957 269653 -2900 12091 -10499
43096 288923 269615 -3004 12152 -10422
43028 288867 269554 -3063 12208 -10399
42974 288825 269498 -3103 12245 -10434
42935 288780 269451 -3144 12309 -10442
42896 288717 269409 -3199 12389 -10410
42862 288653 269375 -3216 12437 -10401
42832 288624 269374 -3111 12592 -10365
42799 288606 269358 -3157 12560 -10310
42766 288572 269346 -3201 12521 -10291
42740 288549 269342 -3097 12487 -10258
42715 288537 269336 -3028 12406 -10214
42691 288514 269315 -3036 12373 -10179
42676 288483 269301 -3045 12364 -10189
42665 288456 269288 -3050 12324 -10170
42658 288443 269280 -3044 12299 -10155
42657 288453 269270 -3037 12321 -10176
42661 288432 269255 -3075 12382 -10218
42672 288436 269252 -3134 12403 -10252
42687 288428 269242 -3139 12387 -10267
42696 288408 269230 -3120 12403 -10277
42715 288395 269227 -3087 12426 -10257
42743 288406 269225 -3062 12429 -10246
42771 288422 269242 -3067 12429 -10238
42788 288421 269252 -3079 12430 -10229
42813 288402 269249 -3087 12423 -10219
42850 288424 269262 -3063 12436 -10211
42886 288421 269264 -3018 12458 -10231
42917 288432 269267 -3033 12462 -10249
42946 288428 269264 -3082 12464 -10254
42955 288387 269251 -3085 12459 -10225
42934 288303 269207 -3084 12447 -10219
42882 288222 269182 -3072 12435 -10228
42813 288142 269146 -3054 12445 -10199
42739 288071 269113 -3072 12446 -10179
42670 287992 269095 -3107 12442 -10175
42608 287926 269056 -3056 12454 -10187
42562 287875 269016 -2924 12499 -10204
42527 287807 268968 -2946 12551 -10212
42506 287785 268951 -3033 12536 -10205
42495 287746 268942 -3028 12511 -10193
42490 287729 268937 -2992 12487 -10162
42500 287753 268941 -2983 12474 -10147
42513 287756 268934 -3019 12479 -10144
42527 287759 268942 -3059 12470 -10139
42529 287747 268937 -3079 12467 -10148
42529 287741 268930 -3040 12483 -10144
42529 287730 268948 -2988 12484 -10132
42522 287719 268951 -3028 12498 -10130
42520 287710 268964 -3056 12524 -10133
42518 287700 268961 -3015 12511 -10145
42518 287710 268969 -3038 12497 -10147
42520 287718 268980 -3099 12491 -10151
42528 287730 268983 -3107 12478 -10163
42537 287751 268996 -3079 12472 -10171
42548 287768 269007 -3043 12470 -10175
42560 287786 269014 -3049 12464 -10175
42579 287797 269027 -3060 12490 -10183
42600 287807 269037 -3029 12485 -10175
42623 287816 269054 -3022 12472 -10185
42647 287839 269057 -3037 12473 -10190
42674 287852 269078 -3047 12465 -10185
42700 287872 269071 -3054 12443 -10182
42730 287878 269086 -3046 12434 -10185
42758 287901 269109 -3037 12440 -10191
42795 287923 269123 -3048 12437 -10196
42822 287947 269139 -3027 12446 -10218
42850 287968 269136 -2979 12457 -10244
42866 287966 269131 -3005 12461 -10236
42847 287899 269105 -3050 12462 -10226
42798 287842 269085 -3044 12453 -10218
42732 287799 269080 -3030 12460 -10198
42660 287752 269074 -3045 12454 -10185
42591 287724 269053 -3106 12458 -10193
42528 287694 269043 -3074 12458 -10218
42477 287670 269032 -2984 12442 -10234
42435 287640 269028 -3007 12465 -10238
42408 287645 269026 -3034 12483 -10253
42391 287652 269032 -3008 12459 -10241
42381 287638 269029 -2984 12427 -10211
42383 287663 269040 -2993 12417 -10195
42389 287651 269031 -3026 12414 -10180
42395 287652 269036 -3055 12415 -10171
42396 287627 269020 -3064 12415 -10179
42392 287597 269002 -3045 12432 -10170
42388 287564 268985 -3072 12446 -10166
42383 287555 268984 -3099 12458 -10175
42380 287541 268991 -3009 12484 -10212
42373 287520 268972 -2984 12487 -10239
42372 287508 268984 -3060 12478 -10206
42376 287512 268976 -3081 12478 -10191
42389 287542 269000 -3069 12456 -10187
42401 287540 268999 -3046 12442 -10200
42417 287581 269018 -3036 12443 -10205
42433 287608 269035 -3066 12430 -10201
42455 287635 269070 -3085 12436 -10217
42481 287686 269093 -3066 12446 -10228
42503 287700 269106 -3031 12471 -10244
42528 287714 269118 -3012 12466 -10241
42556 287736 269120 -3029 12430 -10226
42587 287743 269115 -3046 12419 -10221
42623 287786 269144 -3047 12406 -10216
42656 287797 269142 -3059 12403 -10216
42687 287785 269141 -3075 12400 -10215
42710 287796 269141 -3076 12406 -10221
42716 287751 269124 -3076 12427 -10210
42691 287680 269100 -3079 12433 -10203
42644 287631 269097 -3000 12468 -10226
42578 287570 269070 -3010 12449 -10185
42504 287504 269037 -3022 12450 -10184
42445 287459 269016 -3017 12446 -10207
42388 287394 268977 -3039 12442 -10202
42346 287337 268929 -3083 12470 -10184
42316 287270 268882 -3034 12493 -10186
42303 287217 268853 -2954 12471 -10216
42303 287195 268851 -2991 12440 -10225
42318 287209 268871 -2951 12487 -10246
42344 287203 268877 -2986 12455 -10257
42368 287227 268906 -3106 12443 -10256
42385 287245 268938 -3127 12443 -10215
42388 287218 268934 -3089 12446 -10198
42564 287477 269138 -2969 12485 -10172
42588 287479 269135 -2988 12459 -10150
42620 287516 269154 -2979 12478 -10185
42643 287537 269159 -2982 12483 -10238
42668 287544 269170 -2979 12458 -10267
42694 287542 269167 -2941 12460 -10276
42730 287567 269183 -2923 12458 -10268
42765 287599 269197 -2942 12448 -10274
42798 287615 269213 -2942 12423 -10267
42826 287637 269227 -2955 12406 -10250
42841 287608 269207 -2962 12414 -10253
42822 287546 269188 -2943 12407 -10251
42768 287485 269167 -2954 12396 -10234
42696 287415 269137 -3001 12407 -10223
42621 287357 269112 -3013 12412 -10257
42554 287328 269092 -2944 12430 -10336
42497 287307 269091 -2869 12438 -10345
42451 287282 269074 -2918 12441 -10296
42421 287267 269064 -2956 12446 -10273
42405 287296 269077 -2932 12440 -10264
42394 287312 269091 -2941 12433 -10248
42393 287335 269098 -2959 12430 -10233
42408 287329 269084 -2973 12428 -10204
42418 287337 269095 -2973 12419 -10186
42427 287345 269106 -2960 12428 -10196
42431 287354 269104 -2909 12468 -10185
42428 287338 269090 -2924 12478 -10198
42423 287308 269071 -2957 12468 -10201
42418 287299 269066 -2879 12466 -10185
42417 287295 269080 -2880 12464 -10206
42419 287306 269073 -2951 12459 -10220
42422 287305 269066 -2981 12450 -10231
42428 287298 269061 -2988 12442 -10238
42437 287305 269058 -2939 12446 -10234
42452 287322 269077 -2926 12454 -10236
42467 287326 269081 -2945 12474 -10302
42490 287326 269078 -2937 12445 -10279
42513 287346 269081 -2908 12418 -10265
42547 287384 269102 -2934 12403 -10266
42575 287406 269122 -2967 12392 -10271
42602 287446 269138 -2965 12369 -10274
42635 287462 269143 -2953 12355 -10276
42666 287487 269154 -2959 12351 -10281
42703 287516 269167 -2981 12358 -10292
42741 287550 269179 -2944 12413 -10354
42772 287566 269173 -2970 12416 -10348
42791 287547 269156 -2959 12394 -10323
42774 287489 269139 -2962 12388 -10299
42727 287436 269106 -3012 12388 -10283
42660 287369 269088 -3034 12387 -10297
42585 287326 269061 -2980 12390 -10317
42516 287274 269046 -2938 12396 -10320
42456 287246 269035 -2989 12394 -10315
42412 287214 269013 -2991 12401 -10328
42385 287204 269003 -2905 12400 -10344
42371 287242 269024 -2894 12379 -10336
42357 287241 269011 -2940 12370 -10319
42344 287252 269012 -2968 12351 -10279
42352 287274 269013 -3007 12354 -10288
42362 287276 269008 -3011 12379 -10318
42373 287285 268999 -2971 12391 -10284
42378 287296 269010 -3014 12398 -10284
42376 287293 269007 -3026 12407 -10286
42370 287274 268999 -2909 12422 -10283
42369 287281 269010 -2873 12452 -10313
42363 287287 269008 -2957 12459 -10320
42368 287324 269044 -2993 12417 -10304
42378 287427 269117 -2965 12385 -10301
42390 287557 269222 -2938 12393 -10310
42403 287662 269319 -2957 12403 -10317
42420 287812 269444 -2993 12393 -10321
42427 287945 269556 -3020 12385 -10296
42438 288072 269651 -2998 12386 -10251
42440 288159 269698 -2957 12417 -10267
42431 288172 269698 -2917 12463 -10280
42427 288165 269698 -2908 12493 -10230
42430 288183 269715 -2977 12503 -10189
42427 288141 269652 -3017 12488 -10128
42411 288006 269454 -3019 12482 -10081
42371 287810 269002 -3026 12486 -10087
42236 287293 268120 -3023 12497 -10113
42007 286591 267131 -2991 12479 -10142
41757 285968 266721 -2952 12449 -10184
41599 285237 267066 -2937 12367 -10232
41584 284100 267251 -2877 12149 -10071
41763 283858 268290 -2854 11991 -9856
41969 284101 269439 -2926 11839 -9521
42150 284339 270249 -2960 11579 -9438
42158 284329 270094 -2515 10995 -10157
42040 284465 269650 -2108 11595 -11058
41833 284610 268993 -2545 12803 -11714
41658 284727 268505 -3147 12837 -12296
41501 284808 268268 -3315 12491 -12381
41416 284774 268264 -3080 12325 -12089
41388 284740 268215 -2841 11996 -11914
41394 284787 268074 -3032 11975 -11875
41405 284855 267893 -3138 11738 -11797
41401 284869 267794 -3189 11472 -11676
41385 284844 267766 -3049 11600 -11449
41374 284796 267829 -2939 11888 -11299
41371 284775 267816 -3025 11909 -11130
41356 284724 267717 -3130 11658 -10946
41312 284645 267555 -3089 11464 -10812
41247 284564 267349 -2960 11489 -10745
41185 284588 267376 -2923 11657 -10746
41133 284561 267305 -2968 11827 -10725
41082 284549 267218 -2998 11921 -10658
41042 284608 267151 -3019 11955 -10673
41013 284719 267134 -3045 11996 -10848
40994 284846 267137 -3045 12059 -10963
41005 284992 267097 -3066 12090 -10982
41039 285099 267011 -3171 12127 -11050
41106 285220 267020 -3203 12162 -11015
41185 285352 267132 -3125 12196 -10962
41272 285510 267289 -3074 12252 -10957
41358 285629 267447 -3053 12264 -10950
41459 285757 267558 -3115 12213 -10915
41568 285900 267687 -3221 12175 -10806
41666 286010 267778 -3169 12212 -10696
41755 286079 267828 -3029 12272 -10574
41825 286137 267861 -2975 12287 -10494
41875 286145 267885 -2972 12260 -10454
41891 286122 267884 -2994 12225 -10382
41882 286120 267906 -3047 12199 -10350
41858 286115 267917 -3030 12202 -10389
41833 286130 267923 -2864 12221 -10406
41811 286131 267935 -2801 12250 -10437
41796 286136 267934 -2940 12286 -10487
41791 286144 267939 -3028 12289 -10493
41798 286164 267947 -3027 12281 -10473
41817 286181 267968 -2995 12293 -10455
41846 286207 267980 -2991 12318 -10452
41883 286246 268011 -3023 12321 -10447
41931 286277 268035 -3044 12308 -10455
41980 286295 268060 -2995 12312 -10505
42028 286336 268088 -2948 12314 -10484
42071 286371 268120 -3000 12295 -10458
42111 286416 268156 -3043 12289 -10466
42146 286460 268185 -3000 12293 -10425
42173 286492 268208 -2980 12297 -10410
42198 286509 268214 -3015 12300 -10392
42233 286530 268234 -3027 12301 -10378
42275 286551 268260 -3035 12316 -10383
42323 286598 268327 -3028 12331 -10369
42386 286665 268415 -2942 12435 -10437
42446 286720 268502 -3008 12470 -10422
42507 286718 268542 -3040 12446 -10382
42578 286782 268596 -2992 12428 -10338
42652 286814 268649 -2980 12435 -10321
42726 286882 268706 -3010 12426 -10275
42793 286947 268762 -3052 12400 -10212
42864 286991 268805 -3081 12385 -10187
42928 287036 268828 -3044 12384 -10170
42992 287068 268854 -2972 12464 -10178
43053 287096 268876 -3012 12482 -10187
43117 287170 268924 -3062 12455 -10164
43179 287200 268945 -3091 12437 -10153
43232 287243 268964 -3081 12424 -10161
43275 287253 268967 -3076 12432 -10165
43285 287186 268937 -3090 12443 -10150
43268 287111 268907 -3157 12446 -10164
43235 287078 268897 -3167 12439 -10182
43191 287039 268882 -3052 12474 -10262
43144 286981 268834 -3136 12493 -10284
43112 286955 268809 -3143 12459 -10267
43088 286952 268789 -3118 12427 -10237
43075 286932 268776 -3127 12410 -10220
43070 286927 268774 -3155 12405 -10208
43080 286944 268787 -3181 12391 -10192
43093 286952 268791 -3180 12380 -10189
43117 286999 268818 -3151 12397 -10194
43144 287007 268810 -3154 12406 -10202
43173 287010 268817 -3203 12436 -10229
43202 287040 268822 -3192 12445 -10228
43222 287035 268826 -3145 12428 -10228
43238 287026 268819 -3191 12439 -10224
43252 286993 268791 -3228 12435 -10207
43265 286959 268758 -3207 12420 -10201
43276 286886 268712 -3191 12397 -10186
43293 286799 268649 -3167 12381 -10194
43319 286743 268598 -3126 12397 -10224
43354 286719 268563 -3101 12424 -10260
43396 286751 268574 -3074 12439 -10283
43432 286789 268596 -3037 12429 -10272
43472 286828 268630 -3035 12422 -10254
43511 286853 268657 -3059 12420 -10254
43553 286913 268690 -3098 12405 -10266
43597 286978 268730 -3096 12386 -10262
43644 287052 268782 -3061 12383 -10248
43690 287114 268823 -3064 12392 -10243
43731 287179 268864 -3082 12397 -10247
43779 287229 268917 -3076 12398 -10255
43827 287310 268957 -3065 12472 -10314
43869 287343 268981 -3060 12426 -10284
43908 287401 269012 -3071 12402 -10234
43938 287430 269026 -3116 12395 -10218
43940 287410 269032 -3152 12381 -10251
43908 287366 269021 -3102 12365 -10287
43864 287355 269023 -3072 12372 -10293
43814 287336 269015 -3118 12376 -10276
43798 287459 269037 -3128 12435 -10236
43814 287463 269049 -3158 12419 -10220
43825 287458 269064 -3118 12402 -10218
43840 287466 269079 -3087 12416 -10214
43857 287500 269118 -3110 12427 -10206
43873 287515 269128 -3147 12422 -10222
43889 287536 269143 -3143 12419 -10228
43906 287529 269165 -3094 12414 -10217
43930 287558 269179 -3077 12422 -10218
43960 287596 269207 -3104 12440 -10238
43986 287634 269216 -3118 12451 -10255
44019 287654 269223 -3103 12444 -10238
44055 287681 269236 -3093 12433 -10218
44090 287700 269251 -3096 12424 -10211
44126 287723 269251 -3110 12412 -10207
44166 287736 269265 -3112 12407 -10212
44203 287755 269268 -3103 12407 -10214
44245 287775 269271 -3125 12413 -10213
44291 287778 269283 -3123 12420 -10232
44338 287782 269291 -3098 12430 -10229
44391 287808 269307 -3068 12460 -10215
44431 287840 269296 -3064 12468 -10211
44468 287824 269283 -3103 12454 -10212
44481 287776 269254 -3060 12429 -10234
44469 287721 269229 -3033 12418 -10252
44435 287680 269212 -3094 12427 -10251
44387 287631 269185 -3067 12415 -10237
44345 287597 269182 -3004 12400 -10225
44317 287580 269192 -3013 12400 -10215
44293 287571 269197 -3043 12409 -10217
44276 287559 269178 -3053 12424 -10235
44269 287554 269194 -3061 12423 -10241
44268 287573 269208 -3053 12429 -10234
44276 287576 269216 -3027 12436 -10206
44300 287633 269243 -3088 12449 -10202
44321 287618 269230 -3128 12463 -10210
44342 287637 269237 -3046 12447 -10199
44358 287639 269258 -3055 12451 -10194
44376 287645 269270 -3132 12454 -10185
44392 287660 269285 -3138 12439 -10183
44606 287799 269436 -3092 12457 -10221
44641 287836 269455 -3066 12460 -10253
44682 287851 269479 -3103 12434 -10227
44716 287873 269473 -3139 12426 -10194
44753 287878 269468 -3143 12447 -10197
44793 287905 269488 -3120 12451 -10210
44832 287951 269505 -3112 12422 -10208
44867 287970 269523 -3126 12412 -10195
44906 288008 269532 -3135 12406 -10193
44942 288023 269541 -3125 12400 -10214
44642 287768 269445 -3090 12460 -10175
44636 287761 269443 -3113 12444 -10212
44629 287758 269440 -3038 12426 -10222
44638 287768 269434 -3033 12446 -10218
44646 287731 269430 -3110 12457 -10213
44655 287732 269434 -3105 12432 -10216
44667 287728 269447 -3060 12414 -10206
44671 287728 269459 -3049 12423 -10183
44672 287708 269443 -3062 12420 -10169
44673 287698 269450 -3097 12429 -10171
44859 287834 269460 -3074 12480 -10210
44890 287857 269465 -3091 12490 -10218
44924 287882 269488 -3126 12465 -10194
44954 287919 269509 -3120 12456 -10176
44989 287962 269542 -3097 12454 -10173
45023 287998 269566 -3090 12443 -10175
45054 288040 269607 -3092 12425 -10179
45083 288081 269620 -3094 12421 -10186
45117 288114 269642 -3086 12412 -10190
45148 288148 269665 -3090 12413 -10201
45173 288158 269667 -3093 12439 -10233
45197 288175 269650 -3086 12435 -10241
45203 288132 269619 -3086 12421 -10224
45180 288078 269598 -3091 12427 -10224
45130 287999 269563 -3124 12427 -10228
45061 287930 269524 -3130 12424 -10222
44994 287855 269477 -3112 12430 -10216
44934 287795 269450 -3128 12453 -10219
44883 287754 269410 -3126 12448 -10221
44842 287674 269364 -3111 12424 -10214
44811 287602 269325 -3117 12462 -10203
44793 287560 269300 -3140 12442 -10207
44787 287521 269264 -3085 12424 -10220
44786 287509 269240 -3072 12429 -10245
44817 287601 269287 -3125 12440 -10243
44834 287658 269367 -3108 12431 -10235
44858 287837 269471 -3069 12413 -10225
44857 287947 269568 -3069 12404 -10215
44852 288043 269632 -3084 12406 -10211
44825 288085 269614 -3087 12431 -10239
44771 288055 269412 -3076 12430 -10244
44673 287811 268885 -3067 12410 -10212
44510 287443 268207 -3144 12415 -10243
44294 286986 267568 -3170 12439 -10279
44094 286603 267080 -3079 12418 -10259
43923 286301 267255 -3060 12442 -10216
43832 285512 267451 -3080 12541 -10159
43970 284893 268235 -3092 12617 -10123
44369 285394 270517 -3127 12608 -10155
44934 286567 273290 -3105 12553 -10174
45535 288004 276273 -2989 12401 -10105
46042 289008 278765 -2961 12270 -9891
46455 289703 280641 -3038 12253 -9793
46813 290305 281992 -3052 12178 -9772
47096 290599 282539 -2935 11867 -9556
47216 290009 281789 -2470 11077 -9931
47118 288374 279378 -2026 11435 -10542
46941 287554 277224 -2422 12307 -11178
46720 287288 275479 -3186 12309 -11705
46432 287311 273663 -3550 12157 -11825
46114 287460 272055 -3515 11754 -12020
45826 287613 270902 -3389 11607 -12102
45554 287651 269942 -3478 11784 -12262
45284 287640 269164 -3525 11902 -12580
45080 287642 268721 -3344 12015 -12708
44942 287704 268693 -3243 12125 -12197
44821 287748 268826 -3189 12147 -11632
44708 287784 268953 -3114 12096 -11597
44612 287818 269024 -3143 11878 -11505
44536 287875 269108 -3178 11237 -11117
44472 287952 269188 -3248 11274 -11002
44420 288034 269265 -3236 11410 -10876
44374 288122 269333 -3153 11539 -10766
44340 288194 269382 -3095 11690 -10757
44313 288260 269411 -3023 11761 -10711
44286 288285 269414 -2996 11800 -10583
44253 288266 269371 -2988 11841 -10487
44221 288256 269337 -2976 11944 -10512
44192 288239 269295 -2993 12076 -10579
44157 288208 269283 -2998 12173 -10628
44122 288171 269265 -3016 12233 -10570
44090 288148 269261 -3077 12253 -10505
44058 288138 269238 -3150 12317 -10496
44030 288115 269233 -3161 12407 -10483
44006 288094 269212 -3108 12433 -10478
43996 288092 269218 -3106 12473 -10438
44000 288106 269242 -3165 12492 -10386
44000 288095 269224 -3219 12437 -10360
44006 288084 269208 -3178 12384 -10323
44012 288086 269205 -3069 12336 -10291
44027 288098 269193 -3071 12288 -10270
44036 288090 269181 -3149 12284 -10244
44051 288078 269171 -3176 12285 -10217
44075 288079 269162 -3151 12269 -10204
44100 288083 269178 -3145 12282 -10220
44121 288100 269187 -3161 12315 -10245
44150 288115 269208 -3179 12332 -10277
44183 288146 269231 -3225 12339 -10289
44214 288162 269247 -3265 12358 -10304
44242 288193 269270 -3261 12390 -10330
44261 288191 269275 -3230 12389 -10321
44247 288124 269254 -3235 12361 -10309
44206 288049 269241 -3273 12346 -10306
44141 287990 269213 -3281 12329 -10298
44063 287942 269190 -3281 12337 -10304
43982 287879 269161 -3243 12344 -10324
43908 287835 269143 -3193 12340 -10332
43841 287805 269119 -3193 12352 -10295
43783 287766 269101 -3225 12355 -10290
43745 287747 269079 -3144 12395 -10373
43672 287755 269150 -3206 12379 -10301
43664 287763 269158 -3146 12363 -10287
43662 287771 269180 -3130 12354 -10285
43667 287772 269190 -3180 12352 -10275
43675 287789 269200 -3199 12346 -10274
43687 287811 269209 -3205 12353 -10289
43710 287823 269238 -3195 12362 -10306
43726 287847 269234 -3182 12366 -10315
43745 287860 269249 -3202 12365 -10309
43771 287894 269257 -3195 12367 -10295
43800 287913 269278 -3177 12361 -10286
43830 287940 269296 -3188 12357 -10276
43857 287963 269303 -3198 12350 -10275
43889 287968 269334 -3196 12341 -10280
43932 287998 269354 -3199 12338 -10280
43972 288030 269378 -3219 12337 -10271
44005 288055 269390 -3232 12337 -10286
44037 288073 269399 -3210 12348 -10317
44047 288039 269393 -3208 12354 -10310
44027 287976 269373 -3241 12361 -10292
43972 287929 269359 -3248 12361 -10289
43913 287871 269339 -3240 12354 -10278
43845 287807 269316 -3237 12357 -10259
43785 287780 269312 -3255 12358 -10254
43738 287773 269311 -3259 12359 -10260
43703 287752 269318 -3183 12351 -10271
43677 287737 269303 -3141 12358 -10290
43668 287746 269313 -3193 12396 -10320
43664 287744 269327 -3207 12400 -10315
43673 287797 269339 -3175 12370 -10278
43688 287792 269342 -3156 12363 -10252
43705 287800 269347 -3164 12372 -10240
43722 287817 269345 -3178 12358 -10231
43733 287827 269359 -3184 12346 -10230
43737 287820 269359 -3153 12362 -10237
43743 287830 269371 -3133 12377 -10233
43744 287828 269382 -3194 12400 -10228
43745 287818 269384 -3090 12431 -10255
43748 287818 269387 -3128 12427 -10237
43760 287828 269394 -3205 12422 -10230
43778 287845 269415 -3217 12401 -10219
43796 287867 269440 -3192 12392 -10214
43821 287881 269457 -3156 12392 -10222
43848 287903 269462 -3153 12392 -10220
43876 287930 269466 -3185 12400 -10204
43903 287940 269478 -3202 12413 -10196
43933 287949 269473 -3146 12444 -10247
43965 287957 269469 -3162 12410 -10244
44001 287970 269479 -3193 12389 -10216
44035 287970 269467 -3209 12389 -10201
44075 287997 269469 -3204 12386 -10206
44122 288038 269489 -3198 12381 -10216
44166 288062 269490 -3200 12381 -10229
44203 288078 269499 -3191 12386 -10241
44242 288091 269502 -3191 12396 -10243
44256 288058 269482 -3180 12440 -10263
44231 287986 269460 -3180 12425 -10239
44186 287948 269440 -3206 12413 -10202
44127 287902 269430 -3246 12412 -10192
44066 287859 269418 -3219 12417 -10209
44014 287833 269416 -3128 12408 -10209
43970 287818 269413 -3134 12427 -10203
43937 287830 269413 -3197 12444 -10204
43913 287817 269409 -3176 12433 -10189
43902 287818 269422 -3107 12437 -10188
43901 287831 269435 -3135 12440 -10200
43905 287840 269455 -3182 12420 -10189
43923 287855 269455 -3215 12409 -10181
43941 287852 269462 -3200 12424 -10174
43959 287865 269467 -3209 12441 -10186
43975 287876 269475 -3236 12438 -10189
43978 287885 269490 -3173 12423 -10179
43986 287885 269490 -3131 12422 -10194
43989 287883 269476 -3180 12454 -10191
43992 287904 269485 -3204 12464 -10208
43999 287903 269492 -3181 12452 -10216
44011 287917 269492 -3142 12436 -10186
44023 287945 269513 -3123 12424 -10176
44042 287952 269518 -3159 12419 -10175
44064 287971 269535 -3193 12426 -10180
44089 287991 269548 -3191 12436 -10182
44117 288007 269553 -3167 12430 -10181
44145 288031 269578 -3160 12431 -10194
44177 288055 269587 -3172 12436 -10194
44210 288082 269605 -3173 12444 -10216
44247 288105 269610 -3162 12425 -10233
44284 288137 269629 -3157 12412 -10209
44323 288181 269647 -3146 12422 -10195
44365 288198 269656 -3153 12429 -10198
44405 288236 269658 -3167 12429 -10195
44442 288274 269679 -3174 12427 -10194
44476 288287 269666 -3191 12448 -10197
44501 288275 269667 -3178 12437 -10204
44500 288236 269648 -3173 12417 -10200
44468 288187 269617 -3163 12456 -10175
44415 288154 269610 -3166 12432 -10177
44352 288095 269587 -3117 12417 -10187
44288 288061 269569 -3148 12429 -10207
44236 288021 269543 -3218 12447 -10215
44196 288001 269539 -3188 12432 -10226
44168 288000 269531 -3147 12410 -10227
44150 287995 269535 -3172 12404 -10211
44141 287993 269547 -3204 12407 -10195
44139 287978 269538 -3159 12418 -10247
44154 288013 269564 -3149 12409 -10232
44170 287999 269563 -3145 12401 -10203
44191 288001 269565 -3193 12422 -10185
44204 287996 269558 -3187 12429 -10176
44214 287997 269550 -3097 12415 -10180
44225 287980 269535 -3109 12437 -10185
44228 287963 269523 -3183 12440 -10197
44236 287966 269516 -3194 12421 -10204
44248 287978 269513 -3124 12454 -10226
44260 287975 269514 -3133 12462 -10228
44272 287965 269506 -3167 12451 -10231
44285 287968 269505 -3177 12439 -10229
44307 287975 269511 -3156 12420 -10222
44332 287992 269520 -3146 12411 -10226
44357 288031 269516 -3154 12409 -10218
44391 288072 269530 -3150 12398 -10206
44421 288097 269534 -3160 12383 -10204
44453 288130 269541 -3184 12394 -10222
44487 288165 269550 -3169 12417 -10230
44524 288204 269572 -3134 12418 -10215
44559 288225 269576 -3145 12407 -10227
44595 288254 269595 -3169 12394 -10248
44640 288299 269611 -3182 12396 -10238
44681 288342 269639 -3194 12427 -10226
44718 288376 269649 -3175 12430 -10224
44752 288394 269640 -3160 12414 -10234
44779 288401 269638 -3179 12404 -10222
44783 288365 269628 -3210 12403 -10224
44755 288324 269598 -3162 12430 -10263
44701 288288 269579 -3086 12427 -10283
44638 288242 269550 -3134 12408 -10277
44579 288202 269519 -3227 12415 -10259
44534 288192 269517 -3207 12410 -10238
44497 288189 269494 -3136 12398 -10222
44470 288174 269476 -3128 12394 -10216
44455 288178 269479 -3163 12389 -10211
44445 288183 269476 -3190 12386 -10210
44442 288191 269465 -3182 12391 -10211
44459 288222 269481 -3129 12434 -10219
44478 288210 269468 -3139 12448 -10224
44497 288194 269444 -3201 12436 -10210
44507 288192 269442 -3179 12428 -10207
44523 288187 269423 -3154 12413 -10228
44528 288173 269407 -3180 12415 -10225
44530 288150 269389 -3210 12414 -10221
44533 288128 269372 -3198 12394 -10218
44538 288103 269345 -3173 12388 -10214
44545 288093 269331 -3164 12392 -10220
44554 288077 269313 -3161 12408 -10256
44573 288093 269287 -3170 12423 -10282
44589 288112 269291 -3151 12395 -10251
44610 288142 269305 -3138 12383 -10262
44633 288169 269315 -3159 12396 -10280
44653 288192 269319 -3179 12403 -10268
44679 288202 269313 -3179 12384 -10259
44710 288217 269302 -3165 12365 -10253
44742 288240 269302 -3152 12372 -10254
44775 288269 269299 -3139 12368 -10256
44805 288308 269300 -3131 12390 -10273
44833 288320 269310 -3154 12416 -10256
44869 288362 269330 -3187 12435 -10252
44905 288420 269364 -3174 12404 -10251
44943 288512 269449 -3143 12389 -10267
44984 288632 269569 -3170 12392 -10245
45017 288766 269684 -3208 12382 -10236
45012 288840 269801 -3210 12378 -10252
44968 288927 269915 -3152 12382 -10267
44903 288989 269988 -3182 12469 -10202
44816 288962 269931 -3246 12493 -10156
44722 288916 269760 -3231 12427 -10172
44596 288701 269280 -3186 12350 -10230
44418 288318 268589 -3153 12293 -10202
44202 287892 267932 -3141 12291 -10198
43967 287449 267433 -3203 12260 -10213
43759 287066 267469 -3284 12131 -9793
43668 286267 267714 -3126 11626 -9433
43869 285501 268817 -2542 10762 -9994
44461 286322 272117 -2197 11519 -10672
45237 287955 275852 -2561 12625 -11262
45943 289145 279080 -2996 12280 -11807
46481 289697 281353 -3277 11703 -12019
46914 290312 282845 -3397 11256 -12022
47240 290782 283543 -3190 11397 -12140
47441 290807 283545 -2987 11785 -12376
47495 289980 282463 -3027 11956 -12367
47439 288801 280742 -3231 12039 -12193
47381 288175 279550 -3426 12089 -11863
47316 287851 278708 -3260 11956 -11575
47200 287541 277680 -2895 11654 -11547
46995 287320 276290 -2848 11437 -11688
46698 287346 274501 -3050 11377 -11751
46356 287625 272365 -3187 11468 -11788
46069 287868 270821 -3318 11588 -11740
45847 288092 269914 -3374 11638 -11482
45679 288367 269465 -3225 11609 -11200
45575 288651 269336 -3064 11529 -11104
44666 288925 269166 -3001 11500 -11085
44524 288821 269097 -3075 11567 -11049
44401 288754 269062 -3171 11728 -11027
44293 288704 269041 -3206 11876 -11055
44194 288648 269037 -3169 11964 -11073
44111 288602 269033 -3175 11995 -10985
44044 288558 269006 -3250 12027 -10948
43982 288519 268992 -3306 12076 -10988
43929 288476 268962 -3268 12116 -10887
43896 288469 268967 -3261 12168 -10781
43870 288452 268963 -3228 12220 -10720
43851 288436 268975 -3218 12211 -10703
43833 288415 268979 -3274 12182 -10676
43815 288404 268982 -3316 12139 -10605
43795 288395 269010 -3251 12128 -10521
43779 288384 269029 -3186 12162 -10511
43764 288389 269057 -3181 12197 -10542
43755 288391 269083 -3199 12206 -10518
43756 288409 269118 -3242 12215 -10485
43763 288429 269158 -3281 12234 -10495
43772 288455 269174 -3257 12249 -10474
43788 288455 269203 -3232 12259 -10415
43805 288468 269238 -3246 12272 -10396
43828 288471 269282 -3261 12282 -10384
43869 288482 269297 -3282 12274 -10372
43912 288522 269338 -3286 12269 -10353
43952 288559 269396 -3270 12284 -10330
43995 288546 269413 -3264 12306 -10339
44049 288588 269463 -3292 12313 -10349
44100 288615 269511 -3312 12314 -10350
