2025-08-20 02:46:42    绿光---红外光---红光---X轴---Y轴---Z轴
41192 251366 228392 156 15334 -5729
41202 251859 228823 204 15328 -5677
41175 252130 229065 204 15409 -5560
41147 252592 229440 197 15480 -5447
41092 253344 229970 164 15491 -5378
41039 253678 230204 129 15500 -5340
41013 254003 230489 123 15547 -5299
40960 254577 230910 125 15610 -5262
40882 255266 231447 124 15681 -5210
40795 255680 231712 92 15700 -5149
40706 255840 231847 55 15701 -5081
40616 256361 232253 41 15715 -5037
40532 256550 232394 11 15697 -5010
40443 256898 232657 -23 15700 -4957
40340 257304 232953 -46 15672 -4892
40246 257700 233225 -51 15627 -4795
40134 258118 233485 -20 15625 -4765
40002 258445 233654 1 15601 -4758
39845 258750 233759 8 15627 -4735
39714 258880 233736 -6 15646 -4694
37915 262230 234627 8 15821 -4500
37723 262572 234755 26 15739 -4488
37589 262864 234920 50 15747 -4435
37531 263124 235072 84 15783 -4381
37467 263349 235245 73 15767 -4354
37400 263726 235531 19 15757 -4386
37303 264009 235698 -22 15807 -4394
37240 264167 235783 -18 15820 -4337
37183 264247 235822 1 15803 -4321
37170 263982 235578 32 15798 -4302
37138 264293 235842 88 15816 -4252
37086 264608 236072 69 15865 -4235
37041 264764 236123 8 15868 -4234
37001 264900 236128 -4 15857 -4238
36959 264733 235803 16 15852 -4246
36921 265055 236080 14 15819 -4222
36906 265176 236169 15 15801 -4171
36890 265306 236233 58 15829 -4149
36803 265118 235859 80 15887 -4111
36799 264992 235699 76 15899 -4069
36810 265048 235730 82 15867 -4057
36819 265161 235816 88 15876 -4043
36831 265234 235879 87 15913 -4023
36865 265225 235841 83 15920 -4009
36898 265087 235673 86 15903 -4008
36925 264858 235439 65 15864 -4004
36935 264809 235375 39 15851 -3982
36952 264877 235420 52 15892 -3966
36982 264804 235329 60 15917 -3954
37003 264842 235335 62 15915 -3945
37197 262590 232663 95 15840 -4071
37203 262491 232527 86 15879 -4105
37208 262172 232160 98 15867 -4143
37193 261880 231859 112 15821 -4159
37195 262049 232004 87 15781 -4171
37201 262071 231979 68 15763 -4194
37221 262011 231889 63 15809 -4175
37203 261178 231083 68 15852 -4173
37169 260617 230553 94 15853 -4150
37171 260678 230627 91 15840 -4100
37174 260920 230846 37 15877 -4073
37180 261050 230973 50 15924 -4072
37172 260848 230773 136 15941 -4154
37184 260934 230861 168 15937 -4224
37200 261422 231319 157 15903 -4234
37205 261913 231781 142 15854 -4237
37208 262437 232282 152 15836 -4249
37205 262666 232490 207 15846 -4263
37217 262684 232547 240 15831 -4263
37239 263001 232916 223 15776 -4258
37275 263639 233499 208 15754 -4259
37309 263945 233697 179 15765 -4250
37306 263592 233274 142 15757 -4243
37312 263759 233386 175 15744 -4219
37320 264046 233598 288 15734 -4170
37319 263758 233310 377 15767 -4145
37321 263575 233131 350 15857 -4152
37318 263530 233101 267 15885 -4222
37317 263505 233052 190 15858 -4289
37314 263332 232868 143 15896 -4299
37282 262285 231776 163 15772 -4430
37269 262335 231819 196 15779 -4449
37247 262064 231550 245 15819 -4500
37216 261942 231440 230 15858 -4553
37213 262213 231691 205 15838 -4545
37199 262381 231843 154 15797 -4532
37167 261878 231356 170 15826 -4510
37162 261844 231322 168 15834 -4540
37158 261772 231253 151 15848 -4553
37132 261486 230991 142 15811 -4477
37028 261132 230775 88 15786 -4479
37037 261175 230818 104 15793 -4466
37018 260666 230335 99 15797 -4448
37040 260917 230587 47 15773 -4495
37056 261191 230851 75 15798 -4503
37059 261376 231034 128 15807 -4530
37062 261397 231046 144 15783 -4555
37053 261329 230986 101 15791 -4520
37064 261641 231273 53 15853 -4463
37057 261551 231150 16 15877 -4425
37048 261092 230741 -32 15851 -4354
37046 260746 230396 -115 15812 -4281
37027 260295 229971 -116 15820 -4260
37031 260204 229955 -17 15821 -4223
37023 259925 229751 68 15774 -4215
37031 259652 229556 118 15769 -4278
37028 259218 229196 157 15805 -4337
37067 259226 229228 222 15809 -4396
37106 259423 229453 275 15748 -4457
37115 259367 229441 282 15669 -4567
37054 261166 231402 74 15819 -4449
37065 261217 231463 77 15842 -4385
37053 261272 231536 91 15854 -4352
37054 261356 231609 68 15829 -4366
37059 261364 231618 81 15818 -4326
37066 261547 231804 86 15853 -4273
37061 261737 231999 31 15889 -4259
37059 262012 232247 19 15887 -4262
37062 262490 232700 38 15852 -4230
37062 262826 233004 27 15830 -4207
37058 262695 232852 -2 15843 -4205
37061 262965 233201 -62 15869 -4193
37130 263970 234214 -123 15879 -4192
37283 264416 234648 -142 15803 -4225
37532 264285 234488 -80 15753 -4262
37756 264089 234298 -50 15769 -4296
37919 264425 234634 -156 15805 -4344
37982 264601 234781 -215 15814 -4353
37966 264242 234437 -118 15710 -4358
37931 264117 234315 6 15666 -4358
37865 262529 232740 32 15761 -4661
37861 262409 232573 34 15759 -4682
37896 262217 232348 -22 15698 -4636
37917 262109 232237 -50 15715 -4627
37919 261898 232031 -73 15760 -4625
37926 261962 232102 -42 15797 -4596
37907 261751 231892 26 15811 -4534
37892 261514 231670 -4 15810 -4516
37875 261322 231481 -37 15803 -4522
37858 261187 231313 -10 15798 -4501
37831 260865 231008 15 15777 -4457
37824 260869 230993 28 15748 -4438
37804 260806 230947 11 15737 -4449
37770 260735 230874 13 15741 -4463
37749 260509 230617 48 15760 -4423
37735 260371 230475 50 15788 -4388
37722 260362 230480 23 15803 -4392
37695 260164 230260 33 15807 -4382
37668 260026 230136 76 15831 -4366
37644 260033 230141 74 15838 -4381
37633 260056 230167 35 15818 -4394
37619 259964 230093 12 15804 -4364
37620 259967 230104 6 15781 -4343
37597 259916 230065 36 15788 -4318
37591 259782 229943 71 15824 -4294
37585 259744 229910 83 15835 -4278
37575 259715 229904 93 15841 -4278
37583 259875 230034 89 15837 -4288
37581 259797 229928 83 15835 -4285
37567 259607 229723 65 15838 -4270
37571 259544 229654 46 15819 -4252
37581 259654 229751 53 15807 -4263
37592 259555 229636 67 15757 -4334
37625 259930 229987 77 15783 -4342
37643 260195 230244 66 15787 -4327
37677 260650 230659 62 15796 -4324
37702 261114 231109 53 15789 -4353
37756 261994 231900 63 15800 -4383
37756 262261 232123 68 15837 -4357
37737 262348 232205 29 15818 -4321
37770 264750 234466 -149 15760 -4337
37752 265071 234716 -237 15738 -4316
37708 265138 234794 -180 15768 -4230
37692 265089 234754 -85 15812 -4151
37696 264957 234591 -40 15855 -4126
37698 264602 234248 -54 15865 -4161
37701 264534 234180 -121 15838 -4194
37747 264387 234002 -122 15844 -4204
37823 264130 233713 -12 15881 -4223
37864 263609 233205 126 15864 -4240
37866 263540 233163 184 15821 -4233
37845 263675 233300 93 15836 -4215
37819 263905 233511 -76 15871 -4240
37794 263944 233557 -143 15867 -4291
37772 263792 233451 -24 15858 -4301
37754 263557 233270 143 15885 -4286
37725 263633 233363 219 15908 -4314
37691 263674 233397 160 15916 -4384
37657 263777 233500 56 15900 -4414
37639 263845 233574 85 15835 -4386
37634 263882 233615 259 15780 -4349
37642 263823 233545 358 15820 -4314
37646 263968 233653 291 15873 -4274
37638 264260 233900 177 15876 -4245
37627 264409 234040 112 15877 -4233
37632 264277 233921 154 15889 -4213
37626 264283 233945 225 15913 -4174
37616 264259 233910 223 15922 -4162
37607 264245 233899 157 15914 -4176
37606 264082 233772 96 15898 -4156
37591 264062 233770 85 15851 -4123
37570 264085 233816 127 15818 -4078
37555 263990 233766 208 15859 -4030
37536 264003 233796 249 15912 -3965
37504 264142 233951 237 15919 -3885
37471 264394 234181 217 15881 -3843
37452 264290 234097 195 15869 -3838
37449 264424 234202 163 15897 -3841
37489 264253 234018 151 15893 -3865
37516 264220 233972 143 15868 -3921
37524 264104 233886 120 15830 -3987
37517 263790 233626 132 15805 -4064
37502 263734 233609 165 15827 -4116
37482 263671 233585 210 15861 -4116
37467 263463 233406 282 15885 -4119
37437 263247 233236 341 15893 -4147
37412 263243 233240 341 15902 -4147
37396 263289 233264 296 15896 -4139
37378 263150 233135 281 15872 -4153
37338 263183 233201 318 15891 -4142
37312 263252 233261 120 15830 -3987
37303 263148 233164 132 15805 -4064
37299 263040 233068 165 15827 -4116
37273 262745 232801 210 15861 -4116
37261 262522 232601 282 15885 -4119
37240 262455 232545 341 15893 -4147
37209 262518 232618 341 15902 -4147
37179 262536 232653 296 15896 -4139
37150 262484 232635 281 15872 -4153
37124 262590 232758 318 15891 -4142
37086 262562 232757 378 15901 -4055
37056 262562 232758 325 15926 -4077
37044 262493 232721 362 15944 -4075
37022 262305 232588 441 15970 -4069
37001 262254 232565 471 15950 -4065
36986 262176 232494 461 15915 -4074
36976 261872 232208 430 15898 -4070
36961 261897 232260 464 15899 -4038
36950 261970 232310 568 15912 -3980
36942 261776 232141 631 15898 -3960
36728 257664 227979 653 15886 -4029
36670 256753 227096 704 15902 -4075
36591 255417 225792 757 15927 -3979
36481 253777 224171 676 15910 -3934
36393 252666 223132 330 15914 -3984
36273 251462 221996 39 15940 -3995
36151 250332 220936 166 15960 -3912
36059 249464 220090 608 15998 -3772
35958 248587 219271 900 16037 -3675
35890 247968 218726 822 16000 -3683
35832 247420 218230 601 15865 -3756
35772 246761 217631 475 15805 -3826
35584 244792 215801 509 15842 -3897
35539 243833 215233 627 15866 -3944
36083 244819 217291 776 15874 -3936
36445 245472 218389 865 15904 -3958
36598 245085 218336 790 15955 -4019
36686 243980 217639 646 15943 -4056
36867 243249 217401 635 15863 -4060
37014 242738 217218 740 15831 -3999
37151 241493 216450 802 15821 -3918
37568 241003 216772 761 15852 -3970
37956 241448 217712 657 15936 -4126
38192 242223 218643 563 15947 -4129
38330 242746 219223 471 15907 -4085
38419 242978 219529 484 15899 -4042
38499 242897 219561 669 15942 -3908
38597 242677 219471 751 15961 -3828
38739 242282 219314 697 15920 -3850
38920 242279 219527 631 15904 -3903
39067 242487 219835 601 15845 -4012
39198 243138 220516 503 15851 -4090
39293 243763 221102 397 15884 -4100
39343 243511 220929 346 15916 -4070
39418 243098 220712 376 15925 -4050
39540 243460 221151 462 15926 -4049
39630 244206 221824 567 15922 -4067
39674 244467 222050 620 15909 -4135
39726 244315 221983 574 15897 -4243
39797 244497 222205 472 15863 -4356
41112 245864 224914 627 15927 -4120
41135 246052 225088 395 15911 -4126
41145 246292 225273 368 15924 -4087
41146 246358 225323 541 15918 -4044
41160 246365 225340 670 15874 -4023
41182 246600 225513 607 15852 -4017
41181 246605 225508 484 15878 -4025
41195 246522 225441 435 15894 -4034
41229 246773 225658 456 15877 -4049
41260 246995 225817 509 15861 -4069
41276 246863 225715 582 15827 -4099
41310 246759 225655 569 15853 -4104
41360 246763 225685 585 15860 -4103
41399 246749 225678 617 15887 -4102
41442 246499 225501 630 15913 -4110
41451 245735 224962 621 15918 -4129
41465 245514 224845 606 15908 -4169
41454 245141 224587 604 15915 -4194
41477 245454 224879 625 15936 -4164
41460 246853 225991 686 15826 -4218
41263 247775 227032 635 15789 -4244
41238 247603 226899 635 15798 -4226
41228 247172 226577 504 15831 -4229
41217 246963 226445 471 15848 -4235
41185 246644 226205 602 15845 -4203
41153 246622 226213 700 15858 -4196
41117 246440 226070 668 15876 -4216
41077 246014 225765 643 15855 -4259
41063 245799 225654 659 15824 -4273
41057 245727 225628 669 15850 -4249
41043 245597 225546 690 15881 -4245
41043 245659 225628 691 15893 -4228
41036 245325 225384 691 15897 -4207
41039 244940 225111 678 15907 -4207
41038 244319 224662 644 15899 -4229
41035 243956 224412 681 15875 -4247
41044 243828 224371 711 15870 -4245
41033 243568 224169 668 15863 -4238
41017 243282 223961 614 15813 -4244
41012 243313 224018 571 15813 -4228
41007 243100 223843 560 15865 -4185
41022 242755 223579 574 15883 -4171
41060 242301 223253 588 15883 -4187
41094 242598 223610 613 15880 -4183
41099 243251 224166 622 15889 -4158
41064 243304 224207 636 15909 -4158
41020 243135 224072 679 15910 -4148
40975 243020 223968 686 15898 -4107
40954 243135 224095 659 15848 -4074
40944 243518 224428 627 15842 -4073
40921 243722 224596 661 15886 -4075
40888 243852 224714 713 15919 -4054
40862 244172 224988 642 15939 -4042
40852 245171 225795 574 15926 -4031
40825 245880 226320 588 15928 -4023
40798 245901 226314 587 15936 -4015
40791 246152 226522 587 15921 -3999
40773 246582 226860 588 15906 -3976
40741 246855 227052 629 15852 -3994
40714 246932 227100 648 15870 -3957
40703 247046 227199 591 15893 -3923
40687 247348 227434 481 15924 -3910
40670 247484 227524 483 15941 -3869
40651 247308 227377 528 15961 -3865
40640 247133 227220 494 15968 -3887
40632 247072 227198 433 15965 -3910
40610 247296 227354 410 15964 -3914
40581 247352 227378 483 15906 -3872
40570 247274 227306 466 15925 -3883
40543 247417 227408 426 15950 -3895
40464 248551 228121 452 15979 -3887
40525 248592 228181 473 15968 -3879
40604 248313 228008 477 15968 -3867
40650 248023 227830 478 15980 -3872
40697 247595 227526 482 15973 -3880
40718 247434 227426 488 15938 -3842
40709 247723 227681 485 15873 -3810
40684 247952 227811 457 15856 -3833
40690 247690 227587 493 15888 -3839
40710 247501 227443 537 15912 -3826
40733 247411 227387 531 15933 -3842
40738 247323 227314 530 15938 -3857
40752 247226 227242 509 15943 -3833
40785 246830 226915 474 15946 -3806
40841 246720 226862 468 15956 -3811
40887 246382 226628 502 15964 -3813
40927 246215 226518 537 15935 -3801
40979 245978 226352 551 15925 -3807
41009 245811 226238 536 15942 -3791
41030 245760 226213 485 15962 -3802
41044 245587 226065 457 15978 -3830
41059 245506 226013 512 15969 -3831
41068 245371 225907 540 15969 -3850
41081 245582 226087 527 15956 -3869
41099 245846 226302 542 15929 -3883
41112 246064 226460 550 15917 -3880
41133 246404 226726 577 15896 -3840
41154 246504 226783 597 15899 -3813
41175 246590 226853 587 15918 -3831
41192 246669 226901 573 15927 -3860
41218 246821 227016 559 15937 -3878
41252 246918 227099 558 15951 -3889
41271 247350 227451 553 15968 -3887
41277 247643 227637 522 15973 -3884
41297 247895 227824 503 15972 -3886
41315 248180 228003 523 15965 -3887
41325 248500 228200 576 15886 -3869
41301 248759 228371 555 15914 -3876
41251 249571 228952 544 15925 -3887
41167 249727 228974 570 15922 -3897
41031 249633 228827 582 15929 -3907
40569 248296 227515 556 15942 -3921
40258 241100 221367 532 15946 -3936
40492 235545 216943 506 15968 -3931
41070 234517 216381 469 16015 -3924
42234 233114 216007 335 16204 -3873
45347 228905 215875 320 16080 -3949
53430 233595 228648 595 15219 -4063
53828 221634 218214 974 14637 -4032
48202 204942 198141 981 15233 -3924
43776 196632 187012 627 15648 -3593
40521 191725 180445 413 14852 -3315
38972 188787 176940 1004 14428 -3711
38527 186113 174270 1249 15517 -5019
38644 183159 172120 312 16774 -6925
39809 182000 172822 175 16337 -6712
41216 183250 176121 310 15944 -6446
42562 188016 181789 851 15374 -6240
43977 196486 190253 1089 15073 -6186
45673 206662 200444 1016 15327 -6160
47539 217020 210940 964 15538 -5991
48737 226914 220396 944 15398 -5945
48388 233545 225895 840 15455 -5788
47163 237171 228111 785 15793 -5278
45343 239100 228135 816 15942 -4923
43070 240754 226991 767 15982 -4670
41445 241733 226076 625 15945 -4368
41678 239632 224630 452 15393 -4183
44270 235739 223949 341 14571 -4196
48206 236221 228109 389 14672 -3997
46744 205884 200996 248 16220 -5056
47309 212338 207168 574 16082 -5037
48200 220770 215189 940 15970 -5019
48306 226572 220311 989 15837 -4902
47988 230540 223559 1205 15505 -5292
47525 233255 225635 1248 15348 -5721
47259 234352 226401 1012 15688 -5262
47060 235122 226950 798 15948 -4587
46772 236087 227557 621 15836 -4255
46413 236938 227953 474 15545 -4074
45808 238675 228856 420 15436 -4030
45073 240359 229350 559 15613 -4023
44258 241799 229382 644 15722 -3990
43790 242673 229413 609 15550 -4036
43626 242885 229312 584 15311 -4097
43547 242650 228928 625 15366 -4045
44221 241966 228924 764 15651 -3847
45221 241387 229164 743 15897 -3632
46423 240291 229296 578 15981 -3658
47132 238914 228695 500 15968 -3846
47439 231177 223802 903 16302 -4418
47119 233961 225980 1547 15959 -4616
46614 235495 226961 1342 15208 -5072
46012 236531 227434 797 15126 -5064
45501 236950 227460 686 15600 -4580
45140 236967 227247 815 15820 -4196
44907 236889 226957 711 15796 -4145
44223 238201 227253 614 15841 -4081
43032 240335 227478 554 15890 -4027
42223 242522 228126 542 15739 -3960
42608 242642 228312 589 15205 -4096
44402 241135 228564 714 14873 -4228
46842 239211 229147 821 15260 -4025
49952 236881 230042 738 15802 -3736
52280 234313 229626 468 15717 -3865
53385 230550 227164 364 15635 -3840
53770 225012 222629 467 15704 -3816
53109 219061 216620 626 15774 -3953
51952 213978 211246 658 15940 -4100
50993 210260 207257 561 16040 -4337
50091 206346 203300 542 15962 -5025
48977 201203 198289 608 15850 -5557
47770 195990 193321 563 15888 -5586
46985 193125 190712 810 16083 -5327
46666 192349 190130 1234 15974 -5392
46564 194122 191657 1367 15849 -5603
47068 199822 196789 1282 15545 -5680
47583 204609 201258 1353 15198 -5878
48517 210549 207198 1245 15454 -5741
49559 217177 213838 1004 15795 -5191
50162 222699 219226 947 15670 -4927
50379 226890 223122 905 15512 -4669
50255 229187 225115 846 15505 -4480
50050 230202 225924 763 15625 -4424
49893 230533 226138 696 15733 -4304
49713 231191 226524 646 15749 -4162
49463 233568 228259 544 15629 -4093
48987 236875 230573 549 15220 -4144
48522 239351 232227 757 14870 -4278
48380 240343 232814 990 15251 -4215
48431 240252 232669 1038 15952 -3836
48636 239945 232492 806 16167 -3605
49002 240566 233205 589 16009 -3778
49523 240858 233686 626 15822 -4005
50078 240093 233285 730 15689 -3984
50501 238054 231660 709 15750 -3890
50966 233911 228273 563 15901 -3855
51207 228749 223934 499 15849 -3801
51295 223145 219227 487 15784 -3864
51234 218036 214825 468 15894 -4134
51122 213034 210569 491 16000 -4532
50079 205729 203716 427 16001 -4866
48584 197594 195916 453 15966 -4916
47138 190670 189180 952 15930 -4871
47229 192048 190499 1457 15895 -4941
47648 194066 192391 1516 15509 -5287
47566 193757 192166 1483 14957 -6032
47816 195860 194174 1262 15313 -5986
47850 198222 196193 1213 15833 -5487
48048 201472 199107 1410 15829 -5427
48622 205994 203420 1343 15791 -5326
49394 211455 208731 1136 15710 -5248
50065 216725 213824 944 15700 -5076
50414 220737 217590 971 15553 -4550
50477 223215 219804 996 15494 -4366
50472 224812 221219 961 15473 -4261
50470 226088 222330 943 15523 -4207
50484 227106 223194 949 15596 -4170
50451 227821 223695 930 15558 -4144
50395 228183 223904 884 15538 -4161
50210 229690 224973 888 15693 -4236
49964 232452 227040 988 15658 -4318
49868 234315 228486 1016 15458 -4443
49752 234798 228740 812 15634 -4452
49658 234641 228500 658 15980 -4209
49585 235016 228778 712 16050 -4065
49504 235660 229270 739 15961 -4123
49378 236383 229797 694 15895 -4196
49249 237264 230463 658 15877 -4233
49174 237657 230783 675 15870 -4239
49150 237707 230838 707 15892 -4183
49105 238198 231233 678 15935 -4125
49083 238479 231469 643 15824 -4223
49026 239226 232069 690 15803 -4221
48946 239960 232620 744 15832 -4211
48815 240804 233222 727 15850 -4196
48691 241270 233492 629 15867 -4172
48540 241520 233583 520 15902 -4148
48433 241569 233523 472 15910 -4157
48339 241816 233669 524 15870 -4190
48267 242064 233828 609 15863 -4218
48203 242378 234016 628 15876 -4250
48115 242610 234133 596 15856 -4289
48091 242523 234036 557 15871 -4264
48067 242716 234179 534 15911 -4211
48043 242734 234175 534 15917 -4202
48022 242982 234349 534 15875 -4190
48091 242948 234386 520 15856 -4152
48122 243039 234483 512 15884 -4110
48169 242853 234368 505 15895 -4106
48182 242776 234369 501 15891 -4134
48172 242933 234526 579 15888 -4130
48151 243113 234690 646 15860 -4154
48130 243112 234672 597 15859 -4163
48080 243128 234668 567 15883 -4123
48014 243427 234880 575 15884 -4114
47942 243877 235204 556 15889 -4118
47877 243825 235112 524 15907 -4089
47800 243856 235081 500 15909 -4071
47730 244099 235236 518 15908 -4080
47675 244222 235288 571 15926 -4045
47665 244341 235375 556 15925 -4048
47643 244255 235297 497 15875 -4085
47625 244308 235339 547 15862 -4070
47591 244368 235362 606 15906 -4051
47566 244356 235325 549 15919 -4057
47573 244459 235418 487 15918 -4069
47563 244541 235479 503 15915 -4058
47524 244671 235541 521 15905 -4043
47454 244982 235732 519 15905 -4033
47375 245228 235834 522 15912 -4032
47231 245006 235494 496 15925 -4034
47121 244999 235333 470 15902 -4055
47038 245139 235365 512 15867 -4077
46992 244925 235116 563 15882 -4064
46960 244992 235128 532 15894 -4044
46922 245221 235244 501 15894 -4058
46882 245396 235335 530 15895 -4069
46863 245473 235370 554 15909 -4043
46818 245663 235463 550 15932 -4025
46791 245799 235533 523 15927 -4046
46758 245863 235527 494 15920 -4074
46727 245891 235507 497 15878 -4083
46666 246128 235633 487 15899 -4093
46625 246225 235653 468 15931 -4078
46620 246171 235574 467 15935 -4054
46605 246105 235503 475 15929 -4058
46590 246281 235617 497 15935 -4060
46658 246356 235722 496 15928 -4041
46734 246288 235715 449 15916 -4019
46839 246037 235622 411 15931 -4021
46924 245921 235623 576 15897 -4040
46978 245964 235705 538 15913 -4055
47062 245585 235474 477 15932 -4078
47079 245543 235464 485 15913 -4075
47109 245593 235514 488 15901 -4048
47155 245534 235505 483 15920 -4026
47192 245399 235390 487 15931 -4008
47194 245276 235313 463 15927 -4013
47192 245181 235230 456 15940 -4036
47187 245051 235116 509 15905 -4013
47207 245108 235170 520 15875 -4004
47255 245027 235131 472 15903 -4031
47294 244734 234915 488 15906 -4032
47334 244789 234983 531 15909 -4040
47351 244872 235047 499 15929 -4046
47376 244880 235057 462 15942 -4041
47390 244787 234990 479 15936 -4034
47410 244725 234951 522 15929 -4035
47413 244686 234912 545 15938 -4034
47420 244752 234947 536 15939 -4032
47426 244622 234854 540 15900 -4051
47412 244752 234909 537 15882 -4052
47414 244628 234787 520 15909 -4037
47424 244605 234758 502 15933 -4044
47420 244514 234669 477 15935 -4056
47437 244388 234554 478 15931 -4045
47457 244301 234465 504 15944 -4029
47472 244156 234344 520 15944 -4027
47472 244182 234358 513 15940 -4035
47487 244094 234267 495 15929 -4041
47504 244163 234318 515 15870 -4057
47501 244223 234356 486 15903 -4044
47514 244109 234256 469 15897 -4043
47514 243967 234119 465 15904 -4049
47529 244109 234229 453 15934 -4041
47544 244032 234145 451 15922 -4035
47558 244031 234146 461 15900 -4023
47586 243852 233995 462 15896 -4010
47656 243927 234092 451 15902 -3997
47611 242996 233372 524 15871 -4052
47595 243152 233478 560 15908 -4048
47577 243207 233524 506 15941 -4047
47591 243106 233430 500 15938 -4045
47569 243181 233499 524 15917 -4034
47581 243328 233619 530 15914 -4030
47592 243296 233632 526 15927 -4032
47580 243268 233596 495 15932 -4027
47571 243147 233482 475 15921 -4044
47534 243436 233719 521 15889 -4038
47522 243622 233863 534 15886 -4042
47482 243691 233901 495 15911 -4063
47469 243616 233818 522 15911 -4050
47441 243618 233800 560 15904 -4045
47414 243807 233932 527 15915 -4048
47386 243925 233991 484 15945 -4046
47363 243961 233995 505 15946 -4038
47347 243849 233874 531 15924 -4043
47341 243797 233805 522 15932 -4043
47332 243784 233779 504 15872 -4047
47326 243885 233843 523 15871 -4058
47318 243871 233811 529 15900 -4042
47312 243823 233753 510 15912 -4043
47297 243881 233800 477 15921 -4038
47291 243900 233808 482 15925 -4031
47276 243830 233716 488 15931 -4030
47266 243832 233721 479 15933 -4027
47247 244126 233937 489 15924 -4042
47305 243933 233795 508 15919 -4043
47365 243711 233698 529 15902 -4027
47047 243751 233609 531 15883 -4079
47026 243877 233699 466 15907 -4062
47013 243712 233556 474 15918 -4055
47003 243642 233520 488 15908 -4046
46978 243936 233750 460 15894 -4047
46951 243962 233775 422 15895 -4057
46928 243969 233753 413 15906 -4061
46924 243886 233692 448 15911 -4044
46897 243956 233745 461 15908 -4024
46858 244174 233894 441 15862 -4075
46826 244174 233874 504 15894 -4047
46795 244131 233817 516 15903 -4041
46775 244035 233733 453 15914 -4044
46738 244109 233767 423 15924 -4045
46706 244240 233841 441 15928 -4047
46685 244253 233823 467 15930 -4041
46644 244278 233793 458 15927 -4035
46623 244353 233839 424 15936 -4035
46597 244354 233795 442 15898 -4050
46574 244416 233824 484 15853 -4056
46546 244443 233821 490 15873 -4038
46549 244316 233708 478 15897 -4029
46521 244436 233793 467 15915 -4026
46497 244645 233928 460 15919 -4027
46474 244613 233872 463 15926 -4030
46469 244557 233818 467 15935 -4032
46496 244306 233623 480 15925 -4042
46577 244144 233570 489 15927 -4041
46652 243852 233372 473 15893 -4054
46703 243314 233001 466 15898 -4044
46748 242967 232773 441 15926 -4042
46756 242974 232825 430 15936 -4033
46725 243034 232850 431 15927 -4011
46677 242891 232719 421 15923 -3988
46662 242677 232569 404 15929 -3978
46623 242737 232611 383 15928 -4012
46584 242880 232701 454 15921 -4037
46538 242906 232711 555 15922 -4048
46478 242971 232725 544 15904 -4089
46453 243073 232808 487 15898 -4104
46420 243115 232804 470 15913 -4083
46413 243246 232934 484 15919 -4069
46374 243446 233084 472 15919 -4075
46366 243524 233138 436 15922 -4079
46326 243612 233188 408 15925 -4085
46316 243451 233061 410 15926 -4097
46291 243557 233168 440 15924 -4072
46251 243792 233318 419 15903 -4087
46192 243883 233356 399 15864 -4125
46141 244007 233434 477 15857 -4098
46078 244253 233595 483 15899 -4067
46009 244405 233687 409 15913 -4072
45936 244443 233663 382 15908 -4075
45900 244487 233674 386 15919 -4065
45869 244423 233595 397 15918 -4057
45833 244337 233509 390 15916 -4047
45809 244434 233554 380 15939 -4043
45769 244507 233581 395 15951 -4030
45760 244295 233389 425 15872 -4024
45722 244506 233530 421 15820 -4036
45701 244111 233142 422 15908 -4054
45689 244615 233580 402 15935 -4037
45675 244679 233628 384 15940 -4036
45671 244634 233599 391 15935 -4030
45671 244526 233529 386 15914 -4003
45672 244485 233524 358 15905 -4010
45670 244591 233613 380 15924 -4039
45622 244616 233603 578 15892 -4104
45620 244469 233482 476 15913 -4106
45600 244477 233502 438 15931 -4102
45531 244745 233673 451 15931 -4088
45505 244881 233742 450 15920 -4079
45505 244914 233759 404 15897 -4062
45456 244953 233770 372 15890 -4061
45419 245110 233862 401 15917 -4065
45402 245148 233880 450 15936 -4067
45365 245208 233905 457 15878 -4033
45353 245195 233891 413 15897 -4069
45332 245396 234050 432 15907 -4050
45300 245471 234089 424 15937 -4047
45294 245435 234030 387 15953 -4053
45256 245650 234185 366 15937 -4054
45246 245644 234159 377 15932 -4061
45221 245621 234106 394 15936 -4050
45202 245609 234072 387 15931 -4018
45194 245640 234099 383 15901 -4015
45188 245645 234078 388 15876 -4008
45138 245776 234109 388 15883 -4014
45121 245711 234034 380 15905 -4030
45105 245766 234044 379 15918 -4041
45087 245884 234109 383 15927 -4042
45058 245891 234072 379 15938 -4032
45060 245791 233992 390 15936 -4033
45060 245803 233975 400 15946 -4031
45045 245907 234049 399 15937 -4043
45056 245805 233955 396 15907 -4059
45053 245820 233954 395 15881 -4052
45006 246083 234115 402 15890 -4023
44968 246248 234187 406 15913 -4020
44968 246188 234147 400 15916 -4032
44968 246310 234223 391 15930 -4027
45052 246190 234175 398 15941 -4034
45131 246336 234348 402 15941 -4029
45239 246062 234236 388 15946 -4014
45282 245973 234224 402 15944 -4011
45314 245990 234266 421 15937 -4004
45364 245857 234215 424 15890 -4007
45397 245697 234130 418 15857 -4028
45372 245855 234255 397 15902 -4040
45393 245904 234307 452 15936 -4032
45430 245630 234109 493 15955 -4026
45487 245405 233989 442 15971 -4042
45500 245358 233954 427 15953 -4047
45501 245346 233934 450 15925 -4031
45558 245347 233958 458 15931 -4010
45623 245160 233851 446 15936 -4003
45687 245063 233819 428 15846 -4038
45728 245171 233934 426 15897 -4034
45765 245168 233970 456 15907 -4008
45815 245034 233905 435 15920 -4020
46072 244377 233491 445 15939 -4035
46086 244460 233549 469 15943 -4026
46115 244390 233492 469 15937 -4026
46134 244406 233492 461 15941 -4027
46167 244272 233387 466 15939 -4029
46204 244124 233286 476 15855 -4072
46222 244217 233358 478 15896 -4064
46241 244125 233264 464 15934 -4054
46266 244173 233300 447 15944 -4047
46297 243998 233167 419 15932 -4049
47085 242026 232001 415 15949 -4046
47061 242195 232120 435 15951 -4071
47052 242144 232066 480 15937 -4087
47047 241963 231894 471 15936 -4111
47030 241769 231736 473 15924 -4117
47003 241837 231762 508 15874 -4098
46971 241846 231751 501 15871 -4069
46961 241932 231798 452 15902 -4052
46983 242019 231887 428 15888 -4050
47004 241853 231750 431 15878 -4065
47000 241979 231864 441 15888 -4078
47018 242177 232023 451 15900 -4056
47017 241976 231870 430 15909 -4058
47036 242002 231928 410 15918 -4058
47034 242180 232057 462 15934 -4043
47031 242283 232128 430 15900 -4070
47008 242263 232090 425 15898 -4074
47000 242179 232017 462 15913 -4058
46990 242370 232156 463 15920 -4056
46968 242159 231967 418 15924 -4062
46955 242383 232128 407 15939 -4057
46951 242271 232030 439 15933 -4055
46948 242483 232192 453 15915 -4051
46936 242621 232276 458 15913 -4053
46938 242424 232095 463 15877 -4046
46923 242602 232228 456 15835 -4051
46934 242602 232206 451 15857 -4068
46945 242504 232119 452 15892 -4062
46950 242538 232141 451 15897 -4072
46949 242701 232249 436 15907 -4083
46941 242859 232361 431 15932 -4076
46931 242919 232382 446 15941 -4075
46881 242881 232318 447 15936 -4078
46783 243101 232387 435 15932 -4071
46697 243287 232455 450 15866 -4069
46631 243742 232759 442 15890 -4067
46645 243945 232897 425 15919 -4073
46706 244110 233048 427 15908 -4052
46730 244064 233035 427 15900 -4017
46600 243978 232849 401 15914 -3974
46448 243956 232717 373 15933 -3970
46336 244356 232971 376 15963 -4008
46235 244601 233063 428 15990 -4015
46187 244894 233256 450 15963 -3991
46226 245106 233406 442 15875 -3949
46329 244750 233140 448 15850 -3903
46686 242469 231508 441 15879 -3872
47426 239013 229219 434 15834 -3857
49222 233967 226530 406 15715 -3870
51782 230574 225715 346 15618 -3935
52893 226243 222718 293 15567 -4036
53004 222492 219426 309 15500 -4084
52105 217085 213854 354 15533 -4128
50712 210579 207431 391 15852 -4267
49495 205794 202824 550 16198 -4454
48959 205399 202408 699 16365 -4743
48891 211882 207975 651 16550 -5044
48993 219076 214291 627 16517 -5336
48673 222764 217287 877 15831 -5567
48412 226032 219972 1279 14803 -5915
48364 228814 222425 1100 14863 -5718
48394 231026 224416 641 15612 -4935
48305 232882 225990 538 15744 -4649
47905 235936 228203 545 15631 -4536
47089 240204 230849 570 15578 -4403
46331 243646 232702 600 15605 -4307
46133 243793 232510 699 15329 -4308
46037 241862 230809 723 14878 -4400
46047 240410 229665 555 15122 -4322
46492 238515 228510 369 16072 -3894
47476 233606 226268 133 16073 -4225
47204 236517 228576 379 16191 -4130
46571 238735 229950 775 16100 -4233
45920 239641 230206 1069 15528 -4569
45465 239806 230016 889 15775 -4117
44951 240549 230145 615 15804 -4079
44255 242899 231316 491 15787 -3915
43449 244990 232031 496 15653 -3820
43029 245885 232202 549 15384 -3885
42794 245659 231751 672 15356 -3889
43100 242362 229606 606 16026 -3819
44075 238167 227276 734 16137 -3871
45257 236014 226819 606 16122 -3886
45385 236903 227868 221 16057 -3822
44795 239227 229464 26 15971 -3848
44091 240072 229579 473 15895 -3957
43540 240395 229392 1100 15679 -4267
43117 240423 229075 1252 15844 -4297
42810 239828 228322 1059 16128 -3923
42428 240036 228202 700 15892 -3866
41999 240284 228005 396 15708 -3886
41750 240338 227734 485 15788 -3749
41099 241905 228177 747 15913 -3682
39905 243842 228393 739 15897 -3677
39100 244970 228396 540 15622 -3703
38716 245167 228063 516 15293 -3852
38382 244729 227358 669 15422 -3915
38073 244411 226802 721 15899 -3591
37996 245177 227079 538 16102 -3337
38529 245856 227720 321 16053 -3489
38889 246255 228139 321 15969 -3615
39060 246998 228809 439 15716 -3539
39053 247035 228804 381 15477 -3516
39209 245765 227917 315 15696 -3654
40281 242097 226197 755 16386 -3650
42089 237749 224616 736 16340 -3595
44073 235790 225308 270 16225 -3549
45431 235601 226544 -2 16088 -3614
45221 238858 229234 360 15947 -3780
44996 240060 230006 895 15807 -3903
44771 239742 229573 1357 15426 -4358
44503 240016 229631 1276 15586 -4438
44208 240003 229415 730 16024 -4066
43829 240018 229125 501 15955 -4079
43399 240183 228949 588 15872 -4032
43064 240146 228653 695 15887 -3941
42825 239517 227922 655 15936 -3969
42547 239176 227403 557 15911 -3945
42002 240097 227638 465 15860 -3902
41234 241347 227801 466 15862 -3870
40516 242314 227763 646 15817 -3876
39884 242581 227287 790 15703 -3901
38965 241877 225886 785 15739 -3845
38303 241399 224927 630 16036 -3598
38266 241764 225053 514 16071 -3639
38158 242094 225101 457 15955 -3538
37706 242115 224703 408 15811 -3457
37442 241875 224257 449 15872 -3574
37503 241498 223926 555 16016 -3610
37913 240619 223422 544 16031 -3545
38589 239160 222811 442 15991 -3549
39600 237598 222541 426 15983 -3548
40672 235345 221629 472 15983 -3534
42010 233510 221402 457 15953 -3589
42410 235788 223778 751 15742 -3867
42546 236915 224779 1052 15490 -4187
42595 237275 225067 1039 15837 -4130
42530 237511 225184 948 16127 -3985
42454 237361 224999 723 15962 -4025
42427 237198 224826 529 15914 -4071
42363 236983 224601 565 15949 -4043
42316 237049 224610 699 15938 -3991
42258 236831 224393 714 15895 -3979
42255 236261 223958 604 15891 -3998
42534 236164 224131 578 15893 -4012
42797 237445 225338 609 15818 -4008
42546 240614 227548 624 15610 -4045
41844 243756 229208 834 15400 -4179
41617 244476 229408 1003 15593 -4081
41848 243932 229113 756 16050 -3635
43939 244917 231497 510 15978 -3831
44055 245124 231739 500 15953 -3838
44206 244942 231695 502 15916 -3815
44363 244795 231720 487 15962 -3836
44474 244688 231721 475 15959 -3859
44572 244644 231757 470 15947 -3882
44662 244496 231714 461 15962 -3903
44736 244443 231751 467 15958 -3909
44789 244461 231800 483 15928 -3927
44854 244268 231698 480 15937 -3937
44916 244030 231569 476 15959 -3935
44946 244072 231639 510 15862 -3940
44982 244311 231853 517 15897 -3926
44997 244247 231822 501 15912 -3923
44992 244286 231842 496 15912 -3937
44978 244438 231967 495 15917 -3957
44904 244807 232217 478 15945 -3965
44811 244996 232294 465 15966 -3947
44777 244968 232238 475 15949 -3934
44746 245090 232331 473 15936 -3917
44707 245205 232373 434 15856 -3890
44712 245194 232396 463 15886 -3945
44774 245028 232326 530 15923 -3955
44803 244889 232282 557 15956 -3948
44798 245125 232491 528 15985 -3946
44818 245230 232616 529 15968 -3954
44805 245324 232705 541 15950 -3957
44810 245419 232814 548 15950 -3946
44836 245499 232936 547 15942 -3932
44865 245507 232980 544 15895 -3956
44882 245362 232889 566 15874 -3987
44860 245453 232985 590 15904 -3955
44848 245810 233281 549 15935 -3960
44849 245793 233256 505 15945 -3987
44870 245655 233172 577 15941 -3972
44811 245764 233238 609 15957 -3959
44793 245905 233366 544 15949 -3959
44762 245903 233340 512 15933 -3971
44716 245948 233356 527 15938 -3973
44708 246032 233442 548 15927 -3967
44655 246212 233538 543 15894 -3954
44603 246299 233576 530 15904 -3938
44601 246070 233391 523 15941 -3939
44612 245974 233343 524 15942 -3948
44599 245883 233293 519 15943 -3946
44574 245960 233355 524 15945 -3947
44568 245739 233190 526 15942 -3953
44573 245488 233024 523 15938 -3967
44555 245514 233039 520 15913 -3976
44532 245545 233045 529 15894 -3977
44524 245555 233037 555 15856 -3971
44531 245377 232889 577 15842 -3979
44534 245352 232889 577 15882 -3995
44520 245659 233098 545 15899 -4000
44496 245856 233214 524 15918 -3996
44479 245896 233227 541 15931 -3981
44468 246092 233362 538 15933 -3982
44387 246494 233581 528 15941 -3998
44289 246958 233835 522 15942 -3978
44215 247391 234054 495 15939 -3941
44234 247546 234147 555 15856 -3971
44330 247447 234128 577 15842 -3979
44399 247390 234143 577 15882 -3995
44417 247426 234202 545 15899 -4000
44421 247591 234341 524 15918 -3996
44429 247563 234341 541 15931 -3981
44398 247588 234344 538 15933 -3982
44394 247408 234213 528 15941 -3998
44373 247483 234263 522 15942 -3978
44377 247386 234199 495 15939 -3941
44367 247278 234104 486 15902 -3934
44344 247183 234009 544 15924 -3954
44333 247233 234053 599 15945 -3959
44340 247378 234152 554 15974 -3972
44372 247416 234193 501 15973 -3985
44387 247160 234021 510 15958 -3968
44395 247264 234119 548 15950 -3950
44378 247348 234164 551 15950 -3957
44356 247320 234135 527 15940 -3966
44348 247247 234070 537 15915 -3984
44146 247450 234022 568 15913 -3963
44129 247533 234061 538 15943 -3955
44135 247614 234114 544 15939 -3958
44150 247690 234173 563 15934 -3958
44175 247547 234076 560 15937 -3962
44185 247624 234128 528 15942 -3969
44204 247604 234112 521 15942 -3969
44192 247787 234234 547 15942 -3973
44201 247865 234278 556 15924 -3986
44249 247668 234139 552 15884 -3982
44294 247635 234130 538 15886 -3981
44416 247442 234064 521 15922 -3983
44592 247271 234067 524 15943 -3970
44718 247169 234067 523 15944 -3973
44812 246977 234009 520 15939 -3984
44903 246796 233950 528 15946 -3980
44994 246697 233954 508 15966 -3976
45054 246558 233889 488 15969 -3973
45095 246437 233838 480 15930 -3959
45155 246340 233796 484 15875 -3943
45221 246056 233619 495 15869 -3939
45276 245954 233572 497 15911 -3959
45307 245710 233412 551 15936 -3972
45317 245757 233438 592 15954 -3974
45378 245617 233352 545 15972 -3991
45425 245701 233444 513 15962 -4006
45496 245358 233201 543 15940 -3991
45542 245474 233342 566 15922 -3969
45564 245451 233324 552 15910 -3967
45608 245253 233193 562 15870 -3981
45640 245011 233041 569 15864 -3998
45664 245115 233133 568 15912 -3999
45689 245010 233058 592 15921 -3960
45692 245052 233086 566 15933 -3956
45716 244952 233011 528 15956 -3972
45715 244994 233044 579 15951 -3962
45733 244792 232878 592 15956 -3971
45748 244731 232829 534 15953 -3977
45764 244600 232729 534 15941 -3975
45773 244743 232855 579 15886 -3992
45784 244630 232733 603 15853 -4000
45811 244464 232625 570 15893 -3984
45843 244270 232482 529 15918 -3977
45867 244379 232586 510 15932 -3977
45898 244365 232573 515 15939 -3982
45916 244442 232632 531 15934 -3986
45934 244384 232580 550 15929 -3980
45959 244219 232445 553 15924 -3990
45974 244216 232452 548 15927 -3986
45989 244164 232402 573 15874 -3970
46015 244011 232279 583 15891 -3974
46029 244347 232570 571 15912 -3990
46082 244120 232402 556 15929 -3992
46157 244145 232465 542 15933 -3982
46236 243960 232355 513 15934 -3962
46289 243835 232325 507 15945 -3959
46299 244121 232572 527 15954 -3972
46308 243912 232403 534 15956 -3978
46295 243950 232432 554 15867 -3973
46268 243948 232403 513 15869 -3959
46254 243949 232384 508 15887 -3949
46224 243848 232269 520 15922 -3955
46208 243964 232351 575 15945 -3980
46183 243801 232196 607 15951 -3998
46187 243799 232176 565 15953 -3999
46168 243687 232048 560 15939 -4005
46203 243674 232064 574 15917 -4001
46193 243558 231961 603 15884 -3977
46201 243682 232062 634 15853 -3983
46187 243677 232061 617 15865 -4003
46174 243814 232147 605 15902 -4019
46175 243604 231981 656 15903 -3986
46173 243643 232007 658 15917 -3971
46155 243719 232054 592 15948 -3996
46141 243863 232145 656 15939 -3987
46129 243687 231986 733 15934 -3981
46111 243638 231929 679 15937 -3987
46088 243736 231991 648 15928 -3997
46070 243691 231923 690 15891 -4006
46052 243633 231853 740 15886 -3999
46052 243603 231807 752 15925 -3982
46057 243654 231847 716 15940 -3982
46065 243553 231749 684 15934 -3994
46065 243657 231842 694 15939 -3996
46065 243608 231767 705 15945 -3991
46065 243690 231835 687 15933 -3987
46060 243528 231675 662 15915 -3980
46049 243463 231616 658 15899 -3970
46025 243135 231318 726 15850 -3984
46027 243041 231254 713 15890 -3983
46284 242814 231377 796 15919 -3953
46241 242857 231396 749 15923 -3960
46206 242946 231426 743 15919 -3958
46201 243156 231611 757 15911 -3946
46184 243261 231671 718 15912 -3943
46187 243179 231600 699 15910 -3949
46173 242966 231408 715 15879 -3966
46174 242914 231393 721 15847 -3989
46150 242898 231361 748 15867 -3977
46112 242525 231038 741 15918 -3965
46124 241712 230376 683 15947 -3973
46119 241133 229944 699 15951 -3963
46101 240970 229837 757 15953 -3962
46077 240588 229530 718 15964 -3976
46061 240458 229450 647 15950 -3990
46042 240580 229550 632 15939 -3994
46028 240780 229726 680 15953 -3960
46013 241011 229878 724 15917 -3967
45988 240968 229839 695 15899 -4009
45995 241178 230027 675 15902 -3999
45994 241392 230188 713 15877 -3983
45999 241387 230163 739 15869 -3990
45993 241541 230302 734 15889 -3988
46000 241558 230300 710 15913 -3973
45990 241771 230453 682 15922 -3970
45984 242058 230688 681 15918 -3972
45967 242119 230701 697 15893 -3972
45976 242077 230668 714 15872 -3974
45985 242218 230762 719 15893 -3969
46041 242175 230775 709 15918 -3969
46114 242034 230708 689 15916 -3965
46190 241594 230419 689 15918 -3961
46217 241569 230444 663 15943 -3956
46222 241713 230616 662 15945 -3959
46212 241682 230590 702 15926 -3949
46164 241693 230594 680 15926 -3923
46120 241645 230549 648 15926 -3921
46077 241593 230469 657 15896 -3955
46020 241744 230575 747 15874 -3975
45937 241682 230472 796 15908 -3973
45781 241207 229973 741 15945 -3981
45638 240923 229651 731 15945 -3976
45557 240781 229479 759 15935 -3962
45504 241098 229759 757 15924 -3951
45401 241231 229841 725 15918 -3970
45283 241474 229985 678 15929 -3986
45147 241553 229997 674 15956 -3979
45043 241621 230017 728 15948 -3893
44936 241808 230120 658 15959 -3907
44865 241864 230112 647 16005 -3898
44807 241983 230196 680 16010 -3845
44760 242259 230392 664 15972 -3833
44692 242375 230450 629 15911 -3820
44616 242463 230471 655 15896 -3782
44563 242585 230531 685 15930 -3732
44506 242693 230564 672 15923 -3718
44453 242770 230580 668 15893 -3678
44395 242904 230635 654 15926 -3688
44346 243002 230657 647 15943 -3706
44295 243135 230722 644 15948 -3722
44283 243411 230914 609 15948 -3743
44333 243594 231089 585 15959 -3757
44366 243840 231306 610 15973 -3756
44388 243822 231279 623 15987 -3752
44399 243786 231267 634 15989 -3761
44396 244036 231478 611 15935 -3742
44359 244079 231472 573 15887 -3718
44382 244015 231436 556 15921 -3743
44408 244106 231523 535 15966 -3774
44524 243933 231461 546 15978 -3788
44881 241998 230524 542 15979 -3825
44853 241982 230532 566 15982 -3807
44845 242041 230572 568 15970 -3801
44836 242300 230802 539 15955 -3815
44794 242412 230878 528 15961 -3841
44762 242702 231105 550 15959 -3864
44726 242602 230994 615 15913 -3841
44683 242676 231072 599 15898 -3808
44665 242721 231099 519 15921 -3842
44627 242663 231038 537 15932 -3860
44574 242906 231222 601 15946 -3847
44534 243038 231297 588 15972 -3861
44504 242950 231201 543 15985 -3889
44462 242925 231166 551 15970 -3879
44439 242924 231144 585 15950 -3862
44424 242868 231093 611 15947 -3861
44402 243013 231192 601 15935 -3839
44374 243190 231322 547 15937 -3830
44361 243002 231141 529 15948 -3854
44357 243060 231199 559 15951 -3867
44359 243128 231243 561 15963 -3872
44368 243139 231269 533 15962 -3897
44371 243098 231221 533 15959 -3916
44368 243177 231280 545 15964 -3899
44369 243149 231257 534 15970 -3899
44355 243228 231310 522 15971 -3906
44363 243145 231236 530 15935 -3878
44358 243177 231277 545 15914 -3859
44306 243282 231303 531 15930 -3878
44252 243175 231186 505 15944 -3891
44232 243526 231451 496 15966 -3887
44292 243464 231413 495 15975 -3888
44341 243585 231555 504 15968 -3887
44448 243320 231421 515 15965 -3882
44497 243416 231563 506 15972 -3887
44478 243846 231898 512 15963 -3888
44448 244220 232152 527 15885 -3795
44409 244297 232177 506 15899 -3813
44384 244424 232254 521 15930 -3861
44378 244475 232283 606 15901 -3883
44338 244474 232263 601 15894 -3903
44285 244424 232193 531 15937 -3915
44255 244228 232012 571 15960 -3904
44182 244484 232167 615 15963 -3899
44127 244772 232339 580 15972 -3915
44096 244888 232411 542 15885 -3933
44117 244727 232281 564 15894 -3955
44103 244715 232270 600 15923 -3958
44074 244808 232342 585 15917 -3929
44029 244767 232280 534 15934 -3928
43347 246577 232818 563 15953 -3957
43408 246693 232959 543 15937 -3942
43426 246637 232946 499 15909 -3965
43436 246795 233083 480 15909 -3986
43444 246949 233221 556 15913 -3989
43448 247034 233279 575 15955 -3950
43416 247169 233345 530 15937 -3963
43382 247210 233370 546 15890 -3957
43341 247159 233292 546 15896 -3946
43282 247342 233385 533 15920 -3963
49247 222202 217280 519 15160 -4023
49555 216164 212315 604 15024 -3798
49086 209881 206598 846 15616 -4310
48054 204255 200979 764 16000 -4973
46961 199949 196598 473 15990 -5197
46085 196872 193514 674 15957 -5248
45692 195932 192544 932 15972 -5526
45902 199933 196084 884 16009 -5650
46082 204364 199932 788 15819 -5572
46242 208838 204008 939 15239 -5671
46880 215187 210103 1090 14914 -5928
47378 220852 215483 1027 15411 -5592
47643 225121 219473 1015 15895 -5125
47727 228683 222706 988 15799 -5077
47545 231211 224742 854 15563 -4979
47022 234691 227190 740 15473 -4813
46130 239003 229819 684 15587 -4646
45576 240690 230524 694 15544 -4492
46453 238524 229424 777 15094 -4562
48216 233578 226667 765 14843 -4644
44759 243135 231823 708 15622 -4246
44678 242729 231327 709 15111 -4391
44439 242753 231089 702 15005 -4500
44182 242394 230600 616 15768 -4166
43961 242454 230485 534 16196 -3811
43751 242943 230673 475 15950 -4044
43622 243386 230911 447 16015 -4088
43651 242936 230578 483 15966 -4053
43914 240935 229288 478 15778 -4069
44313 238722 228013 425 15787 -4045
44760 235659 226044 384 15981 -3946
45209 233364 224748 416 16101 -3895
45448 232580 224394 483 16137 -3843
45312 235882 227217 676 15793 -4013
45229 237340 228314 794 15308 -4396
45152 236932 227877 775 15136 -4712
45094 237162 228041 596 15631 -4394
45030 237311 228160 566 15914 -4098
44967 237632 228394 596 15886 -4107
44886 237917 228593 566 15903 -4089
44824 238014 228623 540 15938 -4070
44526 239488 229473 536 15937 -4072
43805 242228 230716 655 15524 -4115
42939 244998 231748 696 15222 -4237
42506 246762 232495 604 15372 -4206
42515 246579 232199 495 15975 -3890
42801 244817 230991 429 16337 -3606
43878 241488 229208 422 16102 -3723
45240 238079 227545 413 15799 -3934
46032 236634 227047 392 15534 -3950
46296 235739 226534 462 15529 -4019
46396 233213 224438 586 15929 -4203
46702 229002 221209 708 16248 -4234
47077 225608 218829 768 16222 -4194
47557 222942 217164 643 16043 -4267
47563 220150 214839 487 15979 -4448
47596 217551 212731 512 15974 -4561
47386 219053 213957 714 15785 -4550
47169 221603 215944 1035 15271 -4943
46705 222460 216332 1107 15311 -5100
46350 224989 218306 975 15813 -4719
46316 227495 220559 944 15929 -4684
46504 230315 223220 880 15840 -4685
46659 232638 225348 764 15738 -4578
46712 234397 226947 696 15718 -4509
46656 235636 227960 745 15767 -4404
46353 237162 228918 764 15820 -4305
45691 240339 230741 665 15586 -4289
45015 243230 232101 679 15115 -4416
44746 244878 232959 804 15096 -4431
45815 234090 225301 306 15930 -4137
46138 231556 223595 207 15952 -4150
46268 231494 223796 764 15914 -4239
46258 232507 224705 924 15557 -4376
46281 233451 225504 833 15517 -4349
46265 234214 226102 966 15757 -4173
46194 234351 226143 897 15858 -4105
46178 234542 226305 636 15832 -4108
46197 235073 226753 565 15817 -4105
46154 235514 227105 590 15896 -4106
46108 235876 227353 649 15939 -4071
46133 235870 227333 565 15753 -4007
46192 236508 227868 579 15604 -4048
46080 238490 229288 684 15451 -4147
45834 240650 230674 712 15579 -4143
45761 241555 231194 607 15921 -3950
45763 241696 231171 531 16063 -3850
45734 242116 231419 549 16017 -3913
45785 241864 231211 554 16000 -3926
45838 241662 231060 560 15980 -3943
46177 242362 231697 538 15938 -3966
46180 242438 231776 572 15909 -3970
46160 242547 231857 584 15917 -3966
46100 242786 231996 558 15914 -3978
46022 243073 232179 526 15897 -3991
45936 243466 232423 514 15913 -3994
45884 243541 232428 513 15920 -3995
45835 243630 232450 515 15905 -3997
45784 243893 232606 529 15912 -3994
45723 244001 232646 521 15926 -3987
45623 244249 232737 497 15910 -3987
45549 244487 232842 504 15871 -3987
45526 244551 232859 514 15876 -3973
45509 244449 232740 492 15921 -3969
45432 244731 232895 460 15942 -3979
45371 244843 232915 454 15957 -3968
45336 244843 232878 454 15975 -3945
45265 244931 232875 441 15981 -3935
45203 245037 232908 443 15989 -3937
45174 245142 232977 456 15986 -3928
45178 245254 233054 449 15966 -3910
45199 245069 232942 417 15905 -3878
45250 244948 232892 404 15882 -3874
45252 245079 233062 442 15928 -3897
45195 245260 233189 518 15953 -3900
45175 245032 233006 521 15966 -3905
45095 244955 232916 470 15970 -3907
45012 245021 232929 474 15949 -3911
44923 245264 233050 499 15919 -3912
44826 245214 232922 488 15905 -3895
44738 245286 232899 445 15902 -3879
44639 245529 233019 465 15901 -3864
44612 245684 233098 461 15929 -3844
44580 245738 233105 455 15961 -3851
44562 245897 233189 450 15964 -3866
44496 245834 233075 476 15953 -3874
44419 245984 233093 482 15977 -3878
44379 246013 233056 448 15989 -3878
44354 245812 232874 437 15961 -3901
44327 245876 232916 456 15962 -3906
44300 245950 232940 491 15896 -3914
44267 245964 232895 469 15904 -3920
44240 245989 232906 455 15939 -3913
44222 245866 232771 464 15935 -3911
44189 245951 232811 455 15937 -3917
44164 245773 232627 454 15965 -3917
44169 245629 232513 465 15970 -3926
44162 245667 232524 461 15958 -3945
44160 245566 232429 475 15952 -3955
44165 245556 232403 499 15934 -3945
44141 245612 232407 502 15893 -3942
44147 245685 232461 478 15900 -3950
44147 245708 232453 447 15934 -3954
44179 245442 232254 442 15944 -3951
44153 245716 232438 442 15945 -3950
44143 245713 232408 429 15948 -3953
44146 245721 232397 412 15961 -3958
44116 245718 232356 421 15969 -3947
44118 245823 232432 427 15967 -3935
44106 245944 232481 409 15938 -3920
44187 245828 232448 409 15898 -3915
44293 245688 232428 421 15902 -3943
44396 245287 232198 483 15918 -3962
44450 245136 232140 511 15930 -3973
44457 245432 232406 454 15953 -3979
44443 245546 232500 431 15962 -3961
44429 245591 232534 451 15951 -3938
44422 245445 232419 471 15938 -3930
44411 245436 232408 471 15939 -3930
44400 245515 232478 453 15926 -3939
44394 245546 232491 452 15874 -3977
44341 245433 232370 494 15879 -3988
44309 245680 232533 494 15924 -3933
44304 245823 232628 423 15941 -3933
44335 245758 232593 396 15958 -3960
44327 245770 232609 455 15969 -3945
44329 245736 232580 476 15968 -3946
44311 245825 232648 441 15955 -3961
44289 245847 232649 430 15950 -3963
44291 245736 232566 441 15953 -3958
44311 245702 232547 463 15915 -3953
44296 245778 232598 472 15896 -3942
44310 245606 232459 459 15925 -3945
44333 245481 232384 437 15941 -3958
44352 245382 232313 438 15946 -3965
44373 245250 232210 457 15947 -3965
44404 245271 232235 459 15943 -3971
44447 245117 232129 466 15922 -3980
44473 245125 232136 464 15913 -3976
44509 245177 232198 453 15928 -3970
44529 245286 232296 463 15915 -3953
44568 245171 232218 472 15896 -3942
44616 244901 232030 459 15925 -3945
44654 244922 232064 437 15941 -3958
44697 244890 232072 438 15946 -3965
44753 244833 232050 457 15947 -3965
44810 244638 231920 459 15943 -3971
44851 244573 231888 466 15922 -3980
44905 244362 231748 464 15913 -3976
44950 244192 231646 453 15928 -3970
45670 242579 230914 470 15884 -4013
45691 242416 230808 435 15897 -4031
45705 242250 230675 415 15921 -4059
45708 242396 230783 469 15931 -4068
45712 242377 230743 519 15942 -4062
45709 242402 230761 509 15957 -4076
45649 242350 230643 493 15939 -4078
45571 242773 230922 498 15908 -4062
45524 242988 231024 511 15897 -4064
45507 242772 230831 523 15875 -4060
45503 242657 230728 520 15828 -4066
45527 242670 230745 504 15825 -4080
45535 242717 230768 525 15867 -4067
45536 242801 230834 561 15901 -4033
45552 242821 230856 534 15922 -4030
45555 242855 230864 510 15923 -4039
45558 242808 230818 548 15917 -4026
45581 242587 230626 530 15934 -4022
45611 242542 230614 471 15952 -4021
45630 242446 230524 478 15947 -4026
45988 241284 229700 510 15839 -4098
46021 241047 229535 495 15891 -4081
46064 240914 229466 487 15910 -4071
46136 240791 229411 500 15922 -4070
46214 240543 229265 506 15928 -4082
46287 240198 229054 505 15928 -4076
46320 240248 229160 506 15925 -4069
46333 240288 229228 496 15926 -4082
46332 240188 229179 479 15940 -4102
46298 240160 229138 585 15844 -4109
46269 240247 229207 566 15841 -4092
46243 240389 229323 538 15858 -4070
46207 240348 229273 530 15889 -4071
46162 240481 229352 561 15898 -4092
46117 240602 229429 596 15899 -4092
46107 240521 229334 575 15922 -4088
46101 240753 229553 552 15926 -4084
46089 240767 229553 568 15909 -4071
46080 240690 229481 581 15856 -4094
46078 240914 229688 536 15889 -4086
46080 241053 229842 528 15916 -4079
46088 241210 229995 556 15943 -4056
46112 241270 230087 536 15964 -4024
46128 241218 230064 493 15950 -4036
46121 241513 230333 515 15935 -4034
46096 241573 230382 547 15941 -4018
46060 241651 230424 528 15949 -4024
46018 241602 230344 503 15935 -4017
45966 241755 230425 510 15880 -4023
45921 242112 230678 518 15875 -4030
45877 242360 230830 502 15908 -4005
45813 242493 230864 500 15909 -3997
45780 242526 230860 493 15891 -4021
45739 242603 230891 477 15880 -4037
45712 242685 230909 493 15878 -4035
45677 242575 230794 511 15885 -4047
45634 243044 231164 512 15913 -4060
45577 243262 231286 514 15916 -4075
45540 243639 231548 514 15872 -4066
45476 243660 231497 507 15855 -4045
45449 243684 231509 505 15897 -4046
45416 243844 231584 514 15931 -4028
45452 244098 231807 517 15939 -4014
45484 244315 231986 524 15938 -4034
45522 244112 231877 513 15942 -4026
45520 244067 231848 503 15934 -4004
45524 243905 231745 502 15931 -4004
45492 243975 231792 492 15929 -3991
45446 244169 231933 512 15900 -3976
45382 244462 232132 505 15869 -3973
45331 244460 232081 478 15890 -3976
45283 244479 232078 455 15921 -3991
45245 244554 232105 512 15921 -3992
45183 244456 231992 567 15940 -3982
45141 244334 231863 519 15964 -3993
45113 244538 231989 494 15952 -3997
45115 244598 232003 524 15935 -3994
45082 244597 231998 529 15923 -3987
45064 244749 232101 512 15861 -4002
45019 245142 232396 496 15908 -4005
44984 245110 232331 525 15937 -4010
44947 245110 232307 564 15939 -3982
44911 245282 232419 512 15936 -3980
44855 245415 232479 448 15942 -4002
44803 245437 232464 540 15940 -3978
44750 245442 232422 573 15954 -3965
44691 245695 232591 497 15959 -3981
44627 245786 232582 525 15860 -4004
44590 245711 232492 527 15900 -4007
44534 245835 232547 500 15930 -4000
44507 245779 232457 487 15934 -4006
44464 245806 232435 486 15946 -3995
44403 245978 232514 496 15963 -3981
44391 245958 232468 480 15923 -3993
44373 246230 232662 450 15888 -4012
44318 246453 232775 446 15907 -4011
44271 246492 232738 475 15832 -4015
44250 246541 232749 476 15852 -4007
44213 246680 232823 464 15898 -4007
44145 247085 233069 457 15928 -4009
44081 247163 233033 447 15925 -3999
44057 247094 232952 438 15920 -3998
44039 247171 232983 438 15934 -4015
44105 247034 232915 452 15928 -4022
44182 247196 233093 449 15929 -4012
44276 246990 233001 427 15933 -3994
44310 246803 232898 442 15914 -3991
44326 246813 232957 454 15915 -3984
44333 246866 233001 440 15914 -3965
44319 246713 232901 424 15911 -3963
44281 246930 233047 415 15932 -3963
44257 246898 233009 476 15938 -3959
44234 246746 232858 524 15949 -3960
44189 246836 232905 484 15964 -3972
44159 246805 232854 465 15944 -3986
44094 246847 232835 508 15917 -3979
44080 246970 232924 553 15897 -3932
44066 247019 232920 528 15896 -3921
44077 246939 232873 491 15915 -3948
44059 247101 232971 497 15935 -3953
43688 247485 232945 501 15939 -3936
43668 247549 232961 473 15954 -3923
43639 247659 233027 462 15965 -3923
43620 247769 233070 468 15962 -3931
43602 247813 233071 481 15953 -3935
43586 247851 233064 494 15949 -3942
43580 247819 233032 502 15907 -3943
43590 247804 233016 495 15883 -3941
43576 247856 233027 491 15912 -3951
43560 247989 233099 487 15939 -3955
43529 247956 233039 483 15954 -3953
43549 247687 232833 468 15959 -3958
43533 247704 232833 461 15967 -3965
43552 247691 232842 479 15966 -3963
43543 247732 232833 477 15961 -3961
43562 247587 232737 465 15967 -3955
43621 247636 232807 457 15897 -3960
43745 247653 232896 459 15925 -3958
43923 247523 232933 468 15955 -3952
44097 247327 232918 449 15966 -3945
44608 246307 232594 486 15915 -3951
44627 246306 232603 456 15914 -3955
44693 245971 232402 434 15930 -3965
44713 246021 232463 477 15943 -3955
44742 246032 232502 508 15915 -3919
44731 245985 232463 447 15869 -3972
44752 245806 232351 527 15892 -3960
44787 245754 232341 541 15928 -3958
44794 245716 232322 460 15936 -3962
44787 245735 232341 432 15933 -3961
45015 244816 231728 439 15928 -4006
45066 244856 231776 436 15932 -4008
45093 244874 231796 410 15933 -4010
45120 244835 231779 403 15931 -4009
45151 244704 231694 457 15884 -4034
45181 244641 231659 456 15902 -4010
45205 244636 231669 432 15932 -3996
45237 244398 231488 421 15946 -4001
45277 244421 231553 417 15950 -4002
45285 244601 231674 414 15959 -3992
45370 244542 231672 428 15947 -3985
45488 244031 231342 448 15925 -3979
45588 243888 231327 430 15912 -3966
45623 243883 231393 396 15900 -3942
45648 243820 231387 405 15897 -3958
45641 243920 231499 450 15913 -3991
45613 243859 231453 492 15927 -3983
45581 243888 231470 471 15930 -3982
45528 244036 231561 441 15934 -3979
45476 244058 231560 449 15926 -3967
45424 243962 231465 436 15902 -3967
45375 243892 231385 417 15896 -3965
45332 244149 231570 414 15906 -3972
45306 244311 231698 420 15910 -3993
45301 244345 231720 462 15891 -3990
45257 244314 231693 467 15896 -3962
45237 244426 231796 416 15930 -3959
45205 244493 231843 427 15937 -3972
45146 244516 231827 492 15946 -3974
45115 244429 231754 472 15959 -3972
45076 244498 231788 413 15957 -3982
45016 244699 231918 415 15946 -3980
44987 244665 231881 448 15956 -3962
44964 244748 231935 463 15962 -3960
44935 244676 231865 449 15907 -3977
44897 244680 231836 433 15889 -3966
44858 244724 231843 439 15921 -3946
44819 244827 231900 446 15921 -3959
44784 244897 231929 437 15934 -3970
44739 244958 231946 434 15957 -3962
44734 244876 231855 431 15945 -3967
44699 245021 231955 422 15934 -3974
44679 245137 232033 416 15946 -3974
44660 245113 231988 408 15948 -3981
44645 244982 231877 461 15902 -3980
44593 245234 232040 452 15930 -3979
44569 245167 231967 441 15942 -3993
44550 245020 231841 436 15959 -3981
44520 244972 231784 422 15976 -3956
44560 244865 231728 419 15959 -3948
44620 244605 231568 430 15927 -3962
44676 244496 231541 413 15924 -3963
44686 244431 231527 391 15924 -3940
44694 244286 231453 451 15861 -3994
44678 244190 231402 520 15888 -3970
44618 244177 231387 469 15928 -3972
44562 244117 231316 441 15943 -3977
44496 244134 231305 457 15927 -3968
44301 243947 231040 457 15914 -3957
43994 243803 230751 445 15932 -3970
55155 224413 223829 391 14775 -3785
52979 211487 210607 210 15415 -3588
49499 196921 195505 431 16151 -3711
47241 189068 187353 984 16680 -4584
46680 188065 186403 1094 16558 -5628
46990 191234 189546 1171 16328 -6114
47268 195891 193837 1282 16136 -6067
46744 198192 195429 815 16126 -5680
46349 202268 198698 564 16035 -5188
47332 213241 208989 1113 14996 -5483
48014 220841 216145 1204 14528 -5703
47899 226087 220685 765 15251 -5087
47518 229769 223655 617 15662 -4673
47088 232043 225353 550 15765 -4514
46709 233692 226521 527 15783 -4339
46499 234467 227059 571 15746 -4205
46234 235359 227533 560 15734 -4092
45418 237540 228394 612 15331 -4080
44811 239315 228936 705 14773 -4297
45705 238737 229001 595 14905 -4427
46992 236011 227662 410 15647 -4117
48274 232939 226151 372 16155 -3719
49385 231178 225594 475 15848 -3831
49625 229173 224057 539 15879 -4014
49425 226906 221975 655 16096 -4202
48917 224171 219262 542 16246 -4249
48130 220681 215717 299 16215 -4286
47207 217527 212415 322 16161 -4257
46320 215601 210257 618 15968 -4143
45629 218706 212554 1151 15349 -4678
45633 226424 219350 1301 15071 -5302
45734 230858 223316 661 15975 -4491
45488 234038 225899 577 15805 -4333
45224 235831 227298 587 15774 -4113
45043 236635 227879 602 15821 -3987
44877 237137 228208 582 15853 -3990
44557 237416 228200 543 15871 -3968
44253 237376 227973 522 15724 -3930
43907 237960 228050 617 15418 -4012
43157 240125 228934 616 15480 -3981
42626 241450 229297 1301 15071 -5302
42228 241918 229125 661 15975 -4491
41624 242894 229227 577 15805 -4333
41327 242925 228946 587 15774 -4113
41190 242787 228691 602 15821 -3987
41087 242980 228746 582 15853 -3990
41661 241975 228420 543 15871 -3968
42568 240489 227937 522 15724 -3930
43408 237787 226522 617 15418 -4012
44526 233223 223913 616 15480 -3981
45802 229596 222246 437 15830 -3898
46090 229628 222693 415 16044 -3871
45868 234082 226342 403 16133 -3726
45688 234423 226384 467 15972 -3747
45576 234513 226342 446 15857 -3837
45523 234331 226208 359 15809 -3837
45414 234358 226181 323 15797 -3763
45295 234659 226402 311 16154 -3730
45114 235401 226929 389 16552 -3789
44797 236491 227559 717 16226 -4063
45520 236233 226874 657 15747 -4427
46591 233485 225484 640 15797 -4377
47263 231911 224708 630 15753 -4323
47553 231175 224252 776 15337 -4348
47820 229417 222976 949 14862 -4515
47930 226321 220438 716 15135 -4481
47786 222665 217272 402 15927 -4125
47511 219206 214115 351 16244 -3883
47130 215881 211098 426 15958 -3949
46824 213379 208829 552 15671 -4155
46660 216461 211504 635 15785 -4293
46843 220092 214734 603 15920 -4343
46914 221318 215892 469 16056 -4415
46993 223836 218192 293 16108 -4559
47014 225645 219832 273 16088 -4639
47051 227392 221420 619 16059 -4607
46975 228774 222599 1022 15850 -4582
46822 230145 223732 1173 15171 -5098
46691 231131 224496 940 15022 -5485
46607 231798 225009 749 15646 -4993
46526 232081 225205 798 15879 -4622
46505 232660 225692 734 15744 -4531
46392 234332 226953 622 15648 -4387
45962 237206 228816 569 15715 -4345
45500 239386 229976 603 15845 -4333
45336 239660 229852 652 15886 -4263
45387 239922 229981 628 15867 -4207
45402 239878 229878 601 15853 -4153
45409 239993 229916 698 15565 -4074
45365 240102 229939 786 15243 -4116
45366 240286 230048 691 15205 -4193
45355 240285 230019 468 15621 -4076
45367 240061 229848 422 16017 -3864
45393 239804 229660 542 16110 -3758
45406 239444 229399 549 16022 -3829
45426 239385 229391 451 15957 -3943
45440 239447 229481 448 15966 -3961
45423 239379 229432 457 15969 -3973
45404 239316 229366 460 15927 -4001
45385 239086 229194 501 15906 -3998
45347 239198 229282 498 15919 -3995
45288 239390 229414 474 15930 -4024
45227 239582 229501 485 15940 -4037
45167 239613 229503 506 15943 -4033
45106 239889 229718 498 15939 -4027
45037 239986 229757 478 15927 -4032
44993 239979 229728 464 15910 -4052
44933 240233 229925 463 15877 -4072
44801 240303 229878 471 15820 -4106
44729 240134 229717 459 15830 -4098
43906 242517 231055 368 15952 -3957
43896 242414 230962 382 15957 -3945
43855 242677 231146 439 15976 -3943
43781 242865 231225 434 15972 -3958
43718 243036 231294 397 15945 -3976
43701 243025 231253 389 15945 -3993
43671 242905 231107 406 15919 -3990
43648 242924 231107 434 15872 -3983
43623 243085 231194 423 15880 -3991
43580 243205 231229 408 15897 -3997
43542 243179 231153 409 15921 -3996
43525 243323 231231 406 15939 -3995
43506 243382 231243 415 15924 -3990
43507 243294 231162 428 15909 -3995
43485 243445 231249 414 15915 -4000
43433 243669 231383 396 15925 -3991
43363 243960 231516 418 15898 -3981
43354 243856 231418 411 15904 -3983
43338 244075 231552 393 15925 -3989
43407 243933 231483 396 15939 -3992
43464 243997 231691 399 15943 -3988
43385 244141 231740 408 15931 -3963
43360 244224 231770 385 15917 -3948
43375 244166 231717 379 15929 -3952
43396 244143 231713 385 15941 -3951
43378 244233 231769 402 15931 -3978
43375 244279 231796 427 15897 -3986
43370 244281 231793 430 15873 -3938
43386 244204 231746 387 15911 -3936
43438 244095 231700 365 15941 -3964
43459 243996 231621 399 15951 -3965
43466 244047 231665 407 15968 -3966
43487 244176 231774 379 15967 -3966
43512 244166 231757 369 15953 -3969
43557 243861 231537 389 15943 -3971
43600 243844 231541 407 15945 -3970
43633 243842 231542 409 15883 -3953
43674 243862 231580 395 15922 -3948
43720 243886 231612 393 15939 -3952
43768 243748 231508 402 15949 -3959
43862 243511 231372 412 15950 -3966
43913 243544 231410 416 15929 -3968
43979 243396 231325 415 15931 -3971
44033 243320 231287 405 15943 -3976
44051 243385 231335 397 15937 -3979
44101 243356 231320 419 15903 -3975
44117 243279 231247 429 15890 -3973
44191 243222 231246 423 15917 -3981
44237 243196 231231 420 15918 -3986
44375 243107 231254 407 15933 -3974
44509 242829 231128 406 15954 -3963
44604 242619 231056 425 15956 -3969
44674 242596 231101 438 15956 -3959
44753 242355 230987 425 15930 -3942
44788 242166 230858 399 15927 -3950
44797 242219 230914 498 15894 -3977
44806 242177 230895 501 15918 -3990
44855 241961 230743 442 15950 -4004
44908 241539 230451 446 15951 -3999
44935 241487 230428 462 15941 -3983
45473 240499 229699 464 15950 -4003
45502 240537 229711 453 15946 -4007
45536 240399 229608 458 15934 -4007
45529 240469 229637 468 15919 -4006
45551 240330 229513 481 15878 -4020
45567 240386 229567 476 15879 -4035
45578 240534 229660 449 15919 -4028
45657 240329 229530 445 15943 -4008
45724 240106 229389 465 15946 -4003
45797 240002 229369 467 15934 -4000
45551 240748 229904 418 15928 -4010
45538 240587 229755 431 15943 -4014
45523 240807 229950 476 15947 -3991
45519 240953 230057 459 15953 -3988
45473 240972 230049 497 15883 -3993
45455 240945 230022 531 15914 -3992
45412 241004 230056 456 15937 -4001
45371 241032 230038 402 15936 -4002
45331 241107 230079 417 15942 -3985
45299 241182 230120 439 15956 -3974
45257 241335 230214 441 15940 -3980
45214 241361 230188 429 15920 -3985
45169 241360 230147 428 15931 -3977
45137 241389 230153 464 15858 -3948
45103 241524 230224 433 15878 -3948
45085 241415 230109 421 15927 -3956
45057 241471 230132 418 15926 -3966
45037 241560 230178 412 15930 -3971
45011 241623 230198 419 15949 -3963
44975 241812 230318 418 15952 -3959
44973 242164 230689 425 15938 -3970
44943 242068 230577 444 15937 -3953
44894 242030 230542 459 15896 -3918
44847 242053 230530 450 15885 -3910
44798 241992 230444 432 15909 -3927
44710 242189 230564 419 15932 -3942
44673 242519 230790 462 15948 -3954
44651 242684 230890 484 15939 -3924
44619 242678 230854 414 15926 -3917
44594 242638 230829 393 15941 -3938
44553 242839 230957 465 15954 -3918
44520 242730 230855 477 15957 -3909
44466 242781 230867 440 15909 -3920
44428 243029 231040 441 15881 -3924
44368 243099 231058 461 15922 -3919
44338 242917 230886 474 15931 -3915
44255 243257 231099 449 15943 -3929
44194 243363 231123 427 15962 -3939
44121 243614 231265 426 15943 -3940
44068 243525 231145 442 15934 -3934
44026 243578 231152 445 15945 -3928
43954 243679 231183 433 15947 -3926
43888 243899 231296 482 15870 -3928
43829 244062 231357 489 15908 -3925
43784 244027 231265 472 15928 -3924
43750 243935 231165 450 15942 -3935
43675 244105 231209 429 15959 -3948
43572 244350 231286 430 15967 -3936
43495 244313 231157 415 15969 -3924
43420 244495 231239 426 15984 -3926
43353 244695 231322 438 15975 -3915
43381 244712 231351 419 15887 -3888
43436 244769 231432 380 15921 -3901
43504 244449 231236 422 15943 -3903
43527 244345 231203 484 15949 -3898
43537 244386 231277 443 15967 -3923
43497 244615 231443 396 15963 -3930
43441 244563 231367 407 15939 -3914
43376 244584 231344 430 15933 -3903
43313 244750 231434 416 15947 -3900
43270 244762 231410 410 15878 -3866
43196 244593 231231 438 15913 -3891
42989 244652 231137 432 15942 -3867
42813 244950 231247 381 15950 -3878
42796 244940 231200 345 15959 -3908
42775 245057 231267 392 15961 -3894
42760 245111 231302 402 15967 -3902
42726 245282 231393 383 15984 -3921
42761 245309 231449 400 15996 -3915
42757 245366 231483 406 15959 -3894
42130 245722 231211 418 15901 -3746
42093 245781 231200 406 15927 -3731
42073 245852 231220 388 15958 -3759
42040 245978 231278 391 15965 -3778
41973 246084 231291 390 15982 -3781
41959 246086 231263 384 15993 -3772
41955 246121 231265 371 15992 -3776
41937 246218 231310 366 15987 -3811
41935 246102 231203 382 15976 -3822
41965 246200 231290 390 15958 -3796
42076 246166 231329 396 15905 -3775
42268 246019 231361 376 15891 -3785
42478 245789 231331 395 15925 -3814
42634 245624 231342 446 15954 -3834
42754 245618 231459 414 15992 -3855
42883 245450 231436 380 15989 -3881
42994 245187 231330 418 15960 -3886
43066 245110 231331 448 15958 -3867
43160 245010 231322 423 15973 -3848
43201 245021 231345 389 15982 -3845
43276 244707 231167 396 15905 -3775
43343 244290 230908 376 15891 -3785
43356 244227 230866 395 15925 -3814
43393 244332 230973 446 15954 -3834
43442 244282 230962 414 15992 -3855
43529 243948 230743 380 15989 -3881
43605 243774 230690 418 15960 -3886
43632 243879 230791 448 15958 -3867
43673 243692 230671 423 15973 -3848
43700 243521 230569 389 15982 -3845
43753 243364 230488 424 15907 -3853
43772 243348 230499 464 15924 -3856
43772 243315 230469 433 15941 -3857
43763 243262 230413 371 15962 -3876
43757 243148 230318 417 15955 -3866
43773 242845 230078 467 15965 -3870
43808 242646 229949 434 15972 -3876
43850 242530 229873 400 15960 -3888
43874 242460 229832 414 15958 -3891
43914 242518 229899 449 15933 -3861
43946 242341 229769 463 15920 -3843
43992 242280 229731 445 15949 -3851
44060 242133 229641 425 15967 -3849
44142 241882 229511 422 15968 -3848
44203 241968 229601 435 15957 -3858
44241 242094 229715 442 15959 -3866
44300 242030 229697 426 15972 -3869
44351 241952 229655 427 15973 -3885
44387 242036 229737 440 15975 -3889
44423 241886 229629 448 15901 -3875
44474 241914 229691 425 15920 -3877
44551 241941 229756 421 15944 -3898
44696 241418 229424 427 15952 -3917
44846 241136 229333 424 15964 -3906
44958 240930 229266 419 15970 -3907
45038 240746 229200 410 15967 -3918
45086 240855 229340 402 15975 -3923
45091 240993 229450 414 15974 -3919
45100 241000 229460 430 15942 -3905
45119 240703 229226 420 15893 -3881
45140 240763 229285 395 15884 -3892
45131 240706 229228 382 15929 -3936
45106 240448 228979 420 15960 -3944
45118 240435 228960 444 15957 -3950
45142 240369 228907 425 15944 -3969
45172 240239 228809 396 15929 -3955
45177 240099 228708 370 15923 -3940
45180 239997 228618 366 15917 -3935
45151 239681 228322 385 15902 -3925
45111 239290 227984 407 15875 -3921
45057 239842 228451 442 15877 -3949
45057 240186 228737 418 15903 -3961
45053 240280 228804 405 15909 -3950
45050 240338 228840 405 15921 -3917
45027 240385 228861 421 15909 -3897
44998 240595 229013 444 15903 -3900
44959 240850 229185 435 15921 -3910
44934 240932 229233 413 15930 -3922
44910 241031 229284 419 15943 -3926
44927 241217 229452 424 15887 -3905
44963 241227 229477 400 15937 -3920
45016 241071 229397 407 15956 -3921
45028 241008 229378 407 15956 -3922
45032 241231 229617 378 15961 -3936
45021 241597 229929 366 15977 -3933
44911 242502 230593 375 15982 -3905
44809 242839 230761 370 15959 -3892
44744 242964 230810 338 15945 -3873
44690 242995 230791 335 15953 -3866
44632 243081 230826 420 15961 -3890
44359 242709 230342 357 15950 -3888
44331 242717 230323 424 15967 -3891
44284 242616 230204 426 15981 -3905
44270 242330 229967 378 15983 -3917
44252 242466 230092 366 15948 -3922
44223 242640 230197 380 15935 -3909
44204 242371 229968 405 15954 -3899
44167 242600 230128 399 15948 -3902
44117 242753 230193 401 15914 -3886
44078 242632 230056 413 15907 -3870
44074 242756 230149 418 15936 -3876
44062 242879 230220 426 15951 -3893
44024 242955 230227 410 15954 -3875
44014 242963 230218 386 15951 -3863
43994 243317 230473 391 15951 -3884
43959 243743 230754 405 15949 -3885
43913 244111 230980 399 15940 -3887
43871 244850 231480 410 15944 -3882
43841 245551 231941 420 15933 -3864
43795 246484 232524 389 15928 -3859
43785 246857 232708 385 15941 -3872
43764 247218 232908 408 15944 -3885
43668 247667 233147 384 15950 -3891
43590 247854 233171 357 15950 -3896
43471 248011 233189 373 15938 -3881
43275 247764 232851 390 15915 -3857
43835 244334 230680 364 15915 -3834
45432 239080 227780 328 15939 -3833
49449 233062 226780 386 15944 -3807
54380 227918 226415 433 15962 -3770
47897 208098 204845 862 16382 -6212
48880 216343 212840 753 16261 -6424
49219 223190 219137 684 16162 -6248
48945 227896 223165 842 15943 -6098
48587 231283 225985 945 15754 -5813
48145 233740 227901 1187 14867 -5876
47625 235321 228936 1175 14480 -6002
47076 235523 228711 623 15710 -4782
46874 234530 227716 619 15740 -4703
47068 235443 228481 593 15696 -4519
49197 220997 217614 344 15995 -3944
48696 228225 223541 430 16345 -4039
48257 230730 225297 526 16416 -4072
47784 233469 227283 603 16268 -4036
47385 235285 228598 656 15931 -3974
47011 236233 229175 919 15067 -4677
46642 236909 229515 830 15204 -4964
46179 237471 229690 527 16065 -4301
45724 237457 229405 534 16061 -4089
45369 237201 228917 512 15911 -4092
44771 238449 229162 578 15906 -3986
43487 240975 229538 640 15938 -3896
42539 243668 230519 571 15994 -3862
42841 243395 230453 496 15961 -3774
43523 241389 229395 499 15714 -3666
44245 239325 228355 624 15162 -3786
45167 236352 226793 673 14846 -3999
45840 234687 226076 577 15465 -3736
46486 233563 225829 451 16430 -3114
46841 232018 224928 381 16537 -3062
47106 229077 222819 350 16109 -3387
48011 225493 220732 303 15949 -3526
48533 223378 219438 410 15922 -3637
48857 226078 222102 581 15960 -3678
49002 225451 221619 549 16085 -3714
48988 225214 221410 434 16220 -3754
48851 226367 222409 416 16261 -3707
48568 228089 223721 680 15638 -4042
48202 230485 225581 885 15119 -4641
47596 233357 227610 747 15769 -4409
46588 235376 228522 727 16220 -4021
45373 236408 228378 771 16092 -4072
44233 236076 227112 648 16008 -4026
43321 235537 225922 584 15935 -3975
42770 235044 224983 659 15951 -3940
41974 236501 225265 656 16008 -3879
40734 238628 225653 536 15983 -3673
40420 240177 226425 464 15955 -3684
41195 240299 226961 467 15867 -3656
42394 239329 227068 641 15396 -3717
43543 238241 227029 793 15032 -3842
44910 236122 226338 650 15409 -3660
46291 233910 225663 424 15913 -3252
47469 232946 225897 420 16034 -3163
48401 231235 225218 544 15937 -3380
49393 227541 222933 441 15762 -3485
49928 221212 217969 411 15828 -3590
50100 215781 213479 492 15911 -3729
50018 216495 214142 486 16151 -3730
50100 219252 216509 414 16538 -3725
45382 231402 223057 647 15580 -4312
45300 231563 222992 783 15021 -4468
45199 228722 220436 838 14851 -4641
45073 226275 218318 659 15554 -4378
44891 224142 216396 488 16370 -3915
44609 220755 213392 482 16418 -3753
44156 216367 209357 565 15965 -3986
43433 212395 205494 555 15834 -4164
42693 212093 204819 542 16002 -4130
42191 213266 205409 598 16044 -4060
41530 211559 203370 689 15652 -4229
41003 210277 201849 817 14988 -4875
40478 209118 200446 722 15066 -5066
39992 207675 198813 616 15619 -4701
39669 206573 197589 711 15738 -4684
39482 206008 196938 730 15665 -4712
39456 205960 196838 696 15651 -4692
39360 205518 196320 690 15698 -4845
39474 205139 196059 747 15753 -5017
39690 205228 196237 785 15762 -5052
42389 213882 205656 801 15758 -4805
42355 215397 206970 768 15725 -4744
42332 216960 208338 741 15725 -4590
42217 218110 209253 753 15712 -4492
42096 219154 210088 809 15591 -4400
42001 220675 211356 758 15729 -4355
41996 221581 212110 738 15810 -4318
41987 222068 212511 791 15822 -4278
41988 222428 212825 763 15826 -4224
41968 223618 213870 668 15823 -4197
41305 228035 216887 590 15952 -3969
41256 228383 217124 557 15953 -3961
41154 228568 217151 547 15917 -3962
41059 228640 217135 582 15879 -3926
41001 229046 217416 602 15893 -3924
40896 229854 218014 573 15926 -3949
40857 230409 218412 547 15943 -3940
40870 230876 218771 563 15945 -3906
40851 231587 219304 548 15926 -3883
40886 232028 219642 534 15922 -3877
40980 232613 220183 576 15942 -3857
41036 233374 220821 569 15948 -3846
41074 233633 221010 549 15945 -3839
41171 233736 221142 531 15938 -3814
41259 234021 221418 521 15954 -3793
41402 234267 221687 547 15971 -3779
41589 234346 221876 525 15973 -3763
41784 234461 222139 473 15972 -3733
41863 234960 222609 463 15975 -3723
41969 235348 223003 504 15979 -3752
42061 235809 223459 575 15970 -3755
42156 236212 223860 573 15982 -3731
42202 236543 224172 534 15995 -3692
42225 236858 224438 548 15945 -3660
42250 236976 224537 552 15918 -3663
42241 237046 224584 526 15952 -3671
42211 237260 224737 482 15966 -3687
42224 237295 224754 477 15968 -3714
42259 237459 224893 504 15974 -3714
42322 237264 224755 498 15983 -3673
42344 237265 224783 457 15989 -3670
42356 237357 224851 458 15987 -3698
42375 237342 224860 559 15987 -3677
42364 237331 224843 575 15971 -3650
42365 237223 224748 483 15966 -3657
42338 237499 224977 468 15972 -3681
42338 237583 225097 513 15978 -3668
42330 237622 225115 533 15986 -3651
42320 237797 225262 486 15985 -3681
42331 238098 225497 457 15987 -3704
42326 238193 225561 483 15991 -3676
42281 238252 225561 516 16009 -3651
42263 238158 225458 497 15997 -3675
42238 238301 225562 502 15908 -3654
42241 238289 225521 482 15954 -3663
42269 238132 225414 465 15976 -3667
42274 238409 225612 469 15970 -3662
42268 238419 225598 488 15979 -3657
42277 238372 225548 489 15987 -3664
42254 238637 225724 469 15984 -3673
42738 238259 225834 529 15985 -3600
42753 238312 225897 535 15949 -3578
42737 238464 226010 517 15908 -3575
42708 238567 226083 503 15916 -3593
42706 238808 226277 516 15950 -3624
42738 239312 226700 524 15980 -3629
42805 239422 226807 483 15993 -3627
42864 239366 226812 434 15982 -3629
42884 239678 227095 499 15972 -3635
42889 239861 227238 546 15980 -3659
42359 241987 228391 411 15981 -3767
42508 242059 228563 435 15974 -3751
42639 242125 228726 450 15929 -3701
42736 241833 228602 444 15902 -3696
42754 241896 228694 429 15936 -3740
42792 241830 228698 486 15959 -3766
42820 241796 228735 509 15980 -3784
42786 241939 228858 461 15992 -3821
42790 241989 228914 478 15979 -3838
42809 241948 228901 499 15949 -3812
42811 241748 228763 479 15937 -3791
42784 241818 228823 455 15954 -3798
42724 241891 228854 506 15896 -3810
42705 241967 228901 516 15930 -3839
42729 241886 228861 517 15950 -3826
42759 241967 228950 471 15964 -3810
42735 241876 228884 451 15969 -3823
42687 242081 229031 511 15965 -3839
42646 242104 229026 514 15979 -3847
42599 242054 228969 454 15988 -3840
42543 242057 228947 430 15987 -3829
42513 241903 228813 467 15954 -3812
42441 241887 228748 509 15924 -3809
42371 241810 228652 492 15933 -3824
42297 241831 228618 452 15954 -3830
42181 241968 228665 437 15977 -3831
42117 242162 228784 444 15984 -3822
42052 242176 228739 447 15977 -3814
41983 242070 228598 433 15969 -3813
41908 242085 228549 429 15972 -3807
41406 242841 228648 432 15979 -3699
41374 242809 228603 467 15943 -3676
41334 243095 228778 470 15934 -3674
41463 242996 228787 430 15958 -3658
41608 243042 228934 399 15968 -3686
41702 243027 229002 418 15976 -3714
41711 242959 228972 503 15980 -3722
41718 243065 229094 513 16000 -3732
41737 243100 229144 451 16004 -3740
41691 243145 229168 441 15978 -3747
41659 243232 229218 472 15955 -3720
41678 243149 229174 490 15920 -3679
41689 243066 229140 476 15905 -3696
41648 243144 229181 446 15935 -3741
41567 243093 229078 429 15966 -3759
41515 243059 229006 456 15982 -3745
41530 243181 229106 463 15978 -3708
41581 243277 229218 418 15983 -3708
41584 243232 229178 411 15984 -3735
41555 243302 229210 452 15986 -3748
41535 243383 229267 454 15985 -3743
41518 243201 229115 437 15938 -3712
41464 243301 229162 425 15913 -3710
41453 243311 229176 403 15942 -3727
41428 243358 229182 423 15968 -3723
41355 243422 229175 438 15983 -3719
41302 243424 229126 409 15987 -3716
41301 243402 229111 394 15992 -3724
41295 243390 229095 405 15999 -3739
41219 243487 229108 419 15995 -3736
41156 243525 229086 421 15985 -3733
41108 243590 229087 427 15932 -3713
41075 243619 229067 445 15903 -3696
41083 243571 229026 440 15936 -3720
41086 243537 228990 429 15961 -3741
41052 243609 229012 432 15966 -3751
41026 243609 228963 438 15970 -3748
41007 243631 228937 437 15978 -3736
40992 243528 228814 436 15979 -3726
40989 243477 228756 443 15987 -3735
41210 243305 228443 460 15922 -3700
41349 243309 228547 444 15954 -3706
41533 243173 228589 402 15979 -3758
41698 243142 228706 394 15969 -3779
41805 243065 228735 393 15946 -3767
41831 243153 228823 405 15952 -3765
41910 243052 228804 412 15975 -3762
41957 243190 228950 383 15969 -3768
42053 243089 228931 369 15968 -3800
42091 242956 228859 409 15977 -3774
42088 243075 228952 426 15940 -3711
42183 243063 228979 381 15928 -3728
42264 243034 229010 358 15951 -3772
42347 242829 228898 405 15963 -3771
42414 242727 228879 424 15978 -3768
42448 242827 228979 381 15985 -3783
42469 242622 228818 385 15993 -3802
42482 242692 228907 415 15987 -3790
42496 242818 229024 412 15978 -3769
42504 242771 228985 398 15971 -3768
42806 242448 228868 413 15948 -3754
42822 242470 228886 414 15932 -3747
42841 242516 228932 390 15950 -3758
42856 242533 228940 385 15963 -3766
42879 242445 228884 388 15965 -3764
42876 242301 228770 395 15966 -3753
42836 242529 228926 394 15969 -3752
42800 242567 228938 381 15983 -3768
42749 242620 228929 387 15993 -3767
42705 242465 228769 414 15985 -3760
42689 242445 228749 413 15948 -3754
42663 242688 228916 414 15932 -3747
42720 242730 228984 390 15950 -3758
42785 242442 228801 385 15963 -3766
42826 242413 228857 388 15965 -3764
42817 242327 228798 395 15966 -3753
42787 242281 228784 394 15969 -3752
42729 242331 228819 381 15983 -3768
42644 242423 228868 387 15993 -3767
42536 242654 228986 414 15985 -3760
42453 242719 228993 416 15915 -3675
42421 242543 228849 389 15944 -3661
42347 242503 228787 386 15972 -3706
42249 242709 228896 418 15984 -3739
42190 242785 228909 444 15991 -3744
42155 243229 229256 405 16001 -3748
42103 243207 229219 387 16001 -3730
42026 243306 229257 404 15977 -3702
41943 243472 229331 397 15966 -3686
41895 243259 229147 387 15952 -3659
41073 243747 229032 406 15952 -3596
40979 243880 229065 381 15986 -3636
40907 243885 229012 363 15988 -3666
40858 243902 228991 361 15982 -3663
40810 243938 228977 371 15978 -3656
40767 243977 228968 368 15982 -3663
40722 243908 228871 374 15984 -3657
40656 244082 228968 373 15968 -3674
40610 244401 229205 375 15947 -3678
40528 244371 229114 383 15929 -3647
40421 244365 229019 372 15934 -3649
40365 244070 228754 368 15969 -3669
40253 244293 228853 369 15990 -3678
40258 244408 228962 363 15992 -3688
40332 244317 228938 356 15991 -3691
40433 244204 228947 356 16002 -3683
40415 244384 229123 358 15993 -3662
40406 244362 229131 356 15968 -3652
40391 244253 229081 356 15976 -3638
40336 244328 229134 371 15975 -3607
39639 244707 229072 428 15928 -3571
39550 244733 229019 410 15957 -3578
39481 244485 228756 381 15973 -3620
39466 244330 228625 394 15991 -3653
39409 244477 228717 426 15993 -3624
39339 244478 228659 396 15994 -3616
39251 244449 228568 331 15997 -3636
39205 244426 228513 365 15995 -3631
39177 244444 228506 418 16005 -3636
39121 244466 228476 371 15956 -3585
39115 244400 228403 352 15966 -3618
39108 244428 228436 385 15983 -3635
39082 244477 228423 395 15997 -3640
39040 244435 228356 370 15999 -3638
39029 244507 228413 364 15998 -3640
39013 244611 228468 380 16007 -3638
39007 244490 228353 396 16001 -3653
38990 244683 228500 374 15986 -3666
39004 244721 228517 381 15947 -3627
38981 244747 228518 369 15951 -3653
38987 244715 228479 359 15964 -3671
38994 244709 228472 352 15985 -3674
38965 244838 228549 350 15986 -3680
38930 244809 228473 359 15986 -3701
38941 244671 228368 373 15997 -3699
38982 244716 228409 369 15998 -3678
39113 244708 228482 364 15990 -3675
39260 244643 228481 399 15955 -3648
39412 244325 228324 389 15957 -3656
39525 244151 228302 365 15974 -3678
39619 244066 228316 369 15986 -3696
39657 244052 228347 379 15995 -3701
39717 243882 228280 374 15989 -3692
39771 243771 228240 342 15980 -3683
39810 243845 228348 335 15985 -3702
39875 243732 228314 403 15998 -3712
39979 243514 228228 449 15995 -3704
40016 243343 228146 411 15965 -3709
40009 243499 228278 383 15950 -3707
40076 243475 228302 403 15959 -3714
40141 243477 228342 423 15967 -3731
40269 243285 228300 403 15973 -3721
40309 243336 228386 363 15977 -3724
40369 243254 228360 365 15984 -3743
40382 243298 228420 410 15985 -3735
40439 243054 228282 426 15975 -3687
40484 243030 228301 392 15966 -3674
40527 242944 228272 389 15931 -3691
40595 242830 228222 438 15922 -3683
40667 242913 228342 419 15962 -3688
40712 242923 228376 371 15977 -3709
40700 242991 228395 374 15982 -3720
40703 242790 228221 383 15975 -3704
40715 242657 228111 395 15965 -3707
40741 242529 228022 395 15968 -3724
40742 242494 227978 378 15972 -3745
40779 242503 228000 362 15971 -3745
40840 242327 227867 397 15934 -3721
40891 242325 227905 426 15937 -3728
40959 242351 227977 411 15973 -3761
41021 242412 228066 403 15983 -3793
41122 242189 227965 404 15983 -3806
41218 242169 228033 401 15974 -3817
41331 241968 227959 394 15976 -3823
41499 241822 227971 408 15974 -3831
41660 241829 228120 413 15981 -3839
41827 241777 228215 393 15984 -3833
41930 241805 228316 393 15933 -3822
41998 241810 228378 409 15908 -3819
41982 242535 228957 411 15947 -3830
41734 243584 229532 384 15957 -3844
41441 242168 228058 362 15934 -3853
42920 237408 225480 383 15934 -3852
45455 234454 225393 408 15953 -3859
48277 233428 227278 421 15968 -3881
51074 233944 230188 439 15957 -3901
52997 232061 230116 467 15877 -3886
53689 228221 227210 393 15754 -3925
53737 225405 224595 350 15760 -4098
52995 221543 220442 358 15372 -3933
52063 218311 216896 394 15251 -3857
51031 215081 213453 417 15696 -4007
49664 210405 208645 378 15929 -3960
48233 208381 206166 411 15847 -4120
47255 207939 205248 593 15898 -4527
47242 215109 211748 748 16071 -4925
47873 223352 219448 275 16393 -5146
47757 227480 223030 363 16253 -4840
47339 231022 225861 839 16045 -4574
46843 232984 227279 1080 15466 -4744
46195 234566 228204 1013 14625 -5497
45485 235732 228699 709 14971 -5341
44799 236424 228785 560 15751 -4623
44356 236414 228334 600 15853 -4426
43256 238476 228727 553 15827 -4307
42000 239962 228360 567 15851 -4202
42717 239490 228312 580 15905 -4119
44160 238062 228194 479 15911 -4042
46225 234631 227118 428 15567 -3994
48601 232969 227806 620 14866 -4104
50397 229584 226395 695 14693 -4234
51082 227123 224759 461 15335 -4093
51273 224427 222514 359 15903 -3747
51313 220522 219136 480 15983 -3691
51199 216545 215489 450 15614 -3770
50344 211770 210694 364 15410 -3889
49436 208346 207220 468 15826 -4299
48348 206664 205169 527 16175 -4549
47319 206711 204610 370 16208 -4579
47109 213213 210397 217 16157 -4645
47699 223761 220164 301 16119 -4822
47399 229462 224963 543 16117 -4923
46443 233346 227620 758 16163 -4843
45495 235353 228664 1006 16055 -4594
44763 236103 228743 1345 15344 -4998
44197 236015 228231 1108 14920 -5540
43249 236711 227849 552 15432 -5011
41265 239037 227729 422 15838 -4432
39412 240579 227166 422 15813 -4228
40060 239886 226996 378 15669 -4080
48339 209979 208464 310 16267 -3988
47729 214188 211847 213 16248 -4058
47586 219930 216913 385 16121 -4202
47352 225767 222021 508 16044 -4256
46752 230771 226066 578 15912 -4222
45887 234047 228330 1091 15546 -5068
44903 235686 228956 874 16122 -4800
43925 236586 228893 771 16196 -4562
43056 236983 228443 629 15822 -4511
42493 236974 227898 505 15655 -4340
46599 229338 224016 415 15884 -3797
47036 227129 222776 325 16054 -3919
47221 225151 221359 280 16283 -3994
46651 227491 223085 349 16383 -4010
46081 231994 226573 576 16331 -3951
45607 233737 227660 752 15951 -3965
45087 236091 229226 812 15172 -4573
44530 237169 229614 704 15302 -4796
43968 237878 229717 588 16018 -4314
43430 238373 229710 586 16029 -4127
42989 238511 229496 483 15810 -4076
42662 238279 229028 423 15770 -4074
42525 237958 228554 470 15851 -4065
41964 239926 229400 548 15881 -4000
40721 242335 229820 528 15878 -3950
40163 243185 229770 488 15765 -3910
40769 242200 229311 651 15319 -3977
41715 240418 228531 737 15016 -4104
42978 238148 227635 515 15493 -3998
44357 235290 226395 330 16121 -3713
49135 201913 201317 625 15877 -4820
49438 204759 203965 712 15969 -4991
49239 205580 204583 851 15828 -5076
49073 207854 206495 1050 15422 -5350
48735 209779 208050 1074 15602 -5560
48649 212649 210670 1101 15802 -5321
48763 216553 214344 1026 15816 -5332
48807 220534 218052 804 15787 -5168
48685 224168 221300 766 15698 -4979
48428 227142 223815 812 15720 -4796
48106 229339 225580 776 15775 -4626
47905 230598 226573 671 15787 -4449
47760 231590 227341 574 15777 -4277
47671 232227 227835 545 15753 -4171
47533 232620 228062 509 15767 -4120
47478 233271 228552 475 15812 -4075
47508 234240 229317 464 15833 -4023
47466 235082 229860 467 15817 -3973
47469 235483 230053 479 15665 -3943
47451 236088 230432 456 15531 -3951
47396 236563 230664 415 15620 -3950
47438 236738 230722 430 15802 -3963
47502 237004 230898 459 15910 -3984
47511 237167 230963 490 15889 -3939
47550 237136 230931 457 15885 -3954
47600 236947 230766 452 15945 -3970
47617 236518 230404 488 15997 -3967
47612 236224 230128 496 16012 -3983
47593 236233 230091 504 15995 -3998
47592 236228 230066 553 15957 -3996
47556 236373 230115 574 15938 -4007
47467 236573 230208 556 15951 -4012
47295 237254 230603 559 15931 -4016
47163 237520 230714 575 15898 -4040
46953 237845 230809 563 15905 -4052
46743 238401 231067 552 15923 -4014
46512 238995 231337 513 15929 -4020
46333 239228 231373 476 15927 -4049
46162 239275 231267 535 15924 -4028
45992 239315 231169 549 15941 -4010
45810 239480 231140 471 15963 -4006
45635 239794 231244 434 15940 -4007
45384 240300 231437 452 15893 -3985
45173 240642 231513 504 15872 -3957
45045 240527 231311 534 15902 -3928
44923 240645 231300 498 15942 -3899
44739 240844 231251 422 15934 -3906
44550 241042 231191 384 15917 -3943
44405 241095 231083 410 15930 -3965
44207 241340 231059 423 15933 -3957
42771 243229 231260 494 15954 -3790
42625 243307 231173 465 15934 -3800
42472 243486 231213 432 15932 -3815
42417 243493 231224 391 15920 -3751
42316 243608 231289 394 15894 -3700
42258 243859 231498 428 15922 -3732
42241 243842 231497 507 15977 -3754
42157 244127 231711 550 16017 -3787
41976 244747 232089 515 16036 -3837
41690 245414 232384 562 16043 -3876
41491 245621 232396 660 16043 -3879
41458 245266 232125 591 15964 -3839
41395 245288 232165 351 15843 -3821
41430 245316 232264 50 15754 -3800
41415 245219 232192 145 15828 -3811
41383 245517 232423 229 15847 -3760
41315 245513 232383 307 15833 -3745
41318 245415 232302 436 15868 -3733
41195 245663 232402 534 15905 -3704
41103 245780 232388 501 15953 -3751
41097 245530 232150 413 15960 -3798
41079 245368 231985 425 15944 -3794
41062 245306 231889 673 15940 -3797
40930 245472 231887 710 15992 -3822
40727 245653 231833 712 16002 -3874
40619 245338 231469 763 15974 -3846
40639 244866 231094 876 15936 -3800
40538 244866 231049 992 15917 -3796
40345 245175 231136 1058 15945 -3821
40137 245393 231145 983 15984 -3824
39977 245319 230910 757 15988 -3826
39924 245203 230783 546 15964 -3843
39872 245303 230804 482 15947 -3844
39697 245769 231035 519 15956 -3849
39429 246530 231417 541 15950 -3874
39232 246910 231531 471 15925 -3869
39117 246944 231442 305 15852 -3852
39065 247045 231485 111 15765 -3888
39022 247163 231540 26 15755 -3953
38905 247436 231668 63 15793 -4007
38720 247862 231870 116 15820 -4038
38592 248035 231903 96 15818 -4069
38571 247862 231749 -58 15795 -4135
38641 247864 231760 -151 15794 -4231
38718 247886 231798 -32 15810 -4289
38809 248142 232017 126 15810 -4354
38829 248398 232190 219 15820 -4430
38797 248609 232302 246 15840 -4476
38822 248743 232402 293 15896 -4441
38826 248826 232459 419 15964 -4322
38735 248868 232396 510 16000 -4211
38654 248710 232202 530 15980 -4111
38515 248931 232318 545 15885 -4061
38427 249212 232471 553 15871 -4038
38353 249309 232493 547 15939 -3972
38263 249376 232501 483 15931 -3950
38165 249462 232496 381 15912 -3975
38112 249729 232654 339 15943 -3992
38051 250028 232825 375 15959 -3974
38078 250058 232790 397 15958 -3946
