2025-08-20 02:50:49    绿光---红外光---红光---X轴---Y轴---Z轴
56440 401508 408168 -13779 8308 -1438
56553 401585 408213 -13774 8315 -1424
56679 401642 408256 -13777 8321 -1429
56796 401703 408283 -13775 8328 -1442
56920 401765 408322 -13757 8365 -1471
57040 401836 408367 -13735 8368 -1472
57165 401906 408405 -13734 8368 -1475
57293 401977 408426 -13758 8363 -1494
57420 402064 408465 -13771 8361 -1513
57546 402114 408476 -13763 8366 -1532
57655 402169 408490 -13758 8368 -1576
57701 402153 408503 -13754 8370 -1603
57600 402062 408445 -13741 8378 -1611
57353 401898 408348 -13738 8446 -1680
57034 401727 408236 -13745 8441 -1723
56733 401601 408158 -13721 8425 -1769
56494 401548 408103 -13701 8422 -1806
56322 401507 408064 -13678 8419 -1854
56216 401514 408071 -13636 8410 -1895
56145 401528 408061 -13604 8405 -1931
56096 401538 408031 -13576 8396 -1976
56083 401554 408043 -13564 8400 -2023
56117 401618 408050 -13575 8417 -2078
56182 401681 408072 -13576 8444 -2103
56259 401723 408089 -13546 8443 -2121
56311 401742 408095 -13513 8427 -2175
56338 401759 408092 -13512 8437 -2212
56342 401754 408070 -13533 8446 -2215
56342 401759 408068 -13555 8457 -2214
56348 401790 408083 -13575 8477 -2221
56380 401807 408090 -13565 8492 -2232
56431 401836 408090 -13532 8500 -2247
56500 401873 408100 -13527 8504 -2258
56591 401920 408121 -13553 8524 -2271
56693 401974 408137 -13560 8531 -2280
56811 402031 408156 -13539 8509 -2281
56941 402085 408177 -13513 8500 -2294
57083 402161 408222 -13494 8489 -2324
57239 402233 408246 -13477 8463 -2352
57396 402293 408276 -13453 8444 -2362
57552 402363 408318 -13436 8440 -2370
57713 402427 408349 -13434 8437 -2380
57874 402508 408379 -13427 8433 -2398
58040 402605 408443 -13426 8483 -2474
58204 402686 408473 -13409 8475 -2469
58367 402732 408501 -13401 8472 -2464
58524 402814 408524 -13412 8477 -2463
58681 402860 408565 -13422 8494 -2472
58834 402930 408603 -13418 8507 -2480
58982 403008 408645 -13413 8500 -2492
59137 403093 408677 -13400 8499 -2500
59292 403148 408707 -13387 8520 -2499
59446 403212 408734 -13394 8581 -2522
59591 403285 408776 -13373 8568 -2503
59666 403274 408771 -13355 8565 -2495
59590 403181 408715 -13368 8587 -2505
59376 402990 408629 -13397 8626 -2511
59090 402816 408536 -13402 8643 -2503
58834 402696 408467 -13394 8634 -2494
58628 402609 408421 -13388 8618 -2494
58556 402751 408488 -13411 8541 -2521
58546 402740 408509 -13430 8548 -2523
58543 402740 408496 -13435 8561 -2528
58560 402757 408492 -13422 8562 -2515
58596 402774 408514 -13414 8543 -2493
58654 402827 408541 -13416 8555 -2481
58723 402852 408568 -13417 8573 -2469
58812 402896 408580 -13406 8562 -2469
58913 402966 408604 -13401 8555 -2467
59027 403021 408636 -13409 8558 -2459
59156 403085 408679 -13412 8564 -2458
59290 403154 408715 -13404 8571 -2475
59427 403223 408751 -13414 8597 -2526
59565 403284 408786 -13412 8572 -2500
59704 403344 408830 -13419 8550 -2472
59845 403410 408861 -13425 8528 -2453
59986 403462 408891 -13427 8515 -2444
60123 403514 408921 -13434 8517 -2436
60263 403591 408951 -13437 8532 -2426
60399 403655 408989 -13439 8544 -2425
60536 403710 409007 -13439 8549 -2436
60676 403768 409042 -13447 8569 -2455
60817 403839 409073 -13457 8581 -2470
60954 403901 409097 -13448 8569 -2459
61090 403965 409132 -13449 8555 -2452
61232 404045 409171 -13442 8546 -2451
61373 404118 409208 -13435 8536 -2446
61523 404177 409229 -13444 8521 -2451
61677 404238 409256 -13437 8505 -2445
61823 404325 409305 -13419 8486 -2429
61951 404380 409328 -13401 8479 -2416
61983 404342 409303 -13456 8572 -2471
61861 404203 409225 -13475 8573 -2465
61620 404006 409118 -13475 8555 -2451
61360 403848 409019 -13475 8537 -2443
61142 403772 408967 -13458 8523 -2430
60996 403737 408972 -13430 8498 -2417
60904 403709 408966 -13417 8488 -2408
60865 403715 408945 -13418 8498 -2412
60848 403725 408949 -13424 8510 -2421
60853 403742 408931 -13437 8528 -2429
60874 403785 408974 -13430 8564 -2446
60938 403849 408999 -13397 8582 -2456
61002 403875 409009 -13392 8575 -2465
61042 403883 409009 -13405 8579 -2471
61054 403877 409012 -13408 8595 -2459
61044 403862 408992 -13405 8612 -2458
61028 403850 408999 -13389 8599 -2461
61016 403842 408990 -13371 8575 -2460
61019 403840 408992 -13374 8568 -2445
61036 403860 408999 -13396 8590 -2435
61070 403881 408997 -13409 8625 -2447
61121 403913 409010 -13429 8635 -2442
61178 403948 409037 -13439 8621 -2430
61243 403991 409072 -13423 8601 -2414
61317 404022 409081 -13415 8580 -2388
61403 404090 409090 -13418 8574 -2381
61494 404130 409127 -13425 8568 -2381
61591 404205 409172 -13416 8559 -2381
61694 404257 409203 -13410 8562 -2385
61798 404315 409242 -13418 8569 -2393
61906 404371 409260 -13455 8590 -2389
62009 404408 409282 -13458 8573 -2378
62118 404460 409293 -13445 8561 -2366
62227 404506 409329 -13448 8561 -2360
62338 404558 409355 -13447 8558 -2363
62449 404619 409379 -13440 8540 -2380
62558 404642 409395 -13434 8527 -2392
62674 404697 409412 -13430 8524 -2395
62789 404755 409425 -13425 8523 -2385
62195 404353 409235 -13477 8555 -2341
62202 404384 409244 -13493 8559 -2347
62229 404382 409248 -13491 8546 -2347
62273 404393 409249 -13491 8533 -2349
62326 404424 409249 -13491 8513 -2347
62386 404467 409275 -13486 8490 -2341
62455 404508 409303 -13473 8475 -2335
62531 404550 409317 -13476 8479 -2331
62619 404572 409335 -13486 8499 -2322
62706 404609 409354 -13494 8527 -2314
62802 404655 409371 -13506 8542 -2315
62895 404670 409368 -13506 8525 -2311
62994 404681 409386 -13502 8504 -2305
63098 404719 409402 -13506 8499 -2298
63206 404771 409420 -13515 8485 -2282
63314 404851 409458 -13520 8471 -2266
63427 404916 409498 -13519 8464 -2257
63536 404975 409534 -13523 8460 -2267
63643 405028 409557 -13514 8453 -2281
63754 405084 409593 -13495 8449 -2280
62570 404376 409212 -13477 8495 -2284
62514 404348 409216 -13482 8551 -2306
62478 404355 409215 -13498 8561 -2333
62471 404378 409241 -13494 8555 -2350
62489 404426 409244 -13491 8552 -2351
62510 404453 409252 -13489 8534 -2348
62523 404453 409264 -13477 8505 -2340
62503 404449 409268 -13481 8483 -2324
62466 404420 409259 -13497 8463 -2305
62418 404409 409240 -13504 8450 -2293
62375 404397 409251 -13540 8473 -2284
62347 404403 409271 -13529 8449 -2286
62335 404406 409269 -13513 8445 -2289
62343 404429 409281 -13507 8450 -2311
62372 404447 409276 -13506 8453 -2332
62407 404470 409296 -13502 8460 -2339
62449 404481 409318 -13504 8461 -2336
62506 404525 409345 -13501 8446 -2332
62571 404566 409371 -13492 8434 -2326
62642 404585 409380 -13491 8459 -2312
62724 404634 409403 -13487 8476 -2312
62809 404704 409430 -13491 8459 -2309
62901 404747 409468 -13498 8452 -2294
62989 404801 409504 -13489 8457 -2293
63083 404849 409514 -13489 8463 -2302
63178 404875 409532 -13499 8476 -2299
63274 404938 409546 -13507 8482 -2287
63367 404971 409575 -13513 8475 -2285
63465 405027 409609 -13509 8471 -2282
63555 405066 409633 -13560 8527 -2284
63641 405110 409646 -13552 8527 -2288
63731 405142 409669 -13515 8507 -2295
63808 405186 409687 -13492 8492 -2307
63887 405212 409708 -13490 8483 -2325
63924 405232 409729 -13488 8479 -2324
63845 405144 409691 -13488 8468 -2314
63621 404974 409596 -13485 8448 -2306
63290 404755 409477 -13444 8426 -2309
62953 404555 409392 -13457 8412 -2338
62657 404432 409332 -13505 8412 -2338
61714 404074 409147 -13570 8709 -2388
61609 403996 409100 -13428 8717 -2331
61509 403928 409052 -13327 8697 -2274
61419 403892 409049 -13266 8642 -2237
61361 403872 409033 -13247 8557 -2220
61322 403856 409032 -13286 8481 -2216
61307 403867 409035 -13338 8435 -2219
61302 403869 409014 -13353 8424 -2213
61314 403879 409030 -13357 8439 -2228
61337 403902 409031 -13529 8574 -2340
61378 403942 409056 -13567 8643 -2338
61426 403998 409073 -13534 8721 -2320
61488 404030 409093 -13487 8771 -2321
61560 404059 409119 -13460 8777 -2324
61636 404107 409143 -13431 8769 -2313
61714 404161 409160 -13400 8759 -2307
61799 404176 409168 -13373 8738 -2316
61886 404216 409176 -13351 8725 -2323
61972 404260 409196 -13340 8717 -2311
62046 404295 409211 -13373 8702 -2307
62122 404323 409218 -13408 8697 -2289
62198 404343 409231 -13433 8695 -2266
62278 404376 409258 -13444 8687 -2243
62359 404415 409264 -13432 8663 -2215
62443 404446 409285 -13424 8625 -2201
62526 404482 409316 -13416 8608 -2208
62594 404522 409327 -13406 8594 -2236
62598 404493 409309 -13394 8574 -2261
62465 404366 409244 -13371 8586 -2262
62202 404169 409144 -13364 8601 -2271
60759 403690 408882 -13396 8650 -2286
60737 403681 408896 -13369 8626 -2281
60687 403644 408885 -13359 8622 -2271
60617 403621 408862 -13359 8629 -2275
60544 403591 408848 -13355 8620 -2280
60475 403538 408836 -13357 8625 -2281
60426 403542 408844 -13368 8642 -2296
60404 403536 408845 -13382 8659 -2315
60399 403567 408853 -13390 8699 -2337
60414 403572 408841 -13390 8711 -2343
61247 404032 409069 -13378 8694 -2340
61341 404073 409083 -13376 8682 -2333
61443 404133 409099 -13373 8676 -2343
61535 404163 409137 -13359 8671 -2352
61633 404208 409155 -13348 8642 -2362
61731 404254 409168 -13348 8615 -2366
61829 404303 409196 -13357 8605 -2352
61918 404347 409237 -13401 8627 -2345
61963 404366 409230 -13420 8625 -2329
61892 404262 409196 -13425 8620 -2319
60488 403694 408920 -13383 8658 -2297
60524 403719 408949 -13391 8636 -2305
60523 403713 408945 -13393 8607 -2295
60494 403682 408915 -13405 8591 -2280
60446 403655 408902 -13413 8591 -2271
60394 403650 408906 -13414 8595 -2264
60356 403642 408903 -13428 8606 -2272
60337 403634 408900 -13458 8644 -2303
60345 403660 408905 -13441 8617 -2303
60363 403675 408917 -13423 8612 -2290
60400 403705 408932 -13409 8623 -2290
60449 403742 408950 -13401 8626 -2300
60510 403778 408958 -13390 8624 -2303
60585 403815 408986 -13389 8637 -2307
60662 403850 409006 -13392 8645 -2313
60751 403896 409040 -13399 8657 -2306
60841 403963 409066 -13417 8680 -2308
60942 404010 409103 -13413 8674 -2311
61045 404045 409112 -13406 8654 -2306
61151 404105 409142 -13400 8641 -2303
60188 403676 408929 -13383 8665 -2339
60187 403695 408929 -13380 8659 -2338
60204 403721 408945 -13370 8655 -2342
60239 403756 408953 -13356 8655 -2338
60283 403790 408994 -13362 8650 -2329
60344 403832 409017 -13375 8640 -2324
60416 403871 409033 -13401 8657 -2319
60498 403924 409057 -13403 8664 -2315
60586 403967 409090 -13397 8669 -2318
60677 404021 409100 -13395 8661 -2330
60771 404070 409136 -13393 8652 -2338
60868 404122 409169 -13392 8641 -2329
60973 404187 409175 -13394 8635 -2314
61072 404239 409210 -13398 8634 -2306
61175 404284 409240 -13398 8628 -2303
61278 404334 409261 -13412 8644 -2303
61379 404372 409296 -13422 8662 -2306
61481 404412 409311 -13426 8649 -2289
61579 404455 409334 -13435 8633 -2265
61678 404517 409360 -13434 8618 -2260
61784 404570 409383 -13428 8605 -2275
61892 404618 409416 -13413 8609 -2290
62004 404661 409426 -13413 8614 -2290
62111 404723 409453 -13430 8610 -2284
62188 404747 409462 -13417 8621 -2283
62159 404679 409419 -13398 8636 -2302
61987 404530 409340 -13399 8651 -2312
61691 404319 409217 -13394 8652 -2294
61364 404135 409142 -13380 8644 -2273
61076 404004 409090 -13374 8661 -2277
60486 403923 409008 -13390 8628 -2315
60437 403900 408981 -13363 8632 -2335
60391 403876 408960 -13368 8647 -2363
60357 403866 408971 -13374 8667 -2375
60342 403870 409001 -13359 8667 -2377
60348 403891 408995 -13366 8660 -2373
60375 403910 408993 -13374 8673 -2372
60421 403939 409006 -13365 8668 -2370
60477 403974 409019 -13372 8652 -2356
60541 404013 409058 -13392 8644 -2333
60615 404069 409079 -13400 8631 -2315
60698 404120 409078 -13406 8618 -2321
60789 404157 409113 -13415 8615 -2333
60888 404213 409136 -13419 8625 -2333
60988 404262 409164 -13415 8635 -2334
61095 404314 409173 -13395 8634 -2333
61206 404363 409201 -13396 8659 -2346
61315 404403 409234 -13415 8659 -2348
61424 404470 409265 -13393 8638 -2349
61529 404524 409289 -13368 8632 -2344
61468 404269 409144 -13347 8646 -2361
61233 404166 409085 -13386 8675 -2365
61069 404126 409063 -13404 8674 -2366
60957 404087 409038 -13398 8664 -2366
60895 404093 409032 -13391 8662 -2361
60862 404098 409040 -13388 8668 -2356
60850 404117 409053 -13385 8652 -2348
60876 404164 409077 -13392 8614 -2342
60931 404204 409091 -13400 8607 -2334
60972 404236 409106 -13407 8617 -2333
60984 404240 409102 -13410 8613 -2332
60966 404221 409090 -13401 8608 -2337
60932 404191 409066 -13399 8616 -2354
60892 404174 409058 -13399 8616 -2368
60864 404171 409055 -13392 8624 -2376
60849 404171 409058 -13394 8668 -2363
60853 404179 409069 -13379 8648 -2368
60879 404211 409075 -13380 8637 -2374
60918 404227 409077 -13386 8629 -2379
60968 404263 409101 -13380 8625 -2373
61030 404309 409123 -13370 8632 -2370
61102 404351 409151 -13372 8649 -2373
61182 404387 409184 -13371 8660 -2379
61276 404430 409196 -13364 8656 -2379
61374 404487 409224 -13356 8683 -2394
61467 404538 409251 -13354 8658 -2376
61568 404587 409269 -13369 8636 -2374
61674 404633 409304 -13376 8629 -2363
61780 404691 409335 -13383 8630 -2337
61883 404734 409344 -13390 8630 -2334
62041 404599 409269 -13392 8666 -2368
61756 404457 409206 -13400 8673 -2356
61523 404363 409151 -13395 8686 -2353
61354 404303 409123 -13391 8691 -2378
61242 404274 409105 -13370 8665 -2388
61165 404267 409106 -13352 8631 -2372
61122 404269 409105 -13353 8621 -2358
61096 404278 409111 -13361 8626 -2349
61107 404301 409134 -13381 8640 -2348
61144 404339 409148 -13388 8644 -2353
61170 404353 409143 -13376 8651 -2350
61186 404348 409142 -13371 8668 -2350
61169 404341 409143 -13365 8668 -2365
61128 404331 409123 -13370 8686 -2383
61089 404309 409127 -13384 8693 -2384
61052 404289 409117 -13375 8665 -2380
61037 404294 409120 -13356 8649 -2378
61040 404303 409116 -13363 8647 -2371
61062 404314 409126 -13386 8658 -2348
61101 404332 409141 -13388 8657 -2325
61150 404378 409154 -13403 8645 -2319
61210 404410 409179 -13422 8647 -2328
61287 404445 409183 -13413 8649 -2347
61365 404488 409217 -13394 8681 -2373
61456 404544 409246 -13390 8672 -2360
61548 404596 409260 -13383 8660 -2357
61651 404650 409280 -13364 8643 -2346
61752 404703 409314 -13384 8635 -2328
61856 404741 409350 -13411 8652 -2312
61966 404795 409355 -13412 8656 -2310
62714 405148 409590 -13324 8670 -2501
62451 405038 409566 -13316 8710 -2618
62180 404934 409537 -13296 8749 -2794
61956 404883 409531 -13278 8800 -2964
61804 404904 409551 -13310 8811 -2989
61715 404931 409599 -13350 8771 -2958
61673 404936 409589 -13368 8725 -2984
61661 404888 409559 -13377 8660 -3068
61666 404819 409504 -13351 8596 -3198
61705 404762 409445 -13362 8521 -3220
61788 404728 409414 -13427 8451 -3202
61882 404707 409386 -13464 8410 -3230
61963 404694 409370 -13513 8393 -3254
62018 404660 409370 -13554 8378 -3316
62054 404625 409352 -13532 8338 -3422
62084 404615 409357 -13511 8292 -3519
62125 404649 409391 -13495 8247 -3589
62169 404650 409398 -13458 8207 -3681
62241 404702 409432 -13376 8168 -3772
62328 404736 409410 -13268 8138 -3846
62426 404777 409407 -13225 8126 -3920
62519 404811 409439 -13271 8106 -3998
62615 404858 409460 -13314 8055 -4047
62700 404874 409445 -13494 7926 -3958
62797 404851 409381 -13579 7933 -3942
62918 404835 409378 -13603 7981 -3921
63034 404717 409313 -13637 7999 -3921
63155 404594 409244 -13646 8005 -3959
63288 404479 409161 -13585 8026 -3979
63412 404257 409033 -13549 8051 -4066
63545 404165 408996 -13525 8079 -4200
63703 404146 408994 -13477 8119 -4222
63872 404225 409049 -13375 8161 -4165
64052 404356 409159 -13246 8231 -4213
64228 404549 409276 -13188 8296 -4233
64399 404766 409402 -13213 8334 -4259
64563 404957 409513 -13264 8333 -4281
64709 405104 409576 -13265 8315 -4212
64848 405231 409640 -13219 8310 -4095
64973 405356 409703 -13206 8329 -4005
65051 405423 409725 -13281 8333 -3926
65021 405434 409706 -13383 8330 -3860
64877 405377 409666 -13459 8340 -3798
64648 405249 409559 -13484 8323 -3764
64390 405100 409451 -13472 8290 -3747
64162 404967 409347 -13469 8272 -3743
63978 404866 409257 -13477 8249 -3715
63828 404742 409145 -13487 8221 -3653
63709 404664 409056 -13482 8205 -3617
63612 404597 408990 -13464 8205 -3633
63546 404570 408960 -13456 8213 -3676
63520 404520 408915 -13429 8203 -3712
63518 404458 408873 -13382 8199 -3697
63506 404319 408785 -13375 8215 -3681
63468 404162 408683 -13390 8229 -3683
63410 404023 408615 -13420 8234 -3670
63348 403919 408571 -13441 8237 -3645
63292 403815 408519 -13425 8250 -3618
63243 403699 408466 -13396 8270 -3671
63214 403636 408440 -13370 8296 -3723
63208 403608 408440 -13327 8322 -3708
63229 403671 408484 -13302 8334 -3702
63260 403731 408549 -13328 8368 -3716
63308 403810 408627 -13321 8387 -3713
63391 403964 408756 -13288 8365 -3650
63500 404134 408863 -13317 8337 -3530
63628 404252 408967 -13390 8306 -3381
63756 404332 409024 -13441 8286 -3233
63887 404403 409088 -13468 8282 -3144
64014 404383 409111 -13482 8302 -3168
64124 404267 409073 -13498 8327 -3233
64235 404186 409051 -13577 8320 -3181
64369 404229 409087 -13664 8286 -2931
64502 404236 409093 -13622 8278 -2959
64616 404225 409083 -13607 8269 -3019
64740 404246 409080 -13566 8268 -3066
64869 404259 409076 -13531 8276 -3150
64978 404237 409023 -13536 8268 -3196
65099 404259 409027 -13583 8235 -3094
65219 404295 409047 -13583 8225 -3097
65342 404349 409080 -13531 8239 -3189
65418 404416 409111 -13546 8258 -3222
65406 404425 409113 -13609 8281 -3244
65262 404379 409067 -13643 8289 -3230
65037 404301 409015 -13660 8288 -3185
64799 404252 408993 -13645 8297 -3176
64602 404232 408992 -13595 8303 -3233
64458 404223 408973 -13528 8299 -3259
64364 404221 408971 -13464 8299 -3267
64302 404216 408953 -13450 8293 -3237
65043 405397 409579 -13966 8170 -2381
65148 405470 409641 -13981 8155 -2363
65250 405549 409705 -13928 8109 -2384
65344 405561 409728 -13913 8121 -2394
65440 405590 409755 -13911 8131 -2408
65527 405617 409793 -13882 8142 -2430
65623 405666 409840 -13832 8151 -2428
65716 405716 409865 -13793 8159 -2442
65810 405751 409888 -13771 8170 -2466
65904 405795 409915 -13771 8180 -2489
65990 405789 409921 -13805 8178 -2484
66073 405777 409888 -13828 8156 -2500
66132 405720 409816 -13790 8176 -2579
66127 405619 409722 -13790 8204 -2687
66016 405569 409637 -13820 8208 -2751
65785 405442 409516 -13894 8173 -2702
65458 405262 409372 -13950 8126 -2582
65110 405117 409278 -13901 8097 -2524
64835 405039 409247 -13813 8103 -2574
64656 405046 409285 -13751 8112 -2618
64560 405137 409379 -13741 8107 -2596
64528 405270 409500 -13843 8077 -2585
64546 405412 409621 -13905 8083 -2670
64594 405502 409694 -13812 8132 -2851
64652 405505 409714 -13674 8182 -2938
64698 405525 409740 -13602 8218 -2877
64726 405535 409763 -13623 8225 -2838
64731 405558 409757 -13631 8239 -2894
64706 405526 409728 -13590 8259 -2952
64666 405465 409688 -13618 8236 -2853
64635 405415 409652 -13731 8186 -2673
64623 405434 409646 -13773 8187 -2683
64637 405464 409646 -13713 8222 -2802
64651 405454 409633 -13676 8225 -2816
64677 405457 409651 -13716 8208 -2767
64723 405509 409665 -13752 8200 -2725
64780 405576 409701 -13729 8197 -2722
64839 405647 409748 -13670 8189 -2752
64910 405735 409770 -13624 8189 -2802
64982 405812 409800 -13612 8198 -2864
65047 405918 409850 -13613 8203 -2891
65114 406047 409898 -13708 8166 -2798
65177 406148 409943 -13799 8162 -2762
65228 406218 409970 -13898 8155 -2734
65275 406261 409993 -13963 8152 -2732
65323 406289 409979 -13991 8148 -2718
65362 406304 409974 -13988 8140 -2719
65403 406315 409989 -13922 8133 -2766
65435 406299 409966 -13862 8124 -2804
65464 406240 409912 -13815 8126 -2837
65493 406180 409873 -13660 8146 -2948
65517 406161 409853 -13586 8173 -2981
65499 406141 409844 -13534 8209 -3039
65374 406115 409827 -13515 8229 -3057
65117 405991 409781 -13517 8252 -3022
64747 405797 409683 -13523 8264 -2972
64357 405625 409604 -13529 8268 -2907
64013 405460 409524 -13547 8282 -2832
63748 405363 409479 -13563 8301 -2787
63546 405289 409440 -13553 8350 -2797
63403 405253 409418 -13532 8397 -2801
63302 405230 409412 -13514 8402 -2759
63244 405224 409406 -13517 8392 -2718
63237 405237 409427 -13523 8387 -2693
63247 405239 409426 -13518 8384 -2667
63247 405244 409409 -13515 8385 -2618
63221 405246 409421 -13540 8371 -2539
63165 405188 409397 -13567 8343 -2470
63093 405143 409365 -13565 8338 -2448
63020 405111 409347 -13564 8341 -2445
62951 405085 409339 -13579 8348 -2424
62897 405048 409328 -13591 8337 -2390
62861 405045 409330 -13603 8308 -2360
62846 405043 409344 -13623 8296 -2347
62850 405046 409350 -13629 8294 -2337
62866 405042 409364 -13629 8299 -2317
62896 405074 409369 -13621 8301 -2302
62940 405105 409403 -13619 8296 -2288
62996 405127 409419 -13637 8293 -2261
63059 405167 409443 -13654 8310 -2244
64035 405652 409725 -13684 8362 -2196
64072 405634 409728 -13685 8347 -2200
63986 405583 409687 -13679 8338 -2217
63755 405453 409620 -13676 8336 -2220
63411 405250 409519 -13665 8346 -2223
63038 405041 409397 -13650 8352 -2225
62715 404868 409280 -13635 8352 -2222
62460 404735 409220 -13619 8355 -2217
62266 404649 409157 -13602 8356 -2214
62128 404576 409114 -13618 8377 -2207
62023 404520 409085 -13648 8392 -2198
61962 404508 409087 -13648 8390 -2211
61960 404543 409087 -13640 8398 -2237
61994 404626 409141 -13634 8396 -2253
62039 404710 409205 -13637 8381 -2263
62057 404754 409242 -13637 8359 -2263
62035 404734 409231 -13621 8342 -2261
61985 404659 409199 -13618 8334 -2261
61924 404620 409164 -13609 8330 -2261
61871 404599 409143 -13618 8321 -2266
61842 404620 409143 -13639 8307 -2242
61829 404643 409177 -13650 8298 -2207
61830 404679 409189 -13648 8301 -2206
61851 404694 409181 -13611 8319 -2257
61879 404689 409165 -13582 8350 -2341
61910 404646 409153 -13581 8350 -2355
61945 404580 409121 -13624 8315 -2302
61996 404564 409105 -13666 8291 -2272
62062 404568 409112 -13641 8289 -2293
62147 404598 409140 -13564 8328 -2375
62248 404620 409152 -13563 8346 -2393
62364 404652 409206 -13669 8303 -2340
62482 404690 409243 -13715 8272 -2358
62602 404763 409308 -13707 8271 -2411
62726 404850 409380 -13741 8262 -2411
62854 404919 409415 -13812 8235 -2376
62974 405000 409456 -13838 8219 -2382
63096 405054 409477 -13771 8226 -2433
63213 405129 409521 -13678 8240 -2499
63318 405230 409575 -13629 8245 -2535
63363 405236 409591 -13689 8274 -2572
63276 405174 409543 -13641 8290 -2580
63040 405010 409459 -13551 8308 -2595
62702 404818 409328 -13501 8338 -2603
62358 404610 409236 -13509 8353 -2563
62074 404491 409158 -13544 8363 -2524
61869 404439 409108 -13534 8379 -2503
61732 404464 409099 -13477 8402 -2515
61632 404461 409094 -13461 8430 -2554
61559 404461 409085 -13500 8519 -2619
61525 404454 409086 -13499 8520 -2575
61538 404483 409113 -13489 8496 -2545
61565 404499 409123 -13478 8465 -2529
61578 404510 409145 -13476 8436 -2518
61573 404512 409172 -13506 8397 -2490
61532 404492 409161 -13549 8354 -2454
61465 404454 409168 -13559 8329 -2442
61396 404388 409145 -13540 8328 -2468
61335 404339 409125 -13596 8358 -2543
61299 404313 409116 -13625 8354 -2522
61280 404296 409095 -13634 8341 -2491
61284 404296 409092 -13622 8336 -2483
61304 404305 409086 -13582 8333 -2503
61339 404326 409095 -13541 8341 -2527
61386 404350 409099 -13525 8348 -2532
61446 404384 409121 -13530 8357 -2519
61510 404415 409125 -13529 8374 -2516
61583 404458 409133 -13526 8406 -2527
61666 404488 409148 -13528 8465 -2544
61753 404526 409172 -13523 8487 -2538
61847 404584 409186 -13522 8459 -2527
61938 404618 409227 -13513 8447 -2533
62034 404664 409244 -13498 8442 -2530
62129 404704 409240 -13486 8422 -2519
62225 404742 409257 -13476 8409 -2509
62322 404782 409311 -13486 8399 -2481
62419 404843 409347 -13513 8383 -2455
62515 404867 409339 -13539 8386 -2446
62606 404919 409366 -13546 8424 -2449
62681 404932 409371 -13535 8444 -2447
60352 403678 408730 -13497 8466 -2436
60360 403680 408745 -13484 8459 -2430
60384 403689 408747 -13470 8449 -2437
60416 403706 408778 -13458 8449 -2459
60463 403733 408792 -13450 8451 -2464
60527 403765 408798 -13453 8439 -2455
60602 403822 408822 -13466 8427 -2447
60684 403827 408842 -13486 8433 -2456
60761 403888 408878 -13509 8441 -2460
60853 403958 408921 -13506 8432 -2446
60947 404006 408940 -13486 8423 -2435
61048 404045 408943 -13483 8420 -2439
61151 404091 408981 -13486 8430 -2445
61248 404138 409005 -13475 8448 -2433
61343 404190 409024 -13477 8463 -2424
61436 404227 409056 -13494 8480 -2423
61529 404270 409080 -13494 8504 -2420
61625 404314 409096 -13485 8514 -2423
61721 404344 409115 -13491 8537 -2431
61812 404389 409142 -13493 8549 -2428
61898 404426 409158 -13483 8536 -2401
61943 404418 409167 -13473 8532 -2385
61858 404323 409103 -13474 8529 -2382
61614 404133 409000 -13480 8534 -2380
61267 403921 408885 -13481 8529 -2380
60908 403713 408789 -13481 8513 -2378
60603 403576 408742 -13468 8507 -2372
60368 403487 408690 -13462 8509 -2357
60206 403435 408664 -13510 8562 -2380
60090 403412 408636 -13516 8555 -2370
59716 403315 408579 -13468 8501 -2398
59692 403315 408590 -13461 8514 -2393
59689 403315 408562 -13462 8525 -2402
59703 403335 408565 -13457 8526 -2412
59737 403360 408585 -13457 8524 -2418
59774 403377 408591 -13455 8526 -2424
59833 403431 408608 -13448 8550 -2425
59904 403474 408636 -13446 8572 -2426
59983 403516 408656 -13447 8556 -2421
60072 403566 408678 -13446 8537 -2418
60166 403609 408688 -13433 8540 -2414
60256 403664 408717 -13416 8543 -2418
60351 403716 408738 -13415 8541 -2423
60440 403755 408753 -13429 8540 -2429
60534 403801 408788 -13436 8532 -2438
60624 403840 408804 -13431 8518 -2442
60713 403885 408834 -13438 8505 -2439
60809 403936 408853 -13455 8511 -2432
60902 403976 408875 -13447 8492 -2412
60984 404019 408882 -13432 8455 -2388
61007 403996 408873 -13445 8442 -2372
60899 403886 408815 -13472 8437 -2364
60656 403702 408707 -13482 8447 -2363
60341 403515 408624 -13485 8458 -2363
60046 403367 408537 -13484 8463 -2372
59809 403265 408479 -13472 8492 -2395
59640 403222 408459 -13480 8537 -2414
59535 403220 408469 -13473 8596 -2457
59474 403219 408481 -13439 8561 -2431
59438 403222 408467 -13418 8516 -2399
59440 403244 408479 -13418 8484 -2378
59481 403298 408480 -13432 8474 -2374
59545 403345 408513 -13452 8481 -2371
59582 403350 408503 -13469 8505 -2375
59588 403348 408521 -13490 8520 -2396
59564 403316 408515 -13488 8512 -2404
59520 403308 408513 -13475 8506 -2447
59480 403275 408487 -13459 8473 -2448
59450 403270 408485 -13452 8450 -2440
59440 403271 408494 -13447 8454 -2425
59452 403293 408518 -13450 8458 -2410
59478 403311 408535 -13467 8468 -2403
59519 403352 408556 -13475 8472 -2410
59569 403369 408567 -13473 8486 -2407
59635 403411 408589 -13473 8524 -2391
59713 403449 408609 -13468 8582 -2408
59796 403494 408634 -13456 8578 -2416
59889 403552 408659 -13445 8555 -2406
59988 403595 408714 -13437 8536 -2386
60092 403649 408742 -13431 8527 -2370
60199 403715 408791 -13436 8531 -2357
60305 403757 408798 -13442 8544 -2358
60410 403817 408823 -13437 8559 -2364
60515 403856 408852 -13436 8555 -2359
60625 403916 408865 -13451 8552 -2356
60737 403970 408910 -13475 8565 -2371
60844 404030 408938 -13483 8558 -2360
60928 404058 408958 -13502 8543 -2323
60937 404011 408930 -13517 8536 -2311
60808 403885 408846 -13508 8517 -2300
60539 403688 408754 -13487 8501 -2291
60205 403480 408656 -13467 8507 -2304
59901 403326 408585 -13478 8518 -2321
59663 403247 408537 -13501 8552 -2335
59491 403209 408507 -13513 8579 -2342
59379 403185 408474 -13528 8597 -2335
59306 403182 408458 -13530 8585 -2329
59253 403186 408459 -13515 8529 -2336
59226 403183 408485 -13495 8491 -2341
59236 403232 408487 -13470 8475 -2347
59272 403250 408489 -13458 8463 -2350
59307 403291 408508 -13458 8454 -2354
59312 403272 408481 -13434 8444 -2368
59297 403268 408478 -13414 8438 -2386
59258 403244 408471 -13428 8448 -2399
59212 403219 408473 -13434 8540 -2450
59181 403213 408460 -13420 8542 -2445
59164 403209 408458 -13420 8540 -2434
59168 403213 408452 -13425 8535 -2419
59192 403241 408490 -13424 8532 -2418
59233 403262 408487 -13421 8534 -2424
59285 403304 408515 -13432 8535 -2412
59358 403328 408512 -13441 8551 -2410
59437 403390 408530 -13437 8565 -2413
59530 403447 408566 -13450 8586 -2477
59627 403483 408582 -13438 8592 -2474
59740 403538 408617 -13415 8588 -2457
59846 403600 408629 -13394 8572 -2440
59962 403650 408671 -13395 8550 -2427
60078 403723 408684 -13397 8548 -2422
60191 403773 408716 -13391 8548 -2423
60300 403825 408744 -13395 8543 -2426
60411 403877 408777 -13409 8535 -2426
60516 403928 408810 -13432 8551 -2423
60631 403991 408829 -13442 8561 -2417
60746 404023 408857 -13442 8546 -2403
60853 404077 408886 -13457 8544 -2384
60943 404113 408900 -13467 8540 -2374
60953 404067 408893 -13476 8529 -2366
60824 403925 408817 -13471 8515 -2350
59280 403270 408488 -13460 8523 -2327
59309 403282 408513 -13458 8537 -2332
59314 403285 408515 -13472 8564 -2349
59287 403264 408493 -13483 8593 -2372
59248 403242 408474 -13465 8600 -2387
59206 403224 408465 -13436 8584 -2383
59174 403214 408469 -13429 8582 -2379
59154 403217 408476 -13439 8580 -2381
59165 403221 408478 -13441 8568 -2386
59192 403263 408481 -13436 8552 -2391
59236 403282 408488 -13433 8543 -2377
59293 403315 408508 -13441 8549 -2362
59369 403355 408522 -13463 8562 -2366
59450 403407 408542 -13475 8583 -2380
59549 403455 408575 -13470 8591 -2393
59655 403510 408604 -13447 8570 -2390
59762 403562 408638 -13419 8548 -2389
59868 403616 408675 -13416 8544 -2375
59982 403666 408705 -13430 8554 -2358
60097 403738 408718 -13430 8557 -2360
61238 404216 408932 -13409 8536 -2364
61104 404067 408868 -13406 8573 -2379
60852 403881 408764 -13441 8665 -2430
60552 403695 408676 -13432 8664 -2422
60290 403565 408614 -13414 8650 -2417
60088 403499 408567 -13394 8653 -2411
59955 403456 408552 -13373 8640 -2399
59866 403438 408517 -13365 8625 -2396
59810 403433 408514 -13361 8624 -2390
59784 403436 408515 -13366 8637 -2388
59779 403458 408519 -13376 8653 -2403
59820 403494 408538 -13378 8672 -2428
59870 403544 408546 -13385 8691 -2462
59902 403573 408540 -13374 8692 -2488
59911 403568 408535 -13339 8680 -2490
59888 403564 408515 -13320 8671 -2494
59858 403557 408534 -13317 8680 -2498
59829 403597 408562 -13318 8690 -2508
59822 403628 408594 -13305 8701 -2548
59835 403699 408605 -13267 8718 -2597
61146 404818 409396 -13449 8257 -3063
61327 404877 409404 -13465 8206 -3115
61516 404984 409436 -13475 8217 -3199
61692 405088 409431 -13475 8258 -3346
61852 405157 409437 -13497 8238 -3398
61991 405257 409430 -13529 8186 -3330
62123 405302 409428 -13612 8141 -3314
62264 405367 409443 -13686 8122 -3327
62411 405437 409465 -13658 8124 -3324
62566 405525 409506 -13607 8142 -3391
62694 405609 409556 -13575 8166 -3493
62727 405580 409545 -13556 8177 -3538
62639 405400 409464 -13555 8183 -3553
62447 405119 409342 -13576 8191 -3573
62221 404841 409210 -13593 8209 -3583
62026 404661 409132 -13624 8229 -3556
61913 404592 409110 -13607 8246 -3484
61861 404624 409149 -13506 8260 -3445
61844 404665 409201 -13414 8275 -3532
61844 404673 409222 -13374 8285 -3648
61869 404660 409248 -13341 8271 -3723
61934 404702 409278 -13351 8235 -3565
62030 404777 409310 -13490 8165 -3258
62126 404835 409371 -13504 8176 -3271
62211 404895 409422 -13539 8176 -3241
62278 404944 409432 -13575 8178 -3228
62336 405030 409480 -13583 8184 -3241
62393 405131 409507 -13598 8191 -3244
62443 405199 409522 -13661 8171 -3200
62499 405289 409544 -13740 8130 -3120
62561 405380 409564 -13789 8101 -3045
62630 405500 409607 -13826 8063 -3028
62723 405602 409653 -13813 8045 -3068
62828 405722 409699 -13757 8066 -3140
62939 405802 409738 -13727 8073 -3196
63062 405894 409799 -13756 8067 -3181
63196 405965 409857 -13798 8067 -3156
63332 406027 409922 -13798 8069 -3140
63466 406051 409925 -13790 8073 -3125
63597 406006 409929 -13746 8090 -3179
65015 406181 410076 -13627 8189 -3068
65044 406200 410089 -13603 8199 -3057
64984 406180 410057 -13609 8229 -3049
64850 406145 410033 -13601 8236 -3098
64670 405983 409942 -13559 8244 -3134
64497 405839 409852 -13555 8237 -3089
64378 405763 409784 -13576 8220 -3041
64304 405739 409771 -13547 8200 -3020
64279 405810 409821 -13545 8136 -2837
64294 405895 409907 -13600 8092 -2737
64348 406094 410064 -13637 8113 -2802
64454 406367 410249 -13854 8122 -2886
64572 406513 410354 -14007 8140 -2909
64661 406567 410403 -14135 8131 -2770
64729 406612 410427 -14155 8132 -2710
64784 406713 410480 -14058 8171 -2848
64830 406784 410507 -13998 8200 -2984
64860 406796 410488 -13979 8182 -2912
64899 406813 410461 -13980 8133 -2774
64946 406824 410433 -13881 8124 -2820
65004 406834 410388 -13727 8124 -2953
65064 406817 410340 -13625 8113 -3105
65132 406795 410290 -13558 8122 -3264
65200 406793 410263 -13521 8139 -3362
65273 406802 410239 -13527 8149 -3405
65348 406822 410233 -13539 8154 -3430
65423 406858 410250 -13505 8155 -3453
65498 406872 410249 -13469 8152 -3468
65574 406928 410279 -13479 8161 -3463
65646 406960 410301 -13504 8179 -3424
65707 406984 410313 -13516 8209 -3376
65766 406975 410266 -13501 8277 -3357
65829 406951 410240 -13447 8340 -3337
65894 406964 410247 -13393 8370 -3290
65959 406971 410233 -13375 8402 -3288
66019 406952 410218 -13363 8459 -3352
66077 406929 410183 -13316 8513 -3408
66143 406926 410170 -13264 8544 -3410
66204 406932 410176 -13201 8554 -3366
66262 406957 410174 -13160 8562 -3311
66273 406981 410185 -13176 8591 -3275
66183 406988 410184 -13308 8631 -3195
65954 406920 410122 -13360 8566 -3109
65597 406741 410012 -13407 8525 -3019
65236 406574 409931 -13423 8492 -2960
64946 406370 409847 -13426 8442 -2903
64729 406079 409689 -13438 8393 -2839
64583 405814 409552 -13451 8362 -2779
64496 405590 409452 -13484 8371 -2783
64444 405433 409376 -13506 8382 -2853
64431 405279 409298 -13497 8398 -2921
64463 405193 409243 -13469 8421 -2915
64516 405075 409196 -13456 8396 -2862
64557 404965 409139 -13486 8378 -2828
64580 404861 409098 -13481 8400 -2830
64579 404838 409080 -13438 8418 -2867
64573 404842 409076 -13422 8423 -2887
64558 404883 409096 -13390 8438 -2942
64550 404940 409122 -13332 8459 -3062
64553 405043 409146 -13295 8494 -3198
64566 405117 409169 -13449 8399 -2937
64574 405134 409173 -13457 8406 -2860
64588 405187 409204 -13402 8432 -2937
64612 405209 409218 -13432 8448 -2974
64645 405218 409238 -13507 8439 -2952
64692 405285 409295 -13558 8417 -2912
64752 405385 409381 -13554 8404 -2903
64811 405495 409440 -13502 8396 -2915
64870 405557 409479 -13425 8391 -2929
64942 405649 409515 -13363 8409 -2976
65036 405782 409597 -13348 8450 -3022
65135 405901 409665 -13361 8457 -3013
65224 405968 409701 -13404 8436 -2921
65316 406022 409730 -13438 8437 -2848
65425 406072 409761 -13419 8476 -2861
65525 406124 409801 -13370 8506 -2862
65631 406194 409850 -13346 8502 -2857
65739 406276 409916 -13334 8514 -2858
65823 406313 409963 -13295 8549 -2848
65831 406297 409966 -13278 8578 -2870
65731 406272 409951 -13327 8620 -2898
65512 406190 409920 -13392 8653 -2865
65197 406045 409833 -13420 8636 -2787
64864 405884 409725 -13427 8618 -2768
64586 405792 409672 -13408 8599 -2813
64383 405773 409647 -13421 8536 -2790
64248 405835 409656 -13503 8453 -2720
64144 405864 409642 -13530 8419 -2725
64075 405876 409637 -13466 8419 -2814
64046 405884 409628 -13429 8403 -2903
64055 405895 409622 -13327 8620 -2898
64076 405888 409614 -13392 8653 -2865
64089 405871 409617 -13420 8636 -2787
64062 405826 409606 -13427 8618 -2768
64008 405768 409579 -13408 8599 -2813
63936 405665 409533 -13421 8536 -2790
63872 405595 409520 -13503 8453 -2720
63834 405589 409515 -13530 8419 -2725
63821 405583 409536 -13466 8419 -2814
63830 405582 409551 -13429 8403 -2903
64435 405726 409492 -13355 8414 -3178
64540 405890 409619 -13341 8426 -3231
64665 406105 409790 -13352 8419 -3268
64785 406219 409873 -13399 8380 -3233
64886 406279 409943 -13522 8321 -3162
64972 406308 409982 -13620 8272 -3066
65044 406350 410013 -13587 8247 -2974
65037 406326 409998 -13504 8239 -3023
64907 406232 409942 -13466 8227 -3044
64639 406037 409842 -13525 8191 -2921
64286 405808 409699 -13668 8161 -2852
63937 405623 409597 -13688 8169 -2918
63662 405471 409522 -13579 8197 -3048
63455 405369 409465 -13587 8202 -3024
63319 405336 409437 -13685 8194 -2871
63231 405368 409419 -13748 8203 -2806
63165 405409 409430 -13756 8234 -2844
63141 405491 409463 -13732 8256 -2870
63154 405527 409484 -13726 8250 -2819
63165 405553 409511 -13748 8236 -2751
63164 405569 409517 -13745 8246 -2773
63129 405534 409547 -13681 8251 -2852
63064 405480 409535 -13617 8229 -2836
62983 405405 409536 -13635 8202 -2772
62915 405370 409541 -13708 8174 -2743
62859 405385 409577 -13743 8148 -2720
62819 405384 409625 -13701 8136 -2742
62798 405371 409638 -13636 8137 -2830
62795 405325 409627 -13640 8132 -2909
62806 405351 409620 -13697 8137 -2952
61772 404565 409122 -13751 8217 -2622
61615 404497 409028 -13737 8257 -2695
61501 404553 409029 -13760 8272 -2672
61422 404579 409032 -13769 8268 -2628
61378 404575 409023 -13719 8265 -2616
61377 404570 409021 -13653 8264 -2663
61388 404583 409018 -13588 8278 -2768
61375 404602 409028 -13549 8290 -2859
61332 404628 409044 -13626 8221 -2752
61259 404602 409037 -13726 8165 -2632
61171 404546 409031 -13677 8193 -2739
61078 404446 408990 -13558 8225 -2842
60994 404340 408938 -13536 8222 -2859
60931 404260 408887 -13629 8201 -2825
60888 404202 408845 -13748 8190 -2731
60857 404132 408804 -13786 8196 -2688
60844 404123 408781 -13731 8205 -2706
60839 404129 408756 -13682 8207 -2779
60839 404131 408741 -13557 8226 -2960
60855 404166 408763 -13523 8237 -2996
60886 404166 408748 -13493 8246 -3023
60922 404181 408745 -13462 8251 -3059
60966 404217 408765 -13498 8245 -3023
61028 404287 408807 -13595 8222 -2955
61107 404355 408847 -13653 8206 -2907
61195 404408 408903 -13723 8205 -2837
61285 404428 408948 -13803 8209 -2825
61370 404449 408968 -13882 8184 -2756
61433 404472 408989 -13865 8184 -2722
61387 404427 408982 -13776 8190 -2754
61193 404290 408931 -13695 8188 -2762
60881 404090 408854 -13669 8182 -2742
60556 403878 408759 -13643 8183 -2733
60274 403757 408676 -13609 8202 -2745
60058 403666 408632 -13606 8225 -2743
59900 403588 408606 -13616 8248 -2743
59795 403555 408584 -13694 8288 -2658
59730 403536 408583 -13701 8288 -2619
59695 403549 408585 -13649 8289 -2600
59711 403583 408609 -13594 8292 -2577
59760 403622 408620 -13569 8300 -2541
59800 403648 408626 -13574 8312 -2511
59822 403654 408629 -13573 8316 -2490
59802 403627 408628 -13566 8316 -2452
59761 403589 408614 -13564 8320 -2419
59710 403539 408591 -13568 8332 -2406
59661 403516 408596 -13585 8339 -2409
59630 403479 408606 -13594 8339 -2413
59621 403487 408598 -13590 8343 -2394
59632 403485 408593 -13604 8333 -2361
60502 403956 408860 -13675 8310 -2220
60615 404009 408886 -13649 8310 -2238
60733 404052 408907 -13635 8314 -2233
60848 404105 408931 -13639 8314 -2216
60958 404153 408976 -13655 8307 -2214
61039 404189 408976 -13658 8304 -2221
61014 404129 408940 -13679 8354 -2208
60824 403966 408842 -13680 8335 -2210
60504 403756 408725 -13667 8315 -2206
60156 403540 408639 -13646 8312 -2217
59256 403265 408546 -13607 8314 -2312
59338 403305 408572 -13623 8316 -2304
59430 403364 408597 -13635 8322 -2305
59528 403418 408626 -13634 8328 -2318
59636 403471 408636 -13625 8339 -2322
59739 403526 408668 -13614 8367 -2304
59848 403574 408709 -13604 8377 -2292
59956 403618 408725 -13589 8363 -2307
60068 403681 408749 -13582 8360 -2317
60177 403721 408788 -13588 8358 -2312
60282 403779 408809 -13585 8360 -2307
60389 403830 408825 -13581 8361 -2311
60500 403880 408867 -13584 8358 -2315
60599 403914 408878 -13580 8356 -2315
60684 403939 408890 -13568 8357 -2320
60682 403915 408877 -13614 8409 -2328
60541 403783 408825 -13591 8380 -2314
60261 403579 408708 -13569 8375 -2305
59931 403377 408597 -13576 8380 -2303
59638 403213 408522 -13592 8384 -2316
59405 403109 408471 -13592 8392 -2331
59237 403067 408439 -13580 8394 -2324
59119 403010 408436 -13569 8389 -2313
59025 402992 408412 -13557 8374 -2319
58964 402972 408416 -13560 8389 -2342
58932 402990 408442 -13566 8401 -2346
58952 403021 408459 -13551 8385 -2331
58983 403049 408451 -13559 8383 -2322
59006 403055 408451 -13586 8383 -2313
58996 403047 408446 -13585 8384 -2315
58965 403000 408445 -13573 8388 -2337
58918 402966 408432 -13569 8400 -2355
58871 402942 408422 -13560 8415 -2363
58834 402927 408416 -13553 8426 -2377
58818 402924 408405 -13527 8443 -2388
58824 402921 408410 -13513 8427 -2361
58844 402940 408415 -13503 8405 -2328
58881 402961 408429 -13506 8414 -2317
58939 403007 408459 -13514 8439 -2324
59008 403055 408481 -13523 8457 -2336
59089 403080 408505 -13530 8464 -2363
59184 403135 408533 -13538 8464 -2385
59286 403178 408550 -13542 8467 -2389
59390 403221 408550 -13536 8475 -2403
59497 403264 408592 -13516 8479 -2430
59600 403321 408629 -13505 8452 -2418
59705 403364 408648 -13511 8410 -2384
59805 403419 408667 -13527 8384 -2356
59910 403448 408705 -13530 8370 -2321
60012 403502 408715 -13528 8362 -2305
60120 403547 408737 -13551 8362 -2293
60229 403622 408761 -13579 8376 -2284
60336 403672 408793 -13601 8395 -2299
60427 403696 408822 -13600 8412 -2321
60449 403674 408807 -13605 8436 -2359
60327 403551 408735 -13598 8423 -2376
60071 403345 408618 -13560 8390 -2359
59765 403151 408535 -13548 8380 -2361
59484 403000 408472 -13558 8376 -2361
59265 402920 408426 -13568 8379 -2318
59111 402878 408407 -13582 8383 -2278
59017 402855 408369 -13598 8379 -2279
58949 402840 408373 -13596 8371 -2279
58899 402847 408381 -13583 8369 -2280
58884 402858 408373 -13588 8428 -2346
58914 402894 408388 -13568 8407 -2366
58968 402919 408389 -13561 8376 -2366
59002 402943 408405 -13555 8360 -2351
59009 402927 408410 -13551 8360 -2356
58988 402913 408365 -13556 8355 -2367
59454 403135 408471 -13558 8343 -2391
59570 403203 408522 -13567 8336 -2391
59684 403234 408535 -13581 8341 -2395
59798 403306 408584 -13592 8349 -2397
59918 403361 408614 -13590 8350 -2391
60039 403431 408637 -13581 8343 -2387
60157 403488 408672 -13580 8332 -2381
60271 403566 408701 -13572 8326 -2380
60380 403599 408723 -13570 8337 -2383
60484 403676 408738 -13590 8349 -2374
60582 403720 408773 -13586 8348 -2373
60629 403707 408747 -13556 8348 -2381
60553 403605 408684 -13545 8365 -2386
60352 403428 408599 -13566 8409 -2426
60083 403249 408510 -13585 8438 -2453
59826 403101 408441 -13578 8437 -2429
59626 403032 408402 -13546 8432 -2413
59482 402981 408399 -13518 8417 -2418
59385 402946 408384 -13506 8400 -2421
59326 402945 408374 -13488 8393 -2406
59357 403019 408428 -13513 8453 -2392
59380 403031 408442 -13511 8474 -2401
59420 403059 408470 -13503 8507 -2409
59466 403086 408472 -13497 8522 -2410
59527 403125 408465 -13492 8488 -2403
59600 403153 408497 -13496 8438 -2392
59682 403209 408545 -13501 8404 -2370
59766 403257 408567 -13520 8382 -2353
59862 403313 408582 -13540 8364 -2333
59961 403358 408616 -13538 8360 -2327
60932 403736 408812 -13542 8383 -2332
60743 403573 408720 -13542 8384 -2324
60444 403375 408609 -13567 8413 -2319
60109 403189 408531 -13585 8455 -2320
59812 403039 408462 -13582 8462 -2326
59585 402953 408416 -13560 8434 -2325
59420 402908 408376 -13527 8410 -2332
59295 402878 408356 -13509 8393 -2335
59204 402861 408362 -13512 8385 -2327
59128 402843 408364 -13513 8385 -2323
59088 402855 408354 -13519 8389 -2328
59090 402885 408370 -13534 8396 -2330
59116 402917 408393 -13544 8398 -2330
59126 402923 408396 -13577 8430 -2297
59113 402916 408391 -13570 8413 -2299
59072 402873 408381 -13564 8419 -2300
59017 402847 408358 -13556 8423 -2301
58963 402822 408339 -13532 8413 -2314
58928 402811 408333 -13514 8407 -2329
58910 402814 408343 -13511 8412 -2343
58911 402837 408353 -13516 8418 -2357
58937 402847 408370 -13532 8426 -2353
58969 402878 408372 -13574 8474 -2377
59019 402925 408404 -13562 8454 -2368
59083 402959 408416 -13543 8439 -2363
59157 403000 408427 -13533 8443 -2356
59241 403055 408455 -13513 8449 -2354
59333 403104 408485 -13502 8443 -2356
59432 403153 408532 -13505 8434 -2355
59530 403205 408539 -13504 8434 -2348
60675 403751 408812 -13555 8390 -2302
60679 403703 408769 -13576 8444 -2339
60548 403584 408682 -13575 8474 -2366
60286 403369 408571 -13540 8475 -2377
59970 403200 408463 -13515 8478 -2379
59684 403074 408422 -13501 8478 -2375
59466 403003 408376 -13497 8480 -2376
59312 402958 408361 -13503 8496 -2374
59198 402931 408336 -13498 8500 -2376
59122 402934 408318 -13484 8510 -2398
59073 402954 408319 -13477 8530 -2426
59054 402968 408333 -13476 8548 -2452
59072 403007 408348 -13468 8543 -2479
59110 403051 408351 -13448 8519 -2510
59133 403087 408364 -13411 8521 -2549
59129 403111 408359 -13378 8537 -2590
59095 403104 408347 -13375 8555 -2625
59054 403116 408337 -13351 8572 -2666
59027 403189 408355 -13299 8586 -2714
59012 403272 408381 -13296 8584 -2740
59022 403411 408408 -13321 8563 -2756
59050 403544 408456 -13362 8590 -2870
59101 403706 408550 -13354 8582 -2900
59165 403831 408606 -13365 8568 -2932
59250 403963 408693 -13409 8536 -2960
59358 404096 408777 -13444 8493 -2949
59486 404213 408873 -13461 8447 -2942
59619 404323 408957 -13461 8407 -2945
59759 404411 409018 -13445 8372 -2966
59894 404478 409062 -13420 8341 -3010
60038 404549 409111 -13410 8329 -3057
60183 404625 409149 -13413 8339 -3109
60334 404705 409181 -13402 8336 -3150
60489 404833 409258 -13401 8313 -3161
60652 404950 409334 -13423 8304 -3163
60817 405113 409400 -13449 8299 -3191
60978 405240 409438 -13482 8281 -3190
61131 405344 409475 -13506 8268 -3140
61293 405467 409547 -13484 8271 -3167
61464 405575 409581 -13416 8292 -3280
61630 405657 409613 -13388 8308 -3309
61782 405712 409615 -13440 8315 -3244
61880 405750 409609 -13501 8328 -3225
61860 405708 409583 -13511 8347 -3258
61703 405563 409525 -13501 8362 -3272
61457 405378 409440 -13489 8350 -3237
61199 405135 409315 -13486 8334 -3236
60974 404874 409201 -13504 8335 -3299
60791 404554 409040 -13506 8346 -3321
60654 404338 408907 -13454 8382 -3266
60572 404277 408869 -13320 8450 -3248
60553 404321 408909 -13219 8534 -3334
60573 404370 408951 -13207 8558 -3447
60624 404416 408992 -13234 8535 -3504
60689 404465 409009 -13271 8511 -3473
60739 404495 409031 -13301 8495 -3415
60759 404503 409018 -13295 8511 -3412
60751 404477 409015 -13258 8526 -3439
60719 404450 409003 -13235 8520 -3456
60681 404411 408984 -13229 8507 -3435
60659 404383 408972 -13241 8496 -3395
60665 404421 408968 -13266 8533 -3362
60694 404500 408993 -13273 8584 -3365
60751 404587 409029 -13284 8555 -3378
60817 404685 409063 -13342 8491 -3353
60885 404770 409084 -13391 8459 -3353
60947 404865 409095 -13379 8440 -3357
61021 404926 409103 -13343 8416 -3364
61101 405007 409124 -13355 8398 -3372
61190 405086 409171 -13386 8388 -3366
62216 404980 409009 -13278 8522 -3519
62242 404925 408976 -13296 8536 -3490
62160 404820 408926 -13251 8557 -3429
61948 404665 408848 -13221 8575 -3387
61681 404570 408799 -13238 8583 -3387
61416 404452 408766 -13241 8622 -3427
61198 404375 408728 -13242 8632 -3463
61027 404285 408701 -13250 8604 -3389
60896 404190 408656 -13247 8586 -3276
60796 404120 408622 -13213 8640 -3278
60731 404123 408607 -13196 8710 -3311
60701 404174 408603 -13224 8679 -3263
60708 404234 408618 -13246 8618 -3195
60735 404263 408610 -13205 8635 -3214
60761 404287 408596 -13160 8683 -3272
60767 404312 408580 -13190 8675 -3226
60740 404252 408574 -13227 8624 -3118
60692 404210 408559 -13223 8620 -3059
60645 404158 408533 -13196 8688 -3097
60609 404115 408508 -13163 8748 -3173
60593 404084 408505 -13196 8710 -3311
60602 404077 408503 -13224 8679 -3263
60637 404097 408513 -13246 8618 -3195
60688 404156 408548 -13205 8635 -3214
60756 404236 408597 -13160 8683 -3272
60835 404286 408639 -13190 8675 -3226
60929 404356 408689 -13227 8624 -3118
61032 404458 408739 -13223 8620 -3059
61146 404541 408800 -13196 8688 -3097
61264 404638 408835 -13163 8748 -3173
61384 404712 408882 -13155 8801 -3191
61512 404787 408942 -13111 8819 -3204
61636 404845 408956 -13073 8828 -3233
61748 404866 408954 -13061 8827 -3208
61862 404912 408968 -13080 8825 -3115
61975 405009 408983 -13112 8829 -3071
62090 405124 409027 -13121 8829 -3085
62201 405232 409062 -13110 8836 -3097
62299 405317 409097 -13091 8858 -3125
62386 405382 409113 -13098 8864 -3161
62436 405357 409092 -13114 8857 -3166
62384 405263 409030 -13112 8860 -3146
62201 405113 408940 -13122 8849 -3115
61918 404916 408837 -13115 8861 -3145
61637 404723 408748 -13123 8857 -3152
61403 404608 408678 -13231 8740 -3011
61231 404539 408660 -13311 8669 -2921
61119 404524 408662 -13253 8695 -2983
61051 404551 408675 -13231 8686 -3041
61011 404582 408693 -13385 8661 -2989
61003 404618 408711 -13375 8650 -3029
61033 404696 408760 -13320 8631 -3105
61092 404767 408820 -13264 8617 -3154
61152 404806 408835 -13226 8590 -3189
61188 404823 408846 -13190 8581 -3249
61185 404820 408838 -13157 8605 -3308
61156 404790 408812 -13132 8625 -3339
61108 404742 408784 -13117 8640 -3349
61061 404724 408779 -13117 8664 -3337
61031 404755 408805 -13123 8705 -3334
61047 404836 408867 -13108 8728 -3361
61093 404967 408990 -13084 8724 -3389
61173 405148 409130 -13077 8705 -3398
61281 405302 409257 -13079 8683 -3414
61375 405321 409277 -13097 8637 -3411
61461 405302 409281 -13172 8560 -3361
61567 405304 409283 -13240 8509 -3236
61684 405366 409305 -13244 8518 -3101
61817 405443 409342 -13251 8569 -3122
61952 405478 409337 -13332 8593 -3130
62087 405543 409381 -13451 8573 -3080
62229 405590 409399 -13445 8579 -3154
62368 405649 409428 -13355 8603 -3292
62500 405690 409460 -13339 8570 -3273
62624 405727 409476 -13351 8526 -3129
62743 405755 409494 -13307 8531 -3087
62848 405803 409527 -13256 8517 -3062
62951 405829 409541 -13255 8484 -3042
63042 405859 409537 -13293 8456 -3046
63124 405861 409538 -13356 8466 -3024
61539 404726 408903 -13566 8296 -2875
61577 404812 408947 -13533 8287 -2849
61628 404872 408989 -13526 8288 -2832
61664 404905 408997 -13525 8296 -2836
61675 404877 408968 -13495 8310 -2849
61654 404897 408968 -13468 8317 -2864
61615 404909 408966 -13466 8315 -2847
61574 404910 408944 -13466 8344 -2842
61550 404923 408948 -13458 8399 -2901
61549 404963 408990 -13431 8421 -2963
61575 405042 409067 -13431 8400 -2969
61628 405149 409153 -13452 8406 -2966
61696 405253 409223 -13449 8415 -2940
61764 405283 409238 -13495 8360 -2820
61830 405303 409250 -13524 8323 -2743
61905 405358 409283 -13469 8356 -2755
61988 405391 409290 -13459 8372 -2728
62076 405412 409285 -13504 8373 -2732
62169 405445 409287 -13533 8413 -2798
62263 405475 409294 -13498 8448 -2864
62371 405570 409332 -13445 8436 -2854
62477 405623 409332 -13463 8415 -2800
62578 405651 409342 -13448 8427 -2807
62686 405713 409360 -13386 8465 -2861
62802 405772 409413 -13365 8495 -2922
62916 405836 409435 -13416 8472 -2867
63030 405891 409498 -13516 8407 -2720
63135 405931 409518 -13578 8379 -2670
63236 405916 409527 -13510 8444 -2783
63296 405883 409505 -13540 8394 -2770
63269 405832 409467 -13546 8363 -2778
63118 405691 409397 -13530 8346 -2795
62865 405526 409298 -13502 8345 -2806
62594 405370 409207 -13451 8333 -2815
62370 405256 409129 -13431 8325 -2833
62199 405200 409087 -13439 8350 -2851
62092 405189 409061 -13438 8385 -2892
62026 405191 409043 -13446 8466 -2944
61991 405180 409033 -13434 8473 -2968
61991 405188 409020 -13444 8448 21867
62271 405124 409034 -13457 8348 -2906
62324 405149 409039 -13406 8369 -2914
62382 405179 409037 -13370 8415 -2980
62450 405227 409051 -13349 8445 -3077
62528 405282 409108 -13308 8474 -3132
62619 405372 409138 -13345 8506 -3046
62724 405430 409205 -13355 8505 -3028
62834 405491 409240 -13394 8459 -2930
62966 405606 409316 -13460 8404 -2814
63099 405704 409384 -13429 8419 -2810
63226 405737 409396 -13383 8434 -2816
63341 405795 409443 -13417 8429 -2774
63467 405872 409492 -13462 8432 -2791
63587 405925 409493 -13475 8441 -2842
63700 405931 409485 -13498 8457 -2753
63805 405973 409491 -13456 8481 -2791
63915 406046 409527 -13419 8488 -2843
63986 406047 409532 -13466 8427 -2728
63965 405974 409479 -13483 8388 -2667
63820 405878 409432 -13394 8426 -2759
63572 405751 409353 -13384 8434 -2787
63309 405601 409262 -13457 8403 -2746
63089 405486 409211 -13519 8381 -2698
62933 405418 409177 -13542 8382 -2685
62841 405395 409171 -13526 8400 -2732
62789 405400 409157 -13495 8392 -2756
62771 405429 409168 -13490 8357 -2727
62792 405461 409191 -13505 8332 -2719
62852 405512 409212 -13505 8324 -2712
62923 405546 409229 -13505 8333 -2711
62975 405560 409215 -13492 8347 -2735
63001 405545 409225 -13487 8351 -2757
62998 405543 409214 -13511 8348 -2783
62976 405504 409205 -13512 8376 -2808
62950 405476 409193 -13521 8415 -2830
62930 405453 409185 -13523 8411 -2835
62924 405438 409162 -13489 8377 -2840
62935 405408 409162 -13479 8350 -2867
62959 405396 409168 -13472 8340 -2874
63002 405418 409193 -13465 8327 -2856
63801 405573 409198 -13396 8563 -2613
63697 405545 409170 -13392 8565 -2613
63644 405528 409165 -13383 8562 -2607
63632 405506 409158 -13372 8561 -2613
63658 405536 409190 -13344 8564 -2609
63722 405591 409203 -13335 8573 -2593
63810 405628 409234 -13331 8573 -2586
63889 405655 409240 -13328 8583 -2571
63953 405691 409264 -13341 8592 -2555
63988 405706 409272 -13345 8603 -2545
64000 405710 409269 -13350 8628 -2532
63996 405692 409276 -13359 8643 -2514
63995 405694 409284 -13352 8660 -2514
63999 405691 409278 -13346 8669 -2557
64016 405684 409268 -13350 8663 -2579
64048 405716 409284 -13341 8663 -2554
64092 405737 409302 -13338 8674 -2528
64143 405755 409324 -13350 8678 -2504
64205 405794 409328 -13363 8676 -2486
64272 405811 409345 -13371 8675 -2470
64350 405859 409353 -13379 8673 -2445
64434 405903 409370 -13390 8673 -2419
64526 405943 409399 -13405 8681 -2412
64623 405985 409420 -13419 8684 -2470
64728 406036 409438 -13393 8651 -2463
64830 406065 409444 -13378 8628 -2468
64940 406120 409461 -13387 8605 -2471
65050 406162 409481 -13394 8575 -2463
65166 406219 409516 -13393 8556 -2454
65274 406257 409533 -13392 8550 -2454
65383 406315 409573 -13383 8550 -2455
65446 406340 409569 -13376 8549 -2452
65420 406293 409545 -13405 8625 -2507
65257 406191 409483 -13409 8645 -2516
64980 406034 409402 -13385 8655 -2520
64656 405848 409301 -13369 8656 -2546
64359 405687 409220 -13364 8658 -2566
64128 405560 409153 -13339 8652 -2570
63966 405479 409107 -13315 8645 -2565
63854 405425 409065 -13305 8640 -2566
63777 405402 409052 -13302 8655 -2575
63726 405397 409041 -13328 8677 -2587
63714 405397 409049 -13350 8679 -2606
63736 405426 409062 -13336 8670 -2603
63761 405432 409062 -13330 8668 -2595
63765 405430 409058 -13332 8669 -2602
63750 405409 409054 -13321 8670 -2609
63701 405370 409036 -13310 8674 -2615
63639 405343 409033 -13307 8655 -2616
63580 405316 409013 -13310 8638 -2593
63530 405297 409011 -13321 8641 -2563
63504 405285 408987 -13332 8646 -2567
63492 405280 408988 -13341 8671 -2591
63496 405284 408987 -13344 8690 -2589
63515 405309 408992 -13327 8693 -2571
63543 405309 409003 -13322 8694 -2572
63586 405341 409011 -13325 8680 -2576
63632 405359 409026 -13314 8668 -2556
63695 405391 409048 -13308 8661 -2541
63759 405403 409054 -13317 8654 -2544
63832 405431 409063 -13324 8642 -2535
63897 405470 409092 -13323 8647 -2521
63976 405516 409108 -13338 8670 -2542
64055 405561 409145 -13359 8668 -2555
64136 405590 409161 -13363 8653 -2537
64214 405633 409179 -13360 8630 -2526
64269 405640 409169 -13353 8599 -2508
64230 405589 409133 -13356 8594 -2499
64062 405466 409077 -13380 8621 -2512
63770 405288 408987 -13400 8646 -2517
63437 405094 408880 -13412 8649 -2508
63140 404931 408808 -13415 8628 -2503
62913 404837 408742 -13395 8601 -2539
62740 404761 408694 -13376 8573 -2540
62621 404722 408678 -13366 8553 -2530
62530 404703 408683 -13364 8546 -2535
62472 404684 408686 -13371 8547 -2563
62455 404698 408692 -13367 8545 -2567
62471 404697 408665 -13362 8558 -2554
62485 404699 408664 -13373 8572 -2555
62475 404663 408638 -13381 8582 -2565
62433 404643 408631 -13397 8612 -2600
62375 404626 408622 -13384 8601 -2590
62312 404614 408600 -13376 8577 -2581
62257 404601 408607 -13370 8565 -2575
62216 404601 408612 -13361 8571 -2573
62197 404589 408595 -13343 8579 -2575
62189 404607 408601 -13346 8597 -2578
62199 404615 408616 -13354 8618 -2566
62214 404637 408630 -13352 8623 -2539
62246 404660 408624 -13353 8637 -2540
62293 404684 408634 -13364 8659 -2570
62348 404709 408679 -13360 8660 -2568
62408 404755 408709 -13343 8633 -2539
62475 404781 408725 -13347 8611 -2520
62549 404825 408731 -13354 8594 -2500
62631 404864 408771 -13369 8595 -2496
62714 404898 408802 -13388 8612 -2490
62800 404950 408819 -13376 8613 -2480
62882 404988 408834 -13354 8605 -2474
62947 404994 408845 -13340 8626 -2481
62952 404989 408840 -13377 8676 -2522
62829 404886 408789 -13428 8708 -2536
62557 404685 408675 -13426 8708 -2506
62204 404478 408560 -13408 8687 -2490
61859 404302 408462 -13388 8652 -2492
61582 404162 408399 -13368 8618 -2495
61361 404086 408367 -13356 8591 -2500
61189 404041 408378 -13343 8583 -2512
61053 403997 408335 -13313 8580 -2521
60942 403970 408322 -13306 8584 -2524
60872 403958 408310 -13335 8612 -2538
60848 403975 408317 -13349 8641 -2534
60846 403989 408327 -13354 8639 -2517
60849 404001 408326 -13358 8633 -2520
60824 403994 408328 -13363 8645 -2526
60773 403961 408300 -13374 8649 -2521
60697 403917 408281 -13375 8644 -2526
60625 403881 408268 -13350 8643 -2536
60567 403855 408254 -13332 8644 -2531
60524 403851 408236 -13335 8643 -2529
60502 403846 408242 -13350 8675 -2551
60498 403837 408257 -13362 8662 -2554
60508 403860 408272 -13357 8642 -2538
60530 403878 408275 -13350 8636 -2529
60561 403901 408284 -13345 8628 -2532
60608 403926 408295 -13340 8614 -2523
60658 403953 408301 -13350 8610 -2512
60723 403990 408337 -13346 8619 -2511
60790 404043 408354 -13332 8623 -2518
60756 403854 408240 -13405 8660 -2513
60386 403646 408136 -13408 8678 -2536
60058 403491 408051 -13374 8659 -2547
59788 403385 408002 -13348 8622 -2544
59590 403324 407961 -13345 8590 -2541
59428 403274 407949 -13343 8564 -2523
59298 403243 407934 -13356 8556 -2513
59186 403217 407921 -13371 8556 -2516
59120 403212 407912 -13376 8535 -2514
59100 403212 407930 -13375 8518 -2510
59089 403233 407935 -13373 8534 -2525
59070 403216 407942 -13399 8612 -2571
59029 403209 407923 -13394 8612 -2551
58954 403136 407908 -13391 8610 -2543
58873 403111 407888 -13393 8616 -2530
58791 403077 407883 -13388 8624 -2523
58730 403041 407870 -13385 8621 -2506
58693 403044 407870 -13399 8613 -2490
58674 403044 407887 -13405 8609 -2478
58672 403054 407888 -13403 8606 -2475
59246 403186 407961 -13367 8671 -2546
58918 403008 407867 -13372 8685 -2564
58637 402888 407820 -13373 8676 -2554
58419 402827 407797 -13352 8637 -2543
58253 402783 407765 -13321 8606 -2545
58119 402738 407724 -13307 8592 -2557
58016 402715 407720 -13322 8597 -2575
57934 402697 407722 -13356 8597 -2565
57899 402698 407728 -13368 8589 -2538
57904 402711 407745 -13359 8591 -2516
57910 402729 407751 -13355 8597 -2528
57895 402721 407739 -13361 8637 -2577
57850 402689 407723 -13367 8672 -2605
57780 402654 407716 -13351 8672 -2601
57714 402633 407712 -13324 8661 -2597
57660 402610 407698 -13310 8650 -2588
57622 402605 407699 -13306 8655 -2583
57601 402604 407700 -13312 8661 -2580
57600 402609 407728 -13321 8667 -2565
57617 402633 407731 -13325 8669 -2555
57648 402652 407740 -13335 8673 -2556
57695 402698 407766 -13339 8705 -2589
57763 402740 407782 -13332 8688 -2576
57833 402785 407810 -13320 8680 -2569
57914 402838 407844 -13313 8667 -2564
58006 402886 407873 -13313 8648 -2540
58103 402933 407890 -13324 8648 -2519
58204 402976 407920 -13334 8654 -2513
58309 403025 407947 -13336 8660 -2521
58413 403064 407967 -13334 8659 -2526
59393 403466 408186 -13354 8740 -2592
59244 403318 408076 -13364 8742 -2600
58972 403142 407993 -13347 8707 -2578
58662 402971 407920 -13324 8667 -2566
58391 402863 407870 -13302 8640 -2573
58188 402792 407818 -13304 8626 -2564
58043 402749 407793 -13325 8612 -2551
57937 402728 407787 -13348 8615 -2556
57861 402723 407791 -13358 8634 -2562
57807 402710 407781 -13357 8634 -2549
57788 402736 407802 -13364 8649 -2556
57815 402774 407804 -13360 8671 -2579
57848 402786 407823 -13350 8663 -2588
57862 402789 407815 -13354 8655 -2606
57840 402791 407800 -13346 8650 -2614
57798 402751 407798 -13338 8645 -2598
57752 402716 407775 -13340 8654 -2591
57714 402712 407788 -13339 8659 -2600
57696 402706 407782 -13345 8652 -2612
57689 402723 407783 -13340 8657 -2610
57706 402730 407779 -13364 8649 -2556
57743 402773 407789 -13360 8671 -2579
57797 402806 407818 -13350 8663 -2588
57853 402839 407835 -13354 8655 -2606
57924 402900 407863 -13346 8650 -2614
58009 402941 407858 -13338 8645 -2598
58108 403032 407896 -13340 8654 -2591
58212 403105 407924 -13339 8659 -2600
58318 403196 407995 -13345 8652 -2612
58428 403284 408038 -13340 8657 -2610
58540 403361 408060 -13341 8702 -2674
58650 403415 408074 -13330 8679 -2663
58757 403472 408101 -13314 8665 -2631
58858 403552 408148 -13296 8659 -2616
58958 403602 408180 -13293 8663 -2629
59066 403652 408200 -13307 8667 -2640
59173 403712 408232 -13315 8654 -2650
59284 403752 408264 -13314 8634 -2660
59401 403827 408300 -13295 8635 -2681
59531 403907 408361 -13293 8640 -2688
59659 403967 408388 -13320 8633 -2695
59791 404020 408411 -13349 8608 -2704
59887 404106 408444 -13359 8593 -2709
59885 404148 408440 -13348 8604 -2731
59745 404086 408403 -13354 8595 -2761
59492 403971 408306 -13367 8574 -2815
59221 403847 408219 -13362 8582 -2866
58976 403761 408153 -13358 8593 -2885
58796 403692 408094 -13343 8596 -2908
58656 403659 408055 -13307 8601 -2957
58565 403654 408057 -13274 8627 -3007
58496 403667 408062 -13226 8718 -3122
58461 403699 408079 -13192 8771 -3243
58472 403736 408091 -13219 8708 -3277
58515 403747 408113 -13255 8630 -3254
58554 403742 408106 -13251 8594 -3208
58575 403700 408084 -13226 8586 -3261
58566 403629 408054 -13171 8609 -3400
58540 403545 407999 -13118 8612 -3476
58518 403485 407970 -13137 8593 -3459
58502 403413 407921 -13206 8606 -3435
58506 403345 407905 -13226 8604 -3454
58531 403317 407906 -13193 8572 -3500
58572 403283 407887 -13164 8558 -3539
58636 403284 407909 -13146 8573 -3572
58724 403353 407955 -13139 8603 -3620
58831 403458 408018 -13120 8632 -3646
58941 403539 408080 -13092 8652 -3632
59064 403611 408135 -13056 8686 -3624
59185 403647 408176 -13023 8704 -3626
60743 404447 408590 -13123 8873 -3344
60904 404619 408661 -13179 8841 -3246
61070 404775 408734 -13211 8813 -3198
61231 404943 408837 -13229 8790 -3178
61382 405094 408912 -13265 8741 -3147
61481 405217 408976 -13298 8688 -3159
61454 405199 408974 -13309 8644 -3164
61277 405052 408909 -13247 8659 -3200
61020 404892 408811 -13109 8721 -3317
60761 404718 408729 -13140 8613 -3333
60540 404584 408659 -13157 8561 -3339
60355 404443 408574 -13160 8531 -3295
60210 404295 408475 -13182 8545 -3240
60090 404180 408387 -13217 8587 -3252
60009 404110 408336 -13262 8601 -3263
59940 404051 408311 -13332 8610 -3235
59914 404010 408261 -13377 8626 -3214
59921 403986 408241 -13376 8633 -3219
59943 403974 408239 -13358 8627 -3222
59952 403949 408226 -13325 8620 -3240
59939 403892 408197 -13286 8603 -3266
59909 403833 408155 -13250 8591 -3278
59879 403806 408157 -13224 8584 -3298
59856 403795 408163 -13209 8563 -3308
59843 403760 408154 -13187 8557 -3313
59854 403750 408141 -13157 8580 -3340
59884 403761 408155 -13127 8595 -3366
59930 403800 408173 -13110 8602 -3377
59997 403837 408193 -13128 8619 -3375
60079 403879 408234 -13165 8655 -3354
60180 403953 408282 -13186 8686 -3305
60288 404024 408324 -13163 8701 -3271
60405 404084 408396 -13154 8719 -3263
60519 404075 408425 -13184 8727 -3218
60637 404085 408421 -13216 8733 -3144
60769 404102 408432 -13232 8752 -3077
60907 404145 408465 -13221 8776 -3037
61041 404182 408506 -13177 8801 -3046
61179 404252 408542 -13149 8809 -3025
61312 404335 408588 -13127 8872 -3090
61444 404384 408605 -13092 8894 -3147
61574 404490 408635 -13101 8873 -3067
61696 404573 408658 -13121 8831 -2947
61809 404689 408673 -13129 8823 -2918
61914 404764 408713 -13138 8834 -2941
62014 404791 408697 -13168 8818 -2923
62113 404790 408673 -13174 8801 -2912
62212 404803 408660 -13165 8805 -2927
62315 404816 408635 -13250 8822 -2972
62389 404798 408630 -13302 8756 -2876
62385 404716 408578 -13311 8703 -2828
62258 404555 408501 -13284 8690 -2844
62042 404363 408390 -13249 8694 -2885
61825 404261 408312 -13218 8707 -2946
61646 404191 408288 -13229 8690 -2935
61517 404171 408280 -13230 8674 -2904
61433 404131 408274 -13226 8691 -2908
61386 404174 408284 -13211 8770 -2952
61364 404189 408301 -13211 8798 -2945
61369 404217 408316 -13188 8833 -2989
61396 404268 408345 -13166 8843 -3036
61458 404300 408366 -13147 8820 -3034
61523 404352 408376 -13142 8792 -2972
61574 404370 408397 -13149 8771 -2910
61594 404390 408407 -13128 8766 -2929
61582 404378 408396 -13121 8762 -2963
61564 404383 408384 -13120 8766 -2973
61559 404493 408426 -13128 8779 -2971
61574 404644 408475 -13157 8785 -2962
61604 404770 408514 -13146 8793 -2961
61643 404886 408594 -13127 8815 -2969
61695 404986 408638 -13129 8837 -2968
61761 405050 408665 -13135 8862 -2970
61831 405101 408678 -13121 8904 -3004
61916 405141 408699 -13133 8895 -2994
62011 405173 408702 -13218 8818 -2899
62111 405203 408732 -13277 8767 -2835
62213 405207 408744 -13231 8799 -3002
62322 405224 408749 -13201 8780 -3055
62436 405228 408741 -13217 8743 -3040
62554 405261 408765 -13243 8721 -3025
62673 405288 408800 -13245 8688 -3041
62792 405332 408839 -13219 8665 -3068
62914 405401 408886 -13188 8677 -3085
63036 405475 408936 -13157 8692 -3126
63155 405554 408982 -13108 8715 -3195
63272 405600 409033 -13088 8740 -3222
63386 405653 409048 -13091 8760 -3219
63504 405698 409063 -13072 8762 -3219
63618 405755 409081 -13071 8758 -3215
63084 405224 408872 -13255 8677 -3041
63059 405215 408875 -13289 8679 -3082
63048 405169 408837 -13262 8704 -3195
63059 405174 408811 -13258 8656 -3128
63109 405196 408805 -13259 8591 -2988
63162 405209 408796 -13212 8617 -3016
63201 405295 408819 -13215 8673 -3063
63214 405292 408813 -13266 8705 -3085
63198 405232 408759 -13278 8715 -3119
63168 405186 408716 -13281 8702 -3109
63144 405163 408700 -13354 8603 -2945
63135 405138 408680 -13373 8562 -2887
63136 405132 408686 -13260 8609 -3035
63153 405132 408709 -13188 8601 -3135
63184 405148 408723 -13216 8589 -3158
63227 405172 408730 -13223 8593 -3165
63281 405216 408746 -13213 8618 -3173
63345 405301 408790 -13182 8645 -3202
63422 405364 408849 -13133 8645 -3241
63507 405434 408872 -13124 8654 -3242
63589 405505 408881 -13110 8688 -3280
63669 405552 408869 -13068 8725 -3337
63743 405596 408878 -13041 8762 -3329
63822 405655 408877 -13062 8790 -3270
63901 405683 408913 -13095 8793 -3204
63976 405729 408928 -13115 8799 -3207
64059 405749 408938 -13226 8810 -3127
64138 405756 408936 -13266 8823 -3062
64212 405761 408925 -13254 8856 -3098
64290 405741 408915 -13188 8836 -3128
64367 405739 408921 -13154 8793 -3137
64455 405748 408934 -13182 8756 -3131
64547 405767 408942 -13207 8715 -3106
64646 405817 408977 -13193 8690 -3100
64696 405824 408988 -13179 8681 -3159
64658 405800 408972 -13147 8700 -3212
64522 405735 408955 -13090 8706 -3246
64331 405659 408935 -13068 8711 -3276
64133 405570 408862 -13124 8734 -3283
63985 405528 408830 -13192 8761 -3267
63882 405523 408832 -13223 8762 -3231
63811 405536 408818 -13235 8741 -3229
63779 405573 408855 -13228 8729 -3224
63783 405667 408924 -13184 8754 -3263
63826 405742 409005 -13201 8719 -3262
63917 405847 409092 -13310 8595 -3105
64023 405954 409157 -13338 8571 -2987
64093 405990 409171 -13213 8643 -3086
64127 405962 409152 -13119 8646 -3160
64130 405954 409147 -13137 8632 -3157
64108 405930 409130 -13157 8685 -3278
64074 405869 409072 -13174 8735 -3354
64039 405814 409042 -13192 8716 -3257
64025 405831 409023 -13148 8720 -3214
64031 405859 409026 -13085 8749 -3278
64047 405861 409025 -13110 8755 -3283
64070 405862 409030 -13171 8710 -3201
64102 405903 409049 -13198 8652 -3119
64142 405924 409060 -13171 8680 -3157
64193 405957 409071 -13125 8713 -3216
64250 405993 409099 -13150 8678 -3167
64310 406028 409108 -13225 8639 -3072
64379 406060 409125 -13249 8648 -3054
64442 406107 409135 -13221 8675 -3107
64513 406125 409138 -13198 8681 -3147
64584 406156 409150 -13200 8699 -3155
64659 406209 409187 -13217 8712 -3151
64746 406251 409226 -13223 8688 -3156
64832 406302 409260 -13224 8650 -3142
64919 406362 409278 -13227 8629 -3117
65009 406387 409291 -13242 8620 -3098
65090 406387 409303 -13260 8612 -3067
65170 406381 409292 -13296 8610 -3024
65215 406327 409254 -13320 8608 -3000
65179 406222 409214 -13313 8623 -3008
65029 406067 409136 -13301 8641 -3031
64797 405854 409011 -13273 8652 -3071
64549 405666 408928 -13274 8666 -3106
64344 405538 408875 -13287 8659 -3077
64201 405450 408841 -13294 8643 -3063
64265 405471 408893 -13218 8668 -2917
64255 405475 408883 -13203 8685 -2918
64246 405470 408892 -13209 8694 -2877
64257 405481 408898 -13230 8695 -2840
64283 405510 408928 -13246 8697 -2826
64316 405516 408924 -13258 8715 -2835
64362 405543 408927 -13265 8735 -2813
64422 405578 408949 -13274 8739 -2765
64486 405619 408973 -13298 8724 -2735
64565 405648 408989 -13312 8705 -2707
64646 405686 409021 -13311 8696 -2683
64734 405727 409036 -13311 8688 -2662
64823 405776 409063 -13316 8672 -2642
64921 405821 409088 -13311 8661 -2628
65019 405870 409104 -13296 8653 -2618
65117 405922 409142 -13303 8667 -2631
65215 405964 409175 -13309 8689 -2627
65316 406010 409204 -13306 8684 -2600
65416 406066 409216 -13330 8683 -2584
65513 406111 409242 -13343 8688 -2573
65597 406144 409258 -13325 8688 -2575
65659 406156 409263 -13314 8683 -2581
65639 406125 409245 -13310 8678 -2572
65497 406029 409198 -13291 8674 -2548
65236 405874 409116 -13272 8653 -2510
64918 405692 408998 -13349 8718 -2557
64620 405507 408925 -13372 8748 -2565
64382 405381 408852 -13381 8765 -2562
64206 405297 408809 -13382 8759 -2553
64084 405240 408783 -13364 8733 -2546
64002 405218 408779 -13332 8709 -2565
63946 405203 408777 -13291 8691 -2597
63929 405199 408787 -13260 8678 -2616
63943 405230 408795 -13244 8676 -2621
63965 405237 408784 -13268 8738 -2634
63974 405232 408789 -13275 8754 -2619
63953 405216 408778 -13299 8767 -2610
63905 405168 408758 -13335 8770 -2607
63847 405131 408712 -13358 8770 -2605
63790 405113 408700 -13343 8769 -2613
63744 405080 408691 -13307 8761 -2629
63709 405068 408684 -13277 8741 -2636
63698 405090 408685 -13273 8719 -2651
63701 405089 408688 -13269 8713 -2688
63711 405089 408665 -13269 8711 -2723
63738 405102 408672 -13266 8695 -2726
63777 405120 408691 -13251 8678 -2732
63827 405156 408696 -13243 8675 -2732
63884 405186 408735 -13236 8678 -2717
63953 405229 408736 -13235 8678 -2723
64022 405250 408759 -13245 8689 -2730
64096 405285 408782 -13243 8694 -2732
64167 405316 408806 -13237 8689 -2727
64244 405346 408830 -13250 8703 -2696
64323 405383 408846 -13268 8728 -2697
64398 405416 408866 -13268 8736 -2693
64474 405460 408895 -13254 8723 -2653
64533 405480 408904 -13246 8701 -2625
64528 405456 408905 -13253 8699 -2626
64393 405351 408841 -13241 8714 -2636
64132 405186 408761 -13229 8732 -2655
63797 404958 408645 -13250 8764 -2686
63482 404786 408555 -13287 8788 -2683
63229 404688 408490 -13305 8807 -2656
63043 404621 408465 -13308 8804 -2652
62907 404592 408446 -13289 8784 -2628
62811 404562 408436 -13259 8773 -2610
62746 404539 408410 -13225 8778 -2600
62722 404588 408430 -13214 8786 -2595
62731 404623 408434 -13222 8785 -2607
62757 404643 408444 -13225 8775 -2593
62766 404649 408455 -13220 8783 -2579
62745 404642 408440 -13217 8792 -2598
62697 404602 408417 -13230 8800 -2634
62639 404581 408400 -13253 8812 -2657
62574 404542 408387 -13273 8798 -2650
62527 404534 408373 -13272 8775 -2643
62499 404519 408369 -13259 8767 -2639
62482 404517 408363 -13242 8753 -2643
62486 404528 408364 -13233 8743 -2646
62501 404535 408381 -13241 8740 -2642
62523 404554 408396 -13244 8738 -2637
62561 404582 408411 -13241 8740 -2638
62605 404617 408400 -13248 8758 -2669
62660 404635 408424 -13253 8766 -2695
62719 404668 408425 -13243 8749 -2679
62784 404697 408443 -13227 8740 -2666
62854 404742 408462 -13209 8735 -2683
62935 404775 408486 -13209 8746 -2686
63012 404803 408519 -13219 8759 -2667
63087 404850 408522 -13218 8755 -2663
63162 404876 408546 -13229 8753 -2675
63193 404874 408540 -13241 8749 -2665
63111 404781 408492 -13249 8730 -2643
62883 404622 408394 -13268 8737 -2636
62555 404399 408286 -13283 8765 -2632
62215 404232 408205 -13308 8771 -2622
61916 404072 408136 -13323 8771 -2615
61679 403999 408087 -13323 8765 -2612
61505 403926 408055 -13309 8741 -2614
61375 403890 408037 -13284 8725 -2612
61270 403881 408023 -13273 8712 -2603
61200 403869 408021 -13260 8692 -2595
61177 403902 408031 -13247 8683 -2604
61180 403906 408040 -13274 8738 -2663
61185 403917 408048 -13269 8727 -2624
61172 403912 408045 -13270 8728 -2601
61120 403872 408027 -13283 8753 -2589
61050 403845 408016 -13291 8782 -2568
60977 403803 408002 -13291 8806 -2557
60917 403784 407984 -13277 8809 -2568
60873 403779 407990 -13260 8798 -2575
60848 403784 407988 -13244 8793 -2583
60841 403778 407997 -13237 8834 -2619
60860 403784 408003 -13233 8832 -2605
60884 403805 408005 -13218 8826 -2598
60920 403846 408040 -13220 8815 -2610
60968 403877 408049 -13241 8808 -2620
61030 403907 408071 -13242 8797 -2609
61093 403948 408083 -13235 8779 -2584
61059 403789 407985 -13240 8836 -2561
60699 403584 407898 -13256 8858 -2563
60382 403463 407825 -13258 8866 -2557
60131 403353 407776 -13257 8858 -2564
59937 403305 407752 -13246 8833 -2578
59781 403244 407730 -13227 8807 -2569
59660 403223 407700 -13220 8783 -2553
59559 403181 407689 -13209 8768 -2555
59491 403183 407684 -13202 8773 -2565
59472 403220 407708 -13226 8779 -2576
59467 403209 407703 -13241 8775 -2583
59447 403198 407704 -13230 8771 -2574
59399 403183 407694 -13246 8781 -2575
59326 403151 407678 -13277 8793 -2619
59250 403098 407660 -13280 8800 -2631
59175 403081 407647 -13261 8797 -2592
59118 403072 407661 -13257 8781 -2566
59077 403058 407671 -13261 8781 -2564
59059 403062 407670 -13267 8790 -2552
59063 403065 407666 -13270 8798 -2535
59084 403090 407667 -13267 8795 -2532
59114 403102 407687 -13258 8785 -2542
59164 403141 407692 -13252 8795 -2542
59223 403169 407731 -13280 8802 -2549
59289 403192 407762 -13306 8784 -2549
59372 403241 407776 -13299 8751 -2515
59451 403275 407805 -13286 8727 -2500
59538 403331 407828 -13278 8717 -2496
59618 403356 407863 -13295 8712 -2491
59704 403394 407875 -13311 8719 -2514
59793 403414 407889 -13311 8721 -2543
59885 403470 407917 -13309 8712 -2543
59973 403532 407936 -13307 8719 -2537
60055 403566 407977 -13321 8733 -2527
60083 403542 407953 -13326 8746 -2545
59990 403433 407902 -13311 8756 -2548
59744 403225 407784 -13284 8755 -2538
59406 403014 407688 -13272 8768 -2561
59069 402843 407604 -13275 8794 -2570
58778 402730 407547 -13277 8801 -2565
58545 402664 407515 -13284 8792 -2555
58366 402592 407486 -13284 8783 -2542
58226 402544 407464 -13276 8763 -2553
58109 402508 407439 -13269 8738 -2579
58013 402484 407429 -13274 8737 -2596
57960 402498 407454 -13265 8728 -2592
57956 402520 407463 -13264 8719 -2573
57958 402518 407465 -13278 8727 -2569
57945 402515 407474 -13268 8724 -2575
57897 402481 407455 -13250 8715 -2577
57828 402437 407426 -13252 8707 -2589
57761 402401 407440 -13269 8717 -2608
57699 402385 407452 -13284 8736 -2620
57657 402352 407421 -13284 8732 -2617
57637 402355 407417 -13280 8724 -2632
57638 402363 407436 -13269 8710 -2635
57660 402389 407452 -13255 8700 -2615
57695 402424 407469 -13267 8713 -2605
57746 402460 407481 -13302 8726 -2587
57806 402490 407520 -13315 8733 -2571
57880 402544 407558 -13307 8733 -2559
57961 402582 407571 -13304 8726 -2562
58055 402647 407601 -13310 8707 -2567
58153 402687 407642 -13313 8691 -2566
58252 402741 407677 -13318 8701 -2618
58351 402789 407700 -13309 8686 -2601
58454 402835 407724 -13301 8685 -2582
58555 402865 407748 -13302 8697 -2566
58653 402920 407766 -13299 8714 -2559
58751 402978 407778 -13301 8721 -2554
58848 403024 407795 -13306 8707 -2563
58950 403057 407815 -13307 8693 -2568
59051 403109 407848 -13313 8693 -2559
59148 403179 407882 -13321 8701 -2576
59204 403170 407875 -13319 8718 -2599
59150 403076 407826 -13295 8721 -2576
58952 402904 407708 -13276 8719 -2557
58651 402698 407611 -13265 8739 -2582
58334 402532 407545 -13252 8762 -2614
58070 402432 407495 -13240 8785 -2625
57864 402370 407464 -13240 8790 -2615
57716 402317 407424 -13251 8760 -2599
57600 402283 407406 -13250 8726 -2588
57505 402268 407408 -13249 8714 -2592
57440 402252 407408 -13264 8723 -2596
57414 402266 407418 -13292 8731 -2571
57426 402278 407418 -13310 8729 -2554
57446 402298 407437 -13310 8722 -2548
57449 402289 407450 -13310 8725 -2535
57427 402270 407435 -13305 8751 -2534
57380 402236 407424 -13299 8765 -2528
57330 402218 407416 -13291 8765 -2527
57288 402201 407404 -13278 8776 -2533
57262 402186 407395 -13272 8784 -2541
57261 402185 407397 -13272 8801 -2564
57281 402225 407410 -13260 8806 -2575
57314 402232 407434 -13251 8805 -2572
57366 402267 407445 -13246 8813 -2574
57429 402323 407463 -13230 8814 -2578
57505 402368 407481 -13217 8812 -2591
57590 402406 407510 -13208 8807 -2596
57688 402447 407538 -13214 8802 -2598
57789 402511 407552 -13232 8799 -2612
57898 402558 407575 -13238 8794 -2627
58012 402625 407603 -13251 8797 -2641
58125 402668 407647 -13255 8801 -2639
58239 402738 407706 -13244 8796 -2631
58353 402780 407715 -13242 8785 -2626
58469 402835 407731 -13241 8773 -2619
58581 402889 407759 -13247 8770 -2613
58691 402930 407775 -13247 8761 -2607
58807 402978 407799 -13242 8748 -2603
58926 403024 407841 -13242 8749 -2597
59036 403051 407854 -13233 8763 -2605
59139 403069 407875 -13237 8769 -2643
59174 403012 407840 -13221 8770 -2631
59086 402905 407748 -13180 8789 -2643
58879 402743 407670 -13160 8832 -2673
58614 402587 407592 -13198 8869 -2676
58373 402466 407537 -13237 8896 -2660
58196 402407 407507 -13229 8905 -2660
58079 402417 407499 -13196 8888 -2678
58014 402468 407522 -13154 8858 -2701
57986 402578 407581 -13129 8851 -2806
57989 402698 407634 -13112 8898 -2938
58015 402813 407707 -13102 8925 -3012
58077 402901 407794 -13201 8824 -2912
58162 403033 407894 -13376 8670 -2783
58234 403112 407963 -13419 8619 -2842
58279 403170 408015 -13362 8584 -2951
58312 403233 408061 -13454 8499 -2941
58354 403299 408119 -13595 8412 -2883
58410 403398 408188 -13649 8339 -2824
58471 403445 408210 -13694 8298 -2855
58564 403510 408252 -13668 8256 -2893
58690 403598 408298 -13605 8218 -2926
58842 403753 408371 -13576 8197 -3003
59013 403881 408434 -13546 8196 -3092
59187 403985 408487 -13491 8215 -3241
59362 404108 408539 -13432 8215 -3341
59538 404245 408607 -13436 8178 -3299
59718 404377 408670 -13462 8159 -3244
59901 404526 408768 -13461 8182 -3275
60083 404628 408829 -13474 8198 -3304
60257 404717 408868 -13491 8218 -3351
60428 404774 408878 -13498 8251 -3410
60587 404814 408879 -13520 8264 -3389
60732 404798 408870 -13506 8273 -3385
60856 404692 408804 -13481 8297 -3406
60948 404511 408678 -13443 8330 -3443
61034 404340 408577 -13386 8370 -3521
61130 404280 408513 -13346 8421 -3571
61248 404250 408497 -13352 8506 -3569
61362 404238 408493 -13333 8607 -3505
61480 404281 408512 -13212 8656 -3488
61569 404311 408532 -13108 8648 -3536
61561 404278 408522 -13053 8656 -3561
61425 404150 408483 -13005 8691 -3615
61175 403957 408390 -12989 8736 -3661
60894 403751 408295 -12995 8774 -3687
60655 403593 408220 -12985 8777 -3694
60477 403502 408169 -12991 8738 -3629
60361 403447 408140 -13061 8678 -3510
60280 403418 408129 -13279 8641 -3274
60233 403404 408132 -13315 8627 -3193
60210 403411 408130 -13353 8609 -3135
60225 403429 408133 -13392 8607 -3137
60265 403459 408133 -13407 8590 -3157
60315 403485 408130 -13378 8562 -3163
60343 403500 408123 -13328 8555 -3197
60345 403510 408130 -13273 8555 -3258
60341 403522 408124 -13202 8547 -3336
60339 403577 408139 -13130 8556 -3419
60343 403627 408143 -13058 8598 -3492
60362 403711 408163 -13026 8604 -3533
60391 403825 408214 -13121 8529 -3482
60434 403951 408271 -13281 8435 -3365
60493 404060 408311 -13367 8405 -3304
60563 404161 408345 -13364 8454 -3365
60655 404280 408400 -13364 8505 -3450
60762 404408 408456 -13418 8510 -3446
60878 404520 408531 -13460 8484 -3389
61000 404598 408586 -13449 8484 -3387
61119 404641 408595 -13398 8523 -3439
61242 404619 408576 -13325 8525 -3502
61348 404571 408544 -13239 8499 -3565
61448 404499 408515 -13183 8497 -3600
61539 404476 408483 -13154 8507 -3623
61630 404471 408462 -13102 8550 -3652
61723 404472 408474 -13070 8586 -3667
61816 404474 408447 -13061 8578 -3647
61916 404480 408440 -13042 8560 -3620
62023 404492 408462 -13058 8534 -3592
62130 404529 408480 -13114 8594 -3642
62242 404554 408505 -13121 8592 -3618
62349 404573 408516 -13173 8582 -3514
62449 404586 408534 -13231 8568 -3419
62465 404539 408506 -13248 8586 -3390
62362 404456 408467 -13257 8652 -3396
62154 404304 408398 -13259 8714 -3384
61923 404228 408367 -13249 8739 -3338
61736 404211 408367 -13243 8733 -3263
61601 404233 408386 -13231 8730 -3155
61508 404187 408381 -13166 8729 -3172
61447 404171 408384 -13113 8728 -3191
61392 404154 408391 -13115 8727 -3183
61361 404150 408396 -13139 8710 -3111
61367 404200 408429 -13158 8681 -2995
61399 404227 408440 -13161 8659 -2963
61441 404259 408443 -13119 8637 -3008
61467 404292 408443 -13077 8618 -3005
61474 404306 408452 -13131 8596 -2915
61456 404308 408445 -13243 8563 -2830
61413 404284 408420 -13325 8526 -2784
61362 404231 408382 -13376 8480 -2721
61312 404159 408328 -13451 8438 -2623
61280 404126 408334 -13545 8412 -2511
61278 404145 408340 -13611 8399 -2436
61300 404116 408347 -13621 8411 -2440
61340 404085 408350 -13612 8432 -2464
61401 404053 408337 -13635 8421 -2458
61479 404068 408358 -13658 8422 -2450
61573 404113 408410 -13627 8476 -2466
61678 404173 408441 -13552 8505 -2494
61802 404237 408490 -13486 8495 -2503
61933 404296 408526 -13438 8500 -2513
62066 404328 408534 -13423 8508 -2526
62208 404370 408562 -13423 8506 -2491
62358 404451 408618 -13408 8511 -2477
62507 404494 408663 -13376 8541 -2523
62655 404532 408701 -13335 8578 -2557
62800 404585 408724 -13329 8592 -2569
62944 404633 408740 -13357 8612 -2591
63094 404682 408774 -13377 8653 -2613
63243 404747 408821 -13378 8672 -2610
63391 404836 408844 -13349 8667 -2620
63551 405015 408915 -13339 8659 -2630
63696 405244 408993 -13323 8698 -2639
63779 405420 409063 -13296 8743 -2663
63752 405497 409074 -13370 8681 -2660
63604 405457 409032 -13469 8608 -2641
63379 405353 408947 -13473 8607 -2650
63148 405225 408873 -13398 8638 -2776
62959 405105 408800 -13364 8578 -2840
62828 405018 408746 -13343 8514 -2897
62739 404959 408712 -13339 8472 -2922
62695 404900 408695 -13337 8446 -2914
62668 404872 408686 -13326 8449 -2942
62683 404887 408704 -13267 8474 -2981
62740 404941 408763 -13184 8518 -3056
62811 404996 408793 -13131 8557 -3142
62866 405039 408838 -13210 8632 -3165
62893 405032 408851 -13238 8634 -3095
62899 405058 408865 -13246 8633 -3059
62897 405103 408894 -13234 8657 -3108
62888 405086 408877 -13192 8704 -3169
62900 405068 408851 -13230 8699 -3177
62934 405021 408780 -13312 8625 -3135
62960 404952 408718 -13366 8542 -3024
62999 404959 408717 -13390 8475 -2893
63052 405017 408734 -13363 8455 -2859
63114 405064 408772 -13345 8461 -2894
63203 405115 408844 -13356 8435 -2927
63302 405162 408894 -13409 8394 -2917
63414 405256 408978 -13463 8390 -2868
63537 405425 409108 -13487 8412 -2912
63651 405491 409181 -13478 8451 -2989
63766 405537 409217 -13441 8502 -2989
63882 405562 409259 -13404 8527 -2967
64000 405609 409275 -13379 8538 -2973
64116 405636 409280 -13354 8572 -3044
64228 405688 409269 -13337 8623 -3096
64333 405691 409244 -13375 8585 -3003
64440 405744 409250 -13454 8488 -2851
64552 405824 409290 -13466 8478 -2830
64653 405870 409298 -13388 8515 -2891
64752 405884 409314 -13361 8504 -2916
64826 405885 409302 -13406 8470 -2934
64836 405833 409258 -13487 8445 -2932
64729 405766 409216 -13518 8442 -2941
64507 405617 409110 -13440 8461 -2996
64212 405451 409006 -13245 8543 -3239
63930 405327 408922 -13248 8497 -3271
63706 405221 408854 -13302 8432 -3216
63551 405183 408804 -13345 8389 -3163
63440 405178 408797 -13381 8396 -3125
63366 405243 408809 -13419 8416 -3096
63316 405303 408835 -13450 8414 -3093
63317 405354 408864 -13470 8408 -3112
63343 405405 408875 -13479 8409 -3108
63372 405459 408899 -13474 8441 -3095
63383 405480 408931 -13419 8484 -3162
63364 405459 408949 -13314 8491 -3250
63307 405362 408898 -13248 8476 -3238
63239 405249 408834 -13229 8491 -3191
63185 405177 408819 -13217 8511 -3144
63150 405140 408816 -13204 8524 -3137
63146 405159 408851 -13168 8558 -3202
63165 405210 408894 -13181 8579 -3227
63197 405258 408928 -13244 8566 -3181
63235 405272 408943 -13295 8585 -3104
63282 405337 408960 -13356 8619 -3026
63352 405456 409016 -13432 8594 -2961
63424 405509 409050 -13494 8508 -2855
63495 405587 409075 -13540 8417 -2714
63579 405683 409132 -13554 8386 -2666
63672 405763 409178 -13508 8388 -2692
63770 405801 409209 -13479 8380 -2663
63881 405861 409275 -13496 8379 -2661
64003 405977 409355 -13529 8393 -2774
64123 406065 409430 -13550 8413 -2885
64222 406087 409456 -13529 8434 -2869
64320 406148 409487 -13485 8424 -2790
64429 406252 409550 -13376 8437 -2892
64528 406310 409570 -13239 8496 -3069
64617 406350 409577 -13237 8485 -3039
64699 406424 409615 -13380 8390 -2858
64730 406476 409633 -13525 8319 -2695
64655 406428 409606 -13609 8326 -2675
64485 406349 409558 -13643 8346 -2656
64263 406222 409487 -13730 8320 -2543
64047 406110 409445 -13926 8241 -2470
63875 406009 409403 -13835 8236 -2534
63760 405958 409380 -13687 8245 -2644
63689 405889 409360 -13620 8254 -2708
63634 405780 409271 -13588 8263 -2721
63598 405676 409212 -13518 8282 -2758
63606 405621 409170 -13432 8307 -2867
63649 405627 409181 -13361 8331 -2972
63692 405657 409179 -13349 8359 -3009
63726 405701 409191 -13444 8344 -2945
63724 405718 409181 -13580 8305 -2860
63697 405732 409150 -13639 8295 -2842
63656 405786 409138 -13627 8293 -2848
63625 405822 409157 -13669 8267 -2808
63606 405829 409150 -13813 8233 -2715
63601 405856 409144 -13931 8218 -2651
63614 405883 409134 -13968 8219 -2645
63643 405926 409148 -13947 8222 -2651
63687 406010 409178 -13849 8229 -2674
63742 406114 409220 -13722 8244 -2761
63804 406224 409259 -13630 8265 -2841
63872 406349 409304 -13539 8282 -2911
63946 406473 409369 -13429 8302 -3000
64027 406581 409409 -13348 8329 -3075
64119 406657 409443 -13287 8374 -3166
64215 406688 409462 -13220 8424 -3230
64316 406751 409508 -13190 8456 -3211
64428 406774 409519 -13221 8504 -3173
64546 406788 409540 -13236 8560 -3164
64663 406776 409530 -13229 8618 -3162
64774 406721 409503 -13257 8687 -3161
64883 406641 409471 -13267 8726 -3147
64979 406542 409425 -13268 8760 -3130
65043 406429 409346 -13236 8816 -3132
65021 406337 409282 -13177 8861 -3136
64893 406235 409222 -13127 8879 -3187
64682 406090 409147 -13069 8879 -3256
64436 405973 409070 -13025 8862 -3290
64212 405858 409019 -12992 8836 -3318
64038 405784 408974 -12971 8816 -3298
63926 405751 408978 -13035 8818 -3180
63859 405720 408962 -13051 8809 -3140
63831 405745 408995 -13048 8789 -3135
63847 405776 409013 -13069 8755 -3145
63904 405847 409051 -13109 8739 -3131
63981 405896 409095 -13135 8722 -3095
64037 405955 409121 -13170 8721 -3049
64076 405975 409128 -13210 8726 -3006
64085 405977 409159 -13230 8714 -2960
64083 405984 409183 -12971 8816 -3298
64073 405970 409184 -13035 8818 -3180
64066 405987 409206 -13051 8809 -3140
64069 405990 409200 -13048 8789 -3135
64089 405985 409212 -13069 8755 -3145
64120 405999 409218 -13109 8739 -3131
64166 406032 409228 -13135 8722 -3095
64224 406064 409262 -13170 8721 -3049
64288 406089 409269 -13210 8726 -3006
64367 406130 409302 -13230 8714 -2960
64450 406166 409316 -13255 8732 -2927
64539 406200 409349 -13273 8734 -2889
64637 406247 409360 -13285 8742 -2849
64737 406304 409395 -13259 8746 -2865
64842 406335 409419 -13224 8752 -2904
64945 406375 409439 -13213 8745 -2927
65048 406435 409450 -13196 8723 -2952
65154 406475 409467 -13186 8718 -2955
65257 406505 409501 -13186 8718 -2943
65361 406547 409514 -13193 8732 -2952
65451 406577 409527 -13212 8738 -2962
65489 406569 409525 -13207 8729 -2938
65436 406525 409509 -13201 8758 -2906
65264 406461 409464 -13212 8788 -2900
64998 406320 409396 -13199 8810 -2908
64691 406171 409309 -13177 8839 -2925
64403 406050 409237 -13170 8863 -2942
64178 405942 409172 -13159 8857 -2947
64015 405850 409127 -13129 8834 -2942
63900 405796 409085 -13112 8841 -2953
63820 405768 409067 -13133 8878 -2996
63773 405730 409042 -13152 8919 -3021
63771 405744 409050 -13157 8926 -3010
63794 405745 409057 -13153 8911 -3011
63813 405743 409050 -13138 8883 -3011
63810 405744 409045 -13123 8840 -2979
63780 405708 409029 -13110 8808 -2953
63732 405685 409018 -13093 8801 -2953
63672 405664 409002 -13085 8829 -2965
63621 405636 408987 -13093 8853 -2996
63583 405613 408971 -13105 8871 -3023
63568 405598 408957 -13111 8883 -3024
63566 405605 408959 -13113 8876 -3039
63584 405611 408964 -13112 8865 -3059
63610 405609 408975 -13121 8848 -3050
63653 405641 408993 -13136 8825 -3033
63705 405658 408990 -13144 8802 -3023
63763 405696 409005 -13157 8775 -2998
63832 405742 409018 -13170 8754 -2973
63905 405778 409046 -13182 8751 -2956
63988 405796 409070 -13217 8766 -2966
64076 405862 409104 -13205 8749 -2963
64168 405894 409123 -13192 8744 -2948
64261 405915 409133 -13193 8747 -2940
64355 405957 409158 -13191 8731 -2934
64447 406003 409186 -13189 8731 -2941
64519 406041 409197 -13183 8747 -2945
64509 406016 409186 -13168 8743 -2949
64376 405929 409140 -13170 8746 -2958
64138 405791 409064 -13191 8787 -2971
63837 405638 408970 -13180 8777 -2972
63551 405488 408887 -13165 8752 -2972
63323 405379 408835 -13147 8740 -2960
63159 405302 408802 -13149 8759 -2977
63049 405254 408759 -13175 8806 -3011
62973 405211 408749 -13205 8823 -3015
62938 405211 408745 -13215 8804 -3003
62950 405220 408754 -13202 8786 -2991
62986 405240 408779 -13200 8767 -2986
63016 405278 408780 -13204 8750 -2974
63022 405270 408785 -13194 8718 -2955
62997 405249 408784 -13173 8680 -2955
62955 405222 408774 -13175 8674 -2972
62906 405186 408756 -13198 8679 -2975
62870 405157 408742 -13190 8672 -2977
62849 405147 408742 -13182 8672 -2993
62842 405163 408748 -13187 8673 -3017
62856 405168 408753 -13191 8678 -3020
62887 405180 408750 -13210 8696 -3001
62928 405193 408778 -13235 8719 -2986
62980 405226 408796 -13242 8719 -2962
63038 405266 408817 -13231 8700 -2938
63111 405293 408827 -13235 8699 -2923
63187 405324 408849 -13242 8705 -2900
63269 405367 408855 -13234 8697 -2878
63357 405407 408875 -13232 8696 -2880
63447 405456 408907 -13231 8710 -2907
63543 405497 408939 -13216 8723 -2930
63639 405558 408964 -13212 8730 -2925
63726 405589 408991 -13225 8749 -2922
63771 405600 408994 -13225 8728 -2903
63704 405547 408959 -13224 8722 -2875
63498 405423 408891 -13216 8726 -2855
63176 405251 408807 -13216 8734 -2854
62826 405065 408692 -13212 8743 -2852
62519 404869 408599 -13208 8731 -2835
62279 404750 408536 -13208 8718 -2815
62102 404667 408492 -13219 8738 -2820
61977 404606 408480 -13272 8795 -2853
61874 404567 408450 -13275 8803 -2834
61809 404546 408453 -13260 8791 -2839
61793 404550 408444 -13234 8762 -2845
61811 404573 408458 -13215 8737 -2843
61822 404579 408461 -13200 8723 -2850
61815 404562 408464 -13182 8713 -2847
61777 404532 408439 -13194 8720 -2836
61721 404497 408418 -13217 8736 -2824
61667 404473 408408 -13214 8781 -2830
61625 404460 408398 -13219 8794 -2851
61601 404446 408400 -13219 8793 -2861
61592 404436 408415 -13204 8787 -2885
61606 404448 408410 -13192 8782 -2889
61632 404467 408410 -13186 8788 -2872
61676 404500 408421 -13177 8785 -2870
61730 404531 408430 -13178 8771 -2873
61796 404568 408469 -13191 8776 -2867
61874 404603 408504 -13201 8794 -2855
61958 404646 408514 -13217 8812 -2860
62046 404696 408544 -13231 8811 -2866
62143 404731 408558 -13222 8801 -2848
62243 404790 408586 -13212 8794 -2841
62337 404853 408624 -13209 8778 -2861
62441 404887 408638 -13206 8761 -2866
62549 404944 408669 -13198 8750 -2845
62650 404995 408692 -13197 8742 -2824
62716 405016 408703 -13203 8752 -2811
62683 404987 408680 -13212 8753 -2795
62509 404855 408605 -13272 8766 -2803
62197 404648 408507 -13269 8756 -2781
61846 404439 408381 -13240 8744 -2768
61520 404256 408286 -13231 8747 -2775
61271 404129 408218 -13256 8763 -2773
61079 404026 408163 -13266 8783 -2770
60932 403968 408131 -13263 8800 -2777
60820 403925 408108 -13253 8798 -2792
60729 403883 408111 -13225 8774 -2805
60681 403881 408101 -13203 8769 -2831
60680 403895 408109 -13179 8777 -2857
60694 403904 408112 -13142 8764 -2850
60697 403893 408114 -13143 8755 -2854
60676 403870 408108 -13173 8773 -2877
60629 403846 408113 -13180 8777 -2888
60573 403810 408089 -13169 8765 -2873
60519 403769 408060 -13160 8774 -2881
60482 403740 408046 -13164 8797 -2910
60467 403716 408042 -13166 8810 -2920
60471 403725 408045 -13180 8821 -2919
60496 403741 408069 -13179 8819 -2909
60534 403773 408061 -13163 8814 -2889
60591 403794 408093 -13176 8817 -2865
60655 403828 408109 -13194 8819 -2856
60729 403879 408134 -13201 8818 -2856
60816 403930 408161 -13199 8810 -2848
60905 403960 408189 -13191 8802 -2844
61009 404030 408232 -13190 8794 -2851
61114 404085 408251 -13200 8806 -2860
61223 404130 408280 -13200 8817 -2872
61327 404184 408295 -13184 8809 -2871
61433 404233 408321 -13181 8807 -2859
61539 404290 408364 -13185 8794 -2841
61652 404333 408383 -13188 8781 -2812
61756 404382 408420 -13199 8774 -2808
61861 404446 408440 -13210 8769 -2814
61953 404491 408462 -13212 8769 -2808
61977 404479 408459 -13219 8796 -2802
61863 404375 408387 -13225 8818 -2796
61601 404184 408285 -13224 8830 -2810
61257 403966 408151 -13194 8838 -2816
60935 403784 408058 -13161 8833 -2823
60677 403643 407998 -13163 8855 -2863
60478 403560 407953 -13164 8885 -2888
60334 403497 407931 -13164 8904 -2893
60226 403459 407908 -13154 8902 -2893
60138 403430 407889 -13139 8873 -2868
60083 403406 407876 -13129 8844 -2848
60068 403412 407886 -13120 8816 -2838
60086 403443 407902 -13146 8825 -2878
60103 403441 407913 -13159 8828 -2878
60096 403434 407905 -13172 8821 -2867
60055 403406 407875 -13170 8820 -2843
60002 403366 407849 -13169 8819 -2859
59951 403336 407847 -13173 8820 -2890
59917 403315 407835 -13176 8839 -2908
59905 403302 407829 -13173 8846 -2919
59910 403311 407838 -13165 8831 -2915
59931 403327 407843 -13180 8823 -2907
59967 403348 407861 -13197 8817 -2899
60018 403378 407860 -13183 8804 -2890
60086 403412 407886 -13173 8807 -2876
60163 403480 407912 -13180 8818 -2873
60252 403520 407923 -13179 8813 -2880
60346 403559 407949 -13176 8806 -2885
60447 403603 407967 -13181 8805 -2888
60552 403658 407996 -13173 8815 -2886
60664 403709 408039 -13153 8824 -2904
60766 403758 408072 -13155 8810 -2932
60874 403822 408092 -13169 8800 -2939
60987 403871 408107 -13162 8806 -2922
61089 403936 408129 -13152 8808 -2901
61198 403983 408154 -13149 8801 -2887
61307 404037 408189 -13141 8785 -2898
61421 404103 408207 -13148 8772 -2902
61534 404161 408226 -13172 8778 -2877
61647 404224 408267 -13190 8782 -2855
61731 404257 408274 -13204 8793 -2854
61717 404218 408237 -13219 8806 -2870
61556 404096 408171 -13244 8806 -2880
61275 403884 408058 -13242 8791 -2852
60969 403680 407950 -13203 8768 -2833
60707 403530 407869 -13196 8770 -2874
60510 403440 407818 -13206 8803 -2922
60373 403376 407787 -13199 8832 -2930
60273 403350 407755 -13187 8829 -2933
60204 403320 407761 -13166 8814 -2958
60165 403322 407757 -13138 8803 -2960
60166 403344 407773 -13119 8793 -2950
60199 403383 407786 -13127 8825 -3036
60236 403400 407800 -13129 8847 -3032
60252 403401 407802 -13131 8853 -3034
60234 403395 407774 -13120 8853 -3032
60196 403362 407771 -13104 8856 -3044
60157 403344 407765 -13100 8865 -3066
60121 403325 407755 -13084 8873 -3066
60105 403322 407749 -13070 8879 -3079
60109 403335 407747 -13084 8900 -3093
60133 403361 407770 -13096 8893 -3098
60170 403394 407781 -13069 8884 -3083
60224 403430 407806 -13059 8885 -3058
60292 403494 407850 -13074 8897 -3054
60368 403547 407888 -13078 8898 -3059
60461 403603 407930 -13070 8873 -3052
60561 403674 407955 -13075 8853 -3040
60672 403758 407996 -13080 8847 -3019
60785 403850 408060 -13080 8823 -2990
60903 403950 408116 -13112 8810 -2978
61027 404057 408166 -13160 8814 -2980
61149 404146 408201 -13183 8807 -2949
61274 404231 408246 -13200 8797 -2908
61398 404323 408286 -13224 8771 -2907
61516 404400 408341 -13234 8742 -2914
61651 404156 408082 -13218 8550 -3192
61314 403905 407916 -13166 8604 -3322
61043 403765 407841 -13120 8666 -3456
60873 403803 407878 -13083 8704 -3581
60748 403808 407895 -13129 8646 -3676
60639 403818 407896 -13205 8451 -3270
60550 403807 407905 -13072 8417 -3285
60498 403831 407923 -13100 8414 -3523
60484 403847 407947 -13152 8425 -3687
60482 403824 407954 -13173 8429 -3670
60474 403766 407923 -13211 8443 -3617
60433 403676 407883 -13257 8464 -3581
60374 403585 407837 -13304 8499 -3564
60308 403494 407799 -13280 8550 -3538
60249 403406 407785 -13183 8676 -3444
60218 403378 407797 -13164 8687 -3442
60219 403426 407842 -13166 8686 -3412
60242 403450 407879 -13157 8696 -3304
60286 403499 407910 -13130 8712 -3239
60334 403538 407924 -13108 8720 -3268
60391 403565 407965 -13112 8729 -3305
60452 403608 408000 -13113 8744 -3342
60528 403672 408033 -13143 8750 -3293
60614 403752 408061 -13215 8729 -3141
60709 403803 408076 -13208 8722 -3105
60806 403828 408117 -13227 8696 -3080
60908 403891 408141 -13262 8667 -3074
61013 403958 408154 -13259 8660 -3099
61124 404001 408169 -13252 8657 -3109
61243 404065 408188 -13263 8635 -3119
61358 404152 408190 -13268 8614 -3161
61464 404220 408218 -13251 8591 -3168
61569 404314 408205 -13260 8576 -3198
61658 404349 408211 -13260 8591 -3270
61736 404421 408210 -13226 8572 -3302
61807 404505 408240 -13228 8517 -3310
61882 404584 408272 -13259 8488 -3296
61958 404644 408279 -13282 8498 -3323
62042 404690 408287 -13294 8518 -3382
62126 404736 408298 -13282 8516 -3395
62189 404728 408298 -13260 8497 -3409
62181 404681 408270 -13241 8492 -3441
62037 404518 408185 -13212 8503 -3469
61746 404252 408046 -13202 8545 -3506
61393 403946 407901 -13194 8598 -3544
61070 403676 407760 -13161 8611 -3529
60805 403485 407676 -13138 8630 -3478
60618 403383 407640 -13129 8641 -3426
60479 403284 407613 -13128 8634 -3356
60368 403199 407556 -13133 8644 -3319
60274 403131 407519 -13138 8645 -3302
60209 403086 407502 -13120 8668 -3269
60187 403088 407522 -13101 8724 -3295
60191 403115 407550 -13124 8766 -3231
60202 403140 407573 -13145 8773 -3170
60195 403155 407588 -13176 8771 -3099
60171 403189 407610 -13223 8780 -3012
60143 403226 407648 -13251 8803 -2925
60113 403289 407681 -13246 8836 -2900
60088 403304 407728 -13232 8845 -2946
60074 403315 407751 -13198 8836 -2973
60080 403352 407804 -13178 8826 -2958
60113 403405 407832 -13223 8776 -2883
60161 403452 407868 -13246 8723 -2831
60227 403516 407927 -13194 8705 -2857
60316 403562 407954 -13166 8683 -2846
60419 403652 407990 -13192 8664 -2835
60547 403797 408053 -13237 8641 -2844
60668 403895 408105 -13297 8632 -2858
60797 404003 408157 -13364 8584 -2790
60919 404057 408176 -13466 8471 -2639
61040 404070 408168 -13501 8438 -2619
61151 404073 408172 -13423 8488 -2727
61273 404072 408164 -13376 8557 -2819
61406 404103 408192 -13388 8575 -2833
61546 404130 408222 -13426 8535 -2808
61680 404194 408241 -13459 8514 -2758
61819 404250 408290 -13419 8523 -2714
61959 404291 408310 -13328 8566 -2746
62094 404309 408322 -13257 8624 -2843
62236 404340 408346 -13203 8662 -2924
62378 404402 408377 -13150 8688 -2977
62529 404441 408400 -13149 8699 -2972
62676 404515 408449 -13179 8707 -2920
62797 404532 408477 -13198 8698 -2844
62821 404449 408439 -13211 8707 -2798
62721 404292 408358 -13219 8767 -2822
62502 404103 408215 -13229 8816 -2852
62239 403893 408109 -13234 8834 -2857
62010 403749 408038 -13250 8838 -2848
61841 403688 407986 -13252 8826 -2849
61743 403732 407969 -13263 8787 -2834
61696 403850 407975 -13255 8774 -2849
61667 403958 407999 -13206 8817 -2926
61650 404066 408035 -13240 8778 -2920
61680 404178 408095 -13354 8638 -2795
61737 404234 408117 -13410 8581 -2735
61800 404250 408129 -13324 8611 -2833
61854 404276 408142 -13229 8604 -2949
61882 404263 408167 -13218 8556 -2991
61883 404266 408162 -13239 8526 -3014
61881 404298 408203 -13284 8522 -3023
61887 404325 408227 -13309 8532 -3008
61905 404344 408243 -13146 8654 -3096
61943 404343 408262 -13094 8691 -3204
61992 404353 408292 -13119 8704 -3227
62062 404407 408321 -13167 8711 -3195
62144 404441 408348 -13195 8724 -3157
62242 404501 408359 -13185 8731 -3160
62352 404565 408370 -13162 8732 -3207
62459 404612 408370 -13151 8740 -3233
62565 404627 408336 -13200 8695 -3211
62687 404713 408403 -13385 8584 -2979
62827 404760 408460 -13261 8626 -3034
62977 404867 408545 -13224 8580 -3029
63151 405012 408638 -13263 8563 -3013
63323 405179 408760 -13312 8547 -3058
63483 405270 408825 -13299 8548 -3110
63625 405317 408871 -13244 8550 -3085
63765 405401 408919 -13248 8530 -3021
63907 405490 408950 -13240 8556 -3058
64043 405571 408961 -13206 8650 -3142
64181 405666 408990 -13220 8701 -3118
64325 405889 409099 -13342 8572 -2885
64468 406047 409211 -13435 8495 -2809
64571 406070 409217 -13337 8569 -2988
64592 406004 409189 -13316 8548 -3016
64514 405981 409191 -13456 8460 -2884
64362 405969 409176 -13515 8438 -2804
64165 405880 409153 -13493 8465 -2839
63960 405774 409107 -13410 8471 -2906
63786 405674 409049 -13296 8476 -2956
63659 405660 409030 -13269 8541 -3011
63574 405632 409009 -13230 8569 -3075
63512 405647 408990 -13162 8594 -3195
63455 405647 408964 -13105 8556 -3225
63421 405708 408968 -13191 8474 -3132
63425 405815 409008 -13346 8474 -3072
63433 405932 409033 -13420 8555 -3069
63431 405934 409026 -13485 8591 -3058
63399 405915 408994 -13559 8578 -3007
63343 405894 408973 -13537 8616 -3028
63274 405863 408938 -13398 8613 -3109
63203 405765 408895 -13274 8592 -3174
63150 405642 408842 -13175 8574 -3263
63120 405503 408768 -13066 8612 -3392
63111 405343 408667 -13002 8703 -3457
63102 405123 408565 -12964 8777 -3373
63118 404994 408497 -12921 8820 -3327
63169 405009 408520 -12919 8844 -3393
63251 405071 408571 -12958 8864 -3452
63346 405153 408619 -12964 8901 -3510
63444 405244 408662 -12923 8917 -3543
63556 405274 408711 -12955 8884 -3458
63670 405283 408724 -13043 8860 -3332
63787 405280 408703 -13095 8883 -3259
63910 405328 408730 -13204 8805 -3122
64039 405419 408746 -13387 8633 -2896
64157 405492 408773 -13479 8551 -2758
64276 405589 408818 -13453 8568 -2763
64402 405683 408862 -13396 8575 -2831
64534 405737 408902 -13408 8537 -2848
64671 405831 408989 -13432 8482 -2786
64821 405956 409085 -13415 8446 -2741
64959 406115 409194 -13398 8457 -2825
65009 406175 409256 -13345 8493 -2932
64942 406158 409265 -13259 8555 -2985
64776 406058 409241 -13187 8598 -3024
64555 405927 409189 -13200 8575 -2986
64331 405813 409161 -13254 8547 -2928
64147 405745 409121 -13266 8585 -2928
64019 405667 409059 -13309 8651 -2943
63926 405605 408983 -13471 8563 -2763
63872 405616 408961 -13654 8435 -2568
63875 405723 409010 -13605 8483 -2684
63925 405809 409060 -13435 8550 -2894
63994 405838 409074 -13400 8533 -2956
64069 405885 409106 -13439 8474 -2910
64121 405957 409129 -13454 8455 -2890
64145 406006 409154 -13394 8486 -2966
64136 406011 409165 -13291 8494 -3096
64119 406019 409151 -13216 8550 -3238
64092 406042 409142 -13237 8515 -3203
64076 406094 409140 -13276 8483 -3192
64073 406144 409165 -13324 8462 -3186
64087 406199 409190 -13387 8438 -3174
64141 406308 409248 -13500 8416 -3215
64219 406430 409357 -13588 8375 -3222
64314 406568 409465 -13579 8328 -3180
64421 406669 409509 -13538 8300 -3193
64528 406725 409543 -13422 8348 -3314
64635 406756 409551 -13372 8360 -3397
64740 406802 409567 -13349 8354 -3443
64843 406830 409579 -13324 8364 -3474
64938 406824 409575 -13295 8405 -3547
65025 406821 409569 -13268 8439 -3603
65113 406848 409583 -13294 8450 -3587
65193 406848 409586 -13304 8460 -3586
65270 406839 409576 -13262 8444 -3590
65350 406818 409563 -13251 8428 -3600
65421 406782 409552 -13255 8461 -3655
65479 406724 409521 -13264 8513 -3694
65464 406585 409445 -13246 8549 -3654
65336 406407 409362 -13196 8542 -3595
65103 406249 409286 -13187 8502 -3566
64800 406079 409222 -13214 8465 -3569
64474 405927 409153 -13231 8432 -3576
64187 405804 409096 -13218 8419 -3550
63958 405698 409070 -13214 8426 -3494
63798 405638 409037 -13243 8437 -3395
63680 405568 409033 -13292 8471 -3268
63606 405545 409016 -13318 8490 -3191
63583 405527 409033 -13298 8482 -3140
63606 405535 409065 -13284 8477 -3051
63637 405584 409080 -13325 8472 -2931
63656 405580 409092 -13387 8471 -2787
63648 405571 409099 -13430 8467 -2653
63612 405541 409102 -13465 8457 -2566
63571 405539 409106 -13478 8468 -2521
63523 405543 409119 -13471 8478 -2488
63483 405531 409122 -13499 8497 -2437
63453 405501 409115 -13554 8506 -2364
63444 405516 409121 -13592 8472 -2277
63446 405523 409133 -13616 8446 -2205
63469 405548 409147 -13637 8428 -2174
63509 405579 409168 -13634 8422 -2150
63561 405603 409174 -13620 8414 -2115
63617 405636 409200 -13630 8394 -2076
63688 405674 409225 -13647 8369 -2032
63764 405708 409242 -13666 8343 -1976
63848 405752 409258 -13705 8327 -1834
63939 405798 409280 -13701 8305 -1776
64031 405843 409301 -13715 8273 -1710
64122 405892 409318 -13757 8245 -1626
64216 405929 409361 -13791 8216 -1528
64307 405981 409401 -13823 8191 -1394
64395 405999 409428 -13870 8179 -1300
64474 406021 409463 -13925 8166 -1252
64537 406014 409467 -13993 8155 -1162
64520 405994 409473 -14070 8126 -1037
64386 405906 409446 -14120 8065 -889
64136 405763 409397 -14166 8014 -733
63806 405591 409332 -14207 7974 -607
63461 405444 409277 -14221 7928 -513
63164 405316 409208 -14242 7880 -442
62927 405208 409146 -14304 7832 -378
62741 405098 409121 -14370 7772 -283
62599 405020 409096 -14410 7696 -166
62499 404969 409088 -14438 7642 -79
62451 404954 409114 -14463 7608 -24
62439 404961 409136 -14120 8065 -889
62425 404951 409143 -14166 8014 -733
62381 404913 409129 -14207 7974 -607
62300 404848 409132 -14221 7928 -513
62189 404780 409103 -14242 7880 -442
62068 404704 409071 -14304 7832 -378
61945 404640 409050 -14370 7772 -283
61838 404566 409023 -14410 7696 -166
61746 404506 409014 -14438 7642 -79
61671 404458 408981 -14463 7608 -24
61609 404413 408950 -14492 7522 162
61563 404371 408931 -14556 7486 283
61536 404342 408941 -14601 7463 418
61526 404315 408923 -14612 7425 529
61535 404326 408920 -14618 7393 598
61546 404313 408933 -14623 7370 664
61571 404318 408929 -14625 7344 758
61600 404323 408900 -14637 7331 857
61642 404338 408903 -14657 7324 974
61696 404366 408909 -14657 7316 1092
61764 404424 408934 -14660 7315 1189
61839 404476 408932 -14684 7329 1285
61926 404521 408934 -14708 7344 1365
62008 404570 408942 -14727 7338 1417
62097 404654 408951 -14734 7328 1464
62121 404672 408928 -14724 7310 1509
62019 404653 408875 -14712 7298 1538
61787 404587 408764 -14711 7314 1552
61505 404508 408650 -14725 7336 1567
61259 404443 408551 -14751 7343 1599
61082 404414 408466 -14774 7333 1639
60994 404418 408431 -14783 7332 1662
60956 404456 408417 -14757 7336 1657
60946 404510 408393 -14743 7354 1635
60970 404548 408384 -14749 7391 1632
61033 404586 408389 -14748 7404 1669
61146 404676 408424 -14741 7420 1692
61266 404745 408460 -14720 7456 1678
61373 404796 408473 -14671 7487 1652
61444 404801 408476 -14404 7577 1494
61486 404806 408472 -14184 7663 1326
61502 404796 408476 -13966 7772 1131
61505 404778 408464 -13847 7886 939
61513 404771 408462 -13789 8001 762
61539 404784 408482 -13709 8094 594
61572 404821 408490 -13615 8164 422
61619 404835 408515 -13596 8207 282
61678 404853 408540 -13633 8224 212
61764 404923 408576 -13678 8216 229
61874 404987 408609 -13719 8168 345
62006 405082 408670 -13767 8104 508
62154 405157 408712 -13786 8049 668
62306 405232 408771 -13768 7989 792
62474 405297 408786 -13832 7929 871
62651 405372 408829 -14005 7876 947
62824 405445 408856 -14196 7818 1044
63009 405503 408851 -14372 7760 1139
63187 405538 408852 -14502 7733 1147
63359 405565 408826 -14560 7736 1151
63475 405558 408823 -14635 7686 1279
63487 405560 408817 -14685 7701 1312
63382 405481 408763 -14662 7735 1256
63209 405385 408691 -14562 7764 1065
63037 405301 408661 -14492 7796 869
62895 405226 408623 -14438 7802 744
62793 405165 408587 -14394 7758 626
62738 405120 408564 -14414 7712 492
62713 405113 408549 -14421 7697 334
62719 405109 408550 -14336 7690 178
62752 405106 408535 -14266 7683 60
62826 405150 408557 -14300 7726 -35
62920 405184 408569 -14331 7803 -134
63010 405200 408574 -14290 7885 -261
63080 405212 408565 -14228 7972 -409
63129 405217 408588 -14181 8025 -543
63155 405239 408605 -14098 8067 -676
63185 405261 408624 -14002 8124 -826
63217 405288 408619 -13944 8174 -966
63269 405314 408644 -13894 8209 -1078
63329 405336 408661 -13851 8249 -1164
63403 405380 408693 -13834 8290 -1225
63493 405430 408710 -13806 8323 -1276
63592 405472 408732 -13741 8361 -1329
63693 405501 408750 -13651 8402 -1388
63803 405534 408765 -13573 8468 -1451
63913 405568 408796 -13537 8563 -1518
64029 405616 408825 -13527 8651 -1549
64148 405656 408842 -13503 8693 -1568
64267 405697 408869 -13479 8715 -1611
64392 405761 408886 -13463 8736 -1638
64512 405799 408913 -13437 8728 -1634
64632 405843 408921 -13410 8701 -1613
64748 405875 408948 -13400 8681 -1593
64860 405922 408957 -13399 8656 -1570
64921 405938 408976 -13408 8616 -1522
64873 405894 408936 -13445 8586 -1482
64706 405802 408899 -13505 8575 -1483
64440 405690 408830 -13567 8573 -1499
64133 405562 408768 -13602 8554 -1452
63834 405457 408690 -13716 8571 -1334
