2025-10-08 21:19:25    绿光---红外光---红光---X轴---Y轴---Z轴
26051 182127 200042 -15865 4055 1324
26102 182162 200067 -15867 4044 1325
26161 182203 200092 -15883 4033 1329
26216 182204 200081 -15892 4021 1340
26273 182255 200128 -15889 4016 1337
26309 182288 200163 -15885 4011 1328
26277 182259 200181 -15891 4009 1327
26160 182132 200106 -15891 4006 1326
26002 181985 200015 -15889 4000 1328
25860 181916 199990 -15885 3993 1339
25750 181893 199991 -15857 3991 1333
25684 181940 200057 -15861 4004 1338
25637 181931 200044 -15870 4013 1341
25607 181926 200034 -15881 4017 1345
25586 181921 200032 -15911 4026 1342
25575 181906 200012 -15940 4031 1334
25591 181960 200058 -15950 4029 1335
25627 182100 200193 -15948 4017 1343
25665 182276 200383 -15930 4000 1353
25686 182356 200462 -15911 3991 1342
25679 182322 200429 -15907 3987 1320
25661 182277 200390 -15907 3985 1308
25647 182213 200327 -15896 3984 1286
25641 182197 200315 -15892 3985 1274
25648 182228 200334 -15886 3985 1282
25667 182280 200392 -15869 3988 1296
25697 182374 200490 -15889 3990 1288
25728 182428 200532 -15926 3995 1272
25752 182369 200459 -15937 3995 1266
25782 182342 200409 -15920 3987 1257
25828 182416 200479 -15892 3987 1247
25870 182428 200470 -15878 3993 1235
25920 182490 200525 -15890 4001 1226
25976 182586 200615 -15892 4009 1229
26024 182604 200628 -15893 4010 1244
26071 182617 200630 -15909 4004 1250
26126 182686 200685 -15923 4003 1260
26179 182697 200682 -15928 4006 1277
26227 182637 200606 -15931 3997 1290
26279 182664 200623 -15928 3985 1291
26339 182770 200729 -15914 3984 1270
26336 182774 200766 -15896 3988 1254
26249 182681 200711 -15890 3990 1262
26105 182543 200647 -15895 3993 1260
25954 182455 200604 -15886 3991 1257
25825 182396 200573 -15875 3988 1254
25733 182349 200542 -15880 4000 1244
25674 182303 200511 -15900 4001 1253
25641 182363 200576 -15902 3990 1260
25620 182412 200631 -15897 3986 1253
25605 182437 200653 -15929 3993 1199
25600 182420 200633 -15954 4002 1217
25614 182439 200626 -15962 3998 1234
25635 182491 200672 -15956 3992 1256
25655 182525 200709 -15922 3990 1275
25663 182570 200764 -15890 3974 1288
25656 182560 200750 -15869 3945 1289
25644 182538 200729 -15852 3932 1266
25632 182527 200715 -15868 3931 1255
25632 182536 200727 -15884 3903 1262
25641 182561 200759 -15897 3914 1253
25653 182554 200739 -15919 3935 1238
25675 182561 200741 -15931 3948 1221
25697 182551 200712 -15940 3948 1225
25725 182525 200673 -15937 3939 1242
25760 182501 200621 -15920 3928 1245
25798 182495 200606 -15909 3922 1239
25844 182530 200629 -15897 3925 1228
25896 182564 200656 -15890 3923 1222
25948 182617 200695 -15902 3902 1225
25998 182618 200671 -15910 3905 1232
26045 182596 200627 -15909 3924 1254
26095 182583 200602 -15922 3928 1267
26151 182602 200616 -15939 3932 1268
26208 182638 200627 -15941 3932 1280
26258 182619 200593 -15940 3929 1298
26312 182626 200586 -15951 3941 1301
26355 182618 200573 -15941 3958 1284
26350 182548 200521 -15917 3955 1272
26268 182425 200442 -15905 3920 1278
26134 182319 200393 -15910 3902 1290
25988 182231 200354 -15921 3915 1296
25857 182135 200293 -15931 3919 1305
25772 182085 200248 -15927 3916 1319
25711 182030 200191 -15907 3904 1335
25672 181989 200138 -15894 3893 1337
25646 181940 200091 -15917 3901 1325
25636 181962 200114 -15959 3910 1336
25638 181992 200132 -15990 3916 1341
25668 182037 200177 -15988 3895 1321
25702 182112 200242 -15967 3869 1313
25731 182191 200328 -15951 3871 1311
25742 182239 200366 -15932 3864 1324
25727 182183 200317 -15919 3855 1343
25716 182161 200300 -15923 3854 1342
25711 182177 200319 -15939 3855 1334
25714 182178 200321 -15939 3865 1334
25722 182159 200298 -15942 3879 1333
25729 182117 200235 -15998 3872 1283
25745 182070 200179 -15966 3831 1240
25770 182052 200146 -15914 3845 1269
25800 182055 200141 -15892 3846 1308
25851 182152 200236 -15897 3835 1328
25896 182213 200296 -15919 3824 1329
25943 182238 200304 -15944 3808 1317
25985 182220 200266 -15948 3787 1311
26030 182215 200244 -15942 3779 1315
26083 182242 200263 -15939 3788 1325
26136 182290 200293 -15931 3758 1331
26189 182318 200308 -15936 3739 1324
26239 182345 200317 -15944 3746 1324
26289 182325 200275 -15963 3755 1326
26338 182280 200213 -15977 3754 1332
26378 182225 200129 -15981 3758 1347
26411 182188 200089 -15985 3779 1341
26399 182152 200080 -15981 3808 1328
26312 182066 200047 -15978 3814 1321
26180 181983 200018 -15980 3796 1300
26048 181902 199970 -15958 3761 1287
25948 181863 199950 -15915 3721 1294
25888 181847 199935 -15889 3685 1303
25850 181806 199895 -15913 3665 1298
25837 181800 199873 -15986 3680 1283
25835 181795 199860 -16033 3700 1285
25841 181791 199840 -16041 3699 1305
25875 181882 199926 -16046 3689 1316
25919 181959 199985 -16037 3697 1304
25935 181904 199916 -16035 3710 1305
25939 181861 199863 -16041 3695 1299
25931 181823 199836 -16032 3680 1282
25908 181719 199724 -16013 3683 1276
25888 181678 199680 -15984 3681 1280
25883 181660 199667 -15970 3671 1292
25885 181650 199655 -15991 3664 1300
25895 181634 199629 -16001 3665 1313
25911 181626 199603 -15981 3653 1315
25938 181625 199601 -15974 3633 1312
25972 181677 199655 -15979 3622 1329
26005 181691 199639 -15978 3585 1332
26039 181670 199605 -16001 3590 1353
26075 181671 199597 -16006 3616 1356
26120 181695 199606 -16004 3645 1358
26166 181726 199619 -16005 3657 1371
26209 181745 199629 -16016 3657 1384
26255 181720 199586 -16014 3658 1391
26300 181717 199569 -15991 3674 1389
26347 181681 199519 -15981 3685 1390
26394 181652 199464 -15974 3685 1396
26441 181635 199433 -15972 3687 1396
26489 181663 199451 -15979 3691 1409
26496 181632 199437 -15984 3700 1423
26431 181519 199368 -15988 3718 1434
26316 181450 199348 -16004 3734 1442
26178 181360 199288 -16010 3745 1444
26064 181288 199253 -15974 3735 1444
25987 181294 199281 -15939 3718 1439
25947 181342 199327 -15938 3727 1420
25932 181406 199397 -15971 3738 1407
25935 181480 199473 -16005 3737 1411
25942 181527 199509 -16004 3732 1424
25958 181529 199500 -15986 3730 1429
25989 181523 199475 -15974 3732 1428
26016 181490 199413 -15965 3729 1424
26037 181536 199472 -15948 3719 1414
26042 181563 199485 -15925 3720 1415
26030 181518 199450 -15922 3736 1423
26020 181479 199410 -15934 3737 1429
26013 181472 199401 -15942 3735 1428
26018 181478 199408 -15968 3739 1416
26033 181482 199408 -15995 3750 1404
26053 181498 199416 -15993 3778 1401
26079 181517 199426 -15984 3797 1410
26112 181545 199438 -15978 3797 1416
26152 181594 199483 -15966 3793 1407
26195 181646 199527 -15950 3789 1394
26232 181658 199513 -15946 3787 1381
26273 181649 199483 -15943 3789 1380
26312 181616 199424 -15932 3795 1382
26346 181562 199344 -15937 3775 1357
26393 181604 199359 -15944 3761 1351
26435 181626 199360 -15938 3777 1376
26483 181632 199338 -15931 3784 1395
26533 181647 199334 -15934 3781 1397
26584 181682 199361 -15940 3786 1396
26634 181697 199344 -15957 3788 1404
26685 181729 199353 -15966 3788 1414
26736 181770 199391 -15959 3802 1415
26757 181745 199375 -15951 3808 1414
26701 181673 199347 -15951 3776 1380
26588 181645 199375 -15950 3787 1392
26437 181527 199311 -15968 3790 1407
26288 181367 199191 -15971 3772 1416
26178 181276 199119 -15948 3759 1435
26102 181195 199035 -15930 3766 1452
26056 181150 199024 -15946 3783 1442
26031 181160 199041 -15968 3787 1427
26030 181272 199171 -15978 3782 1433
26037 181410 199317 -15960 3765 1410
26064 181526 199426 -15954 3762 1412
26094 181605 199499 -15941 3759 1411
26107 181587 199475 -15934 3748 1421
26117 181614 199506 -15946 3743 1439
26111 181618 199521 -15968 3746 1451
26096 181618 199521 -15967 3737 1469
26085 181619 199523 -15943 3731 1485
26073 181611 199521 -15951 3723 1477
26076 181614 199519 -15975 3705 1478
26083 181588 199490 -15977 3676 1496
26097 181579 199478 -15974 3662 1504
26119 181566 199450 -15969 3678 1500
26140 181520 199389 -15962 3693 1500
26170 181524 199381 -15964 3698 1501
26203 181516 199363 -15966 3697 1508
26237 181489 199317 -15961 3696 1516
26279 181477 199294 -15953 3706 1506
26314 181454 199245 -15954 3722 1498
26363 181466 199246 -15960 3724 1496
26411 181488 199253 -15954 3705 1482
26458 181474 199235 -15948 3700 1470
26509 181482 199221 -15956 3718 1472
26559 181499 199226 -15958 3726 1479
26608 181494 199213 -15964 3728 1489
26661 181489 199185 -15966 3734 1491
26713 181508 199189 -15959 3734 1478
26759 181523 199211 -15967 3740 1480
26767 181485 199177 -15976 3744 1484
26698 181353 199093 -15970 3738 1484
26576 181277 199073 -15971 3704 1462
26427 181175 199008 -15960 3703 1466
26295 181069 198940 -15949 3705 1470
26204 181044 198924 -15956 3719 1457
26141 180987 198870 -15978 3735 1463
26103 180961 198845 -15992 3742 1489
26083 180959 198837 -15991 3738 1505
26068 180929 198804 -15985 3722 1510
26063 180922 198784 -15968 3702 1510
26083 180942 198791 -15947 3664 1505
26105 180956 198794 -15941 3654 1495
26126 180993 198823 -15939 3665 1499
26135 181028 198867 -15944 3688 1512
26128 181016 198858 -15956 3701 1519
26110 181013 198852 -15973 3711 1511
26094 180996 198841 -15981 3713 1498
26086 180984 198832 -15987 3713 1494
26091 181004 198849 -15983 3717 1492
26103 181024 198855 -15978 3723 1486
26126 181081 198904 -15961 3711 1478
26153 181135 198954 -15945 3702 1470
26189 181191 199007 -15951 3717 1466
26225 181242 199041 -15962 3725 1463
26264 181288 199073 -15967 3728 1467
26306 181337 199117 -15970 3741 1476
26357 181440 199215 -15989 3748 1484
26410 181550 199321 -16002 3747 1484
26461 181630 199392 -15999 3739 1481
26505 181652 199399 -15987 3726 1472
26559 181706 199452 -15974 3714 1461
26611 181744 199477 -15962 3713 1456
26666 181782 199494 -15944 3723 1454
26718 181814 199513 -15941 3726 1464
26770 181865 199555 -15951 3726 1479
26797 181907 199612 -15960 3732 1471
26749 181835 199572 -15967 3741 1461
26643 181779 199579 -15977 3740 1475
26507 181696 199542 -15969 3720 1490
26381 181620 199496 -15950 3705 1494
26302 181649 199546 -15989 3708 1465
26249 181653 199558 -16008 3719 1469
26212 181610 199501 -16008 3714 1476
26196 181640 199514 -15996 3708 1469
26185 181672 199537 -15967 3706 1446
26228 182096 199958 -15944 3694 1411
26310 182661 200480 -15927 3684 1399
26338 182731 200526 -15924 3674 1418
26322 182513 200261 -15934 3667 1434
26290 182331 200052 -15937 3660 1435
26234 181983 199682 -15954 3664 1435
26155 181561 199235 -15963 3683 1453
26069 181121 198757 -15992 3667 1463
25964 180524 198116 -16012 3633 1476
25906 180217 197802 -16007 3605 1502
25865 179959 197517 -16022 3576 1518
25860 179897 197451 -16003 3590 1495
25899 180083 197667 -15964 3615 1432
25972 180474 198092 -15942 3635 1379
26014 180544 198136 -15929 3616 1402
26016 180255 197852 -15923 3533 1513
26061 180366 197988 -15973 3492 1539
26181 181010 198682 -15986 3577 1409
26256 181209 198868 -15922 3706 1329
26255 180893 198513 -15922 3693 1448
26279 180793 198409 -16023 3582 1575
26351 181055 198686 -16091 3599 1439
26412 181187 198815 -16064 3720 1217
26447 181100 198708 -16067 3747 1236
26475 180956 198538 -16116 3685 1357
26511 180885 198450 -16121 3671 1333
26555 180878 198429 -16078 3746 1168
26566 180796 198356 -16013 3829 979
26522 180720 198318 -15960 3871 856
26431 180720 198387 -15932 3881 805
26317 180844 198597 -15899 3860 804
26186 180819 198622 -15878 3846 823
26050 180605 198436 -15896 3839 867
25950 180429 198279 -15966 3805 957
25904 180467 198317 -16002 3768 1037
25889 180559 198405 -15964 3781 972
25875 180566 198414 -15920 3824 887
25868 180536 198374 -15932 3836 925
25886 180576 198395 -15981 3807 998
25901 180575 198382 -16000 3774 1050
25913 180517 198319 -15994 3773 1064
25919 180515 198318 -16000 3795 1064
25913 180516 198318 -16006 3801 1086
25905 180536 198354 -15985 3805 1098
25893 180534 198351 -15968 3818 1092
25879 180468 198276 -15925 3785 1130
25867 180434 198249 -15921 3786 1172
25875 180429 198239 -15922 3802 1195
25891 180456 198260 -15918 3811 1201
25907 180464 198253 -15917 3809 1220
25936 180521 198303 -15925 3808 1252
25970 180581 198356 -15943 3808 1295
26001 180604 198365 -15970 3800 1330
26041 180669 198420 -15990 3800 1349
26082 180742 198487 -15979 3786 1373
26122 180788 198516 -15992 3773 1395
26160 180812 198535 -15999 3768 1418
26203 180852 198563 -15984 3785 1427
26249 180866 198561 -15973 3796 1436
26292 180859 198544 -15967 3787 1448
26329 180854 198534 -15959 3790 1464
26335 180835 198523 -15952 3797 1484
26272 180755 198481 -15947 3799 1480
26154 180659 198448 -15931 3789 1464
26013 180570 198407 -15911 3781 1447
25885 180509 198376 -15921 3790 1435
25790 180517 198418 -15964 3790 1438
25733 180593 198496 -15990 3782 1455
25696 180660 198575 -15993 3774 1477
25672 180715 198631 -15993 3767 1479
25658 180808 198721 -15982 3764 1470
25655 180866 198781 -15970 3752 1472
25674 180916 198820 -15969 3729 1474
25693 180956 198857 -15974 3714 1480
25705 181005 198901 -15961 3690 1488
25708 181047 198948 -15930 3675 1486
25698 181048 198956 -15926 3688 1467
25694 181109 199030 -15959 3702 1443
25691 181198 199130 -15978 3714 1442
25688 181242 199179 -15974 3716 1467
25692 181266 199196 -15971 3714 1489
25708 181318 199246 -15965 3727 1488
25726 181335 199249 -15955 3751 1481
25743 181315 199219 -15953 3768 1486
25762 181276 199171 -15949 3745 1468
25788 181247 199129 -15945 3742 1478
25819 181273 199153 -15947 3751 1498
25872 181423 199297 -15952 3758 1508
25922 181546 199405 -15948 3751 1511
25956 181522 199370 -15943 3748 1522
25993 181457 199296 -15955 3751 1541
26035 181458 199274 -15962 3740 1561
26077 181440 199241 -15948 3742 1559
26115 181433 199226 -15937 3747 1531
26117 181388 199196 -15946 3740 1514
26051 181311 199155 -15944 3748 1512
25939 181296 199200 -15924 3763 1507
25797 181234 199177 -15915 3779 1503
25660 181155 199131 -15932 3789 1495
25559 181106 199110 -15949 3798 1494
25480 181040 199027 -15952 3801 1516
25432 181023 199017 -15954 3792 1541
25396 180991 198995 -15959 3777 1537
25370 181013 199016 -15964 3757 1510
25363 181026 199017 -15951 3741 1502
25380 181050 199030 -15932 3742 1516
25399 181055 199028 -15938 3745 1519
25407 181042 199009 -15946 3745 1516
25408 181086 199058 -15943 3760 1516
25398 181092 199070 -15948 3782 1512
25383 181097 199083 -15960 3791 1514
25367 181081 199076 -15957 3794 1513
25361 181105 199092 -15952 3806 1509
25375 181212 199203 -15945 3804 1512
25393 181309 199300 -15930 3778 1505
25421 181400 199399 -15927 3760 1507
25458 181518 199521 -15925 3757 1516
25498 181632 199634 -15936 3760 1522
25541 181728 199728 -15944 3773 1534
25583 181794 199784 -15942 3794 1539
25620 181816 199800 -15938 3811 1530
25674 181918 199905 -15940 3813 1523
25721 182002 199972 -15947 3808 1526
25764 181995 199958 -15943 3804 1527
25805 181994 199943 -15936 3784 1523
25848 181934 199861 -15926 3771 1515
25887 181831 199729 -15929 3782 1508
25928 181780 199658 -15922 3799 1506
25955 181688 199556 -15922 3819 1510
25919 181477 199357 -15935 3828 1518
25819 181278 199197 -15934 3820 1522
25678 181152 199133 -15925 3810 1528
25537 181022 199048 -15926 3816 1529
25417 180930 198973 -15946 3829 1525
25331 180847 198901 -15962 3821 1521
25272 180785 198832 -15961 3808 1538
25233 180706 198759 -15967 3814 1560
25215 180702 198752 -15970 3812 1554
25197 180648 198688 -15943 3797 1547
25207 180644 198670 -15916 3793 1546
25224 180642 198652 -15896 3786 1554
25237 180612 198614 -15903 3795 1556
25242 180608 198611 -15926 3807 1556
25231 180582 198584 -15929 3796 1564
25213 180539 198541 -15933 3773 1557
25195 180512 198529 -15934 3785 1541
25186 180503 198524 -15938 3808 1533
25187 180521 198537 -15936 3821 1536
25203 180560 198578 -15926 3815 1544
25218 180581 198596 -15923 3802 1543
25236 180582 198588 -15922 3800 1540
25261 180602 198597 -15924 3806 1544
25295 180643 198648 -15927 3809 1549
25332 180704 198697 -15925 3812 1549
25372 180767 198756 -15927 3812 1547
25417 180840 198818 -15933 3812 1540
25462 180920 198900 -15929 3814 1534
25505 180953 198925 -15921 3812 1534
25555 181014 198987 -15919 3808 1539
25608 181090 199038 -15920 3795 1558
25660 181142 199082 -15920 3785 1576
25708 181157 199080 -15923 3800 1586
25757 181179 199101 -15936 3819 1585
25780 181181 199112 -15956 3816 1585
25741 181119 199086 -15960 3794 1592
25641 181064 199084 -15927 3774 1605
25508 180983 199051 -15891 3772 1607
25378 180865 198958 -15910 3788 1579
25286 180823 198930 -15953 3817 1566
25221 180788 198911 -15972 3837 1572
25182 180751 198867 -15975 3824 1577
25157 180720 198827 -15970 3798 1577
25145 180694 198805 -15956 3778 1571
25155 180728 198842 -15930 3775 1564
25187 180815 198920 -15909 3771 1570
25220 180864 198960 -15899 3769 1590
25240 180908 199007 -15911 3771 1606
25246 180943 199043 -15921 3775 1610
25238 180945 199058 -15916 3801 1606
25232 180953 199066 -15938 3825 1592
25228 180984 199110 -15957 3838 1577
25232 180996 199124 -15953 3843 1572
25244 181027 199151 -15945 3840 1565
25268 181085 199209 -15933 3832 1542
25290 181113 199227 -15923 3805 1506
25316 181110 199221 -15934 3813 1510
25345 181128 199225 -15939 3823 1525
25379 181139 199230 -15938 3825 1541
25418 181174 199251 -15940 3809 1549
25462 181198 199273 -15940 3790 1555
25507 181257 199325 -15927 3788 1555
25554 181295 199343 -15920 3788 1549
25592 181267 199312 -15918 3785 1550
25636 181246 199266 -15916 3782 1547
25682 181269 199281 -15920 3779 1536
25734 181296 199284 -15926 3782 1529
25782 181281 199260 -15930 3787 1539
25833 181259 199220 -15926 3795 1548
25871 181214 199162 -15925 3802 1548
25896 181200 199151 -15935 3814 1552
25854 181091 199080 -15942 3830 1556
25750 180995 199040 -15927 3829 1563
25615 180942 199042 -15904 3832 1568
25482 180864 199007 -15923 3849 1559
25386 180841 199010 -15960 3839 1561
25317 180814 198995 -15983 3814 1577
25265 180768 198947 -15987 3804 1592
25230 180760 198934 -15960 3795 1596
25215 180798 198978 -15936 3778 1587
25206 180803 198976 -15929 3751 1578
25212 180788 198959 -15934 3734 1572
25234 180808 198977 -15924 3742 1566
25241 180755 198903 -15917 3750 1562
25246 180738 198884 -15912 3749 1575
25239 180711 198854 -15896 3734 1569
25226 180696 198853 -15927 3758 1558
25211 180666 198812 -15951 3778 1565
25201 180613 198763 -15957 3795 1573
25199 180587 198734 -15948 3811 1575
25207 180591 198741 -15951 3816 1572
25230 180625 198762 -15952 3816 1564
25252 180627 198763 -15948 3817 1565
25283 180669 198789 -15952 3820 1580
25315 180693 198798 -15947 3779 1626
25350 180708 198807 -15951 3784 1620
25385 180711 198796 -15952 3784 1599
25430 180739 198811 -15938 3783 1582
25475 180767 198822 -15921 3786 1579
25521 180801 198855 -15917 3783 1587
25572 180857 198899 -15926 3788 1599
25621 180892 198922 -15927 3802 1592
25668 180898 198916 -15917 3818 1573
25717 180910 198922 -15903 3805 1574
25770 180957 198948 -15900 3775 1581
25822 180961 198941 -15913 3777 1580
25874 180963 198926 -15922 3803 1582
25920 180959 198902 -15926 3819 1585
25951 180939 198885 -15939 3814 1580
25921 180873 198850 -15936 3804 1581
25828 180802 198836 -15917 3802 1577
25693 180745 198834 -15924 3808 1561
25555 180660 198786 -15947 3817 1555
25447 180598 198755 -15952 3826 1557
25373 180573 198746 -15947 3821 1564
25325 180582 198762 -15946 3820 1565
25300 180606 198797 -15939 3824 1550
25276 180594 198786 -15922 3819 1538
25262 180589 198793 -15908 3813 1524
25271 180630 198820 -15888 3812 1504
25288 180649 198821 -15887 3815 1495
25312 180824 198961 -15907 3810 1503
25352 181168 199284 -15905 3803 1516
25325 181143 199199 -15908 3794 1515
25238 180745 198738 -15975 3733 1568
25142 180379 198339 -16037 3731 1585
25074 180143 198067 -16019 3735 1555
25000 179718 197610 -15957 3735 1524
24943 179353 197212 -15930 3710 1509
24908 179065 196906 -15916 3666 1527
24893 178850 196668 -15918 3647 1541
24891 178673 196485 -15941 3670 1514
24911 178633 196437 -15936 3713 1486
24954 178756 196570 -15933 3728 1468
25012 178946 196787 -15952 3718 1469
25079 179157 197022 -15969 3725 1491
25137 179293 197172 -15972 3736 1520
25211 179502 197400 -15951 3749 1520
25279 179655 197567 -15911 3771 1486
25343 179748 197659 -15904 3782 1464
25409 179846 197776 -15933 3807 1448
25474 179949 197867 -15942 3836 1452
25536 179978 197883 -15944 3829 1482
25589 179982 197873 -16002 3775 1516
25645 179986 197865 -16019 3769 1538
25704 180054 197931 -16019 3766 1559
25766 180172 198048 -15989 3756 1554
25790 180206 198118 -15937 3759 1528
25741 180156 198106 -15887 3775 1503
25638 180114 198144 -15880 3783 1494
25506 180055 198138 -15910 3776 1510
25391 179973 198085 -15944 3769 1536
25308 179951 198087 -15967 3758 1560
25253 179935 198083 -15969 3734 1560
25218 179923 198069 -15962 3722 1548
25204 179954 198103 -15953 3717 1556
25200 180001 198147 -15933 3702 1569
25206 180022 198161 -15919 3693 1576
25233 180069 198196 -15924 3688 1582
25264 180109 198219 -15932 3689 1591
25282 180105 198222 -15932 3695 1588
25289 180112 198227 -15940 3707 1567
25288 180132 198257 -15951 3727 1568
25282 180171 198309 -15953 3724 1597
25281 180219 198362 -15951 3723 1598
25281 180223 198371 -15951 3745 1581
25289 180233 198375 -15947 3760 1571
25301 180239 198369 -15938 3779 1566
25318 180224 198343 -15936 3793 1578
25340 180234 198345 -15938 3794 1579
25370 180259 198359 -15939 3795 1572
25407 180296 198386 -15941 3799 1576
25446 180312 198384 -15937 3801 1582
25488 180346 198405 -15911 3765 1598
25532 180379 198430 -15903 3763 1592
25578 180412 198450 -15918 3769 1583
25631 180474 198495 -15929 3769 1586
25681 180480 198493 -15924 3770 1592
25732 180499 198495 -15922 3783 1593
25785 180533 198518 -15931 3789 1605
25837 180563 198543 -15934 3786 1615
25864 180552 198537 -15909 3781 1609
25837 180517 198535 -15899 3771 1606
25752 180495 198571 -15927 3768 1611
25625 180404 198527 -15959 3777 1618
25497 180328 198488 -15966 3788 1623
25403 180305 198502 -15958 3790 1626
25335 180297 198505 -15951 3775 1628
25298 180310 198525 -15942 3757 1627
25270 180292 198505 -15926 3744 1625
25255 180305 198509 -15908 3740 1610
25254 180319 198520 -15907 3744 1601
25285 180410 198596 -15915 3736 1621
25316 180468 198647 -15916 3719 1649
25339 180472 198634 -15919 3720 1642
25352 180501 198670 -15940 3735 1607
25353 180524 198709 -15952 3739 1595
25354 180553 198746 -15957 3742 1601
25347 180555 198750 -15964 3743 1609
25350 180591 198790 -15953 3738 1617
25366 180649 198839 -15937 3738 1616
25382 180677 198853 -15936 3737 1602
25414 180733 198915 -15938 3740 1602
25445 180766 198938 -15943 3748 1611
25479 180811 198975 -15948 3762 1600
25513 180833 198988 -15947 3781 1584
25553 180863 199007 -15938 3794 1579
25591 180864 198982 -15930 3800 1571
25631 180831 198937 -15930 3808 1560
25663 180761 198848 -15922 3816 1562
25706 180747 198805 -15916 3812 1568
25758 180764 198826 -15904 3802 1570
25806 180774 198808 -15905 3803 1567
25857 180778 198800 -15915 3791 1565
25910 180816 198829 -15916 3773 1571
25942 180843 198875 -15920 3770 1574
25911 180822 198885 -15917 3775 1573
25817 180794 198922 -15936 3789 1567
25689 180753 198922 -15959 3800 1565
25560 180684 198896 -15969 3807 1577
25466 180652 198896 -15983 3800 1604
25395 180615 198858 -15977 3793 1616
25359 180661 198907 -15955 3794 1605
25346 180735 198989 -15897 3768 1611
25340 180789 199046 -15888 3773 1624
25344 180824 199080 -15902 3788 1615
25371 180915 199162 -15913 3800 1610
25394 180896 199121 -15912 3807 1615
25403 180794 199004 -15928 3808 1606
25406 180737 198941 -15946 3811 1582
25387 180601 198792 -15945 3818 1564
25365 180482 198676 -15948 3825 1562
25346 180401 198594 -15918 3809 1573
25339 180374 198572 -15899 3797 1579
25345 180379 198570 -15907 3802 1585
25357 180358 198539 -15921 3812 1591
25374 180342 198515 -15922 3831 1588
25391 180321 198471 -15926 3840 1588
25420 180351 198498 -15928 3831 1601
25453 180386 198520 -15928 3823 1605
25488 180389 198512 -15931 3822 1603
25523 180397 198505 -15920 3811 1614
25564 180412 198523 -15910 3784 1641
25611 180464 198561 -15917 3770 1650
25664 180548 198634 -15924 3776 1644
25717 180598 198671 -15929 3782 1642
25765 180600 198656 -15935 3785 1633
25814 180608 198640 -15946 3779 1635
25863 180608 198632 -15936 3763 1645
25906 180641 198657 -15905 3758 1647
25900 180637 198674 -15916 3771 1634
25823 180588 198688 -15956 3782 1633
25709 180596 198760 -15973 3753 1684
25580 180558 198753 -15973 3753 1662
25474 180495 198708 -15944 3743 1636
25403 180500 198722 -15920 3720 1627
25370 180592 198823 -15912 3698 1626
25371 180810 199035 -15910 3695 1625
25385 181031 199268 -15911 3695 1620
25401 181192 199424 -15913 3691 1618
25442 181378 199602 -15926 3704 1618
25484 181529 199741 -15956 3706 1642
25521 181674 199886 -15950 3718 1646
25546 181853 200074 -15949 3727 1636
25557 181960 200197 -15951 3735 1616
25555 182058 200304 -15947 3742 1597
25560 182147 200398 -15943 3751 1583
25561 182188 200448 -15945 3767 1588
25574 182259 200523 -15947 3791 1593
25601 182395 200664 -15953 3808 1580
25638 182529 200800 -15917 3779 1590
25668 182580 200839 -15895 3767 1590
25701 182608 200868 -15900 3757 1600
25742 182686 200945 -15910 3740 1624
25785 182739 200986 -15919 3723 1642
25829 182822 201075 -15925 3712 1649
25879 182891 201136 -15938 3709 1662
25931 182987 201228 -15950 3713 1677
25986 183049 201288 -15943 3726 1668
26036 183062 201288 -15937 3736 1649
26081 183033 201244 -15939 3738 1647
26138 183098 201293 -15928 3731 1652
26197 183141 201319 -15916 3742 1644
26248 183135 201311 -15936 3772 1621
26295 183202 201373 -15985 3792 1605
26281 183137 201339 -16005 3799 1609
26196 183105 201363 -15992 3798 1629
26069 183096 201420 -15959 3782 1639
25916 182967 201330 -15927 3759 1634
25787 182883 201286 -15919 3731 1629
25698 182821 201237 -15913 3685 1638
25623 182671 201083 -15921 3646 1657
25577 182591 200993 -15950 3637 1661
25546 182548 200958 -15968 3642 1659
25535 182580 200982 -15970 3655 1644
25541 182619 201007 -15961 3666 1616
25554 182551 200930 -15962 3667 1595
25568 182526 200885 -15966 3673 1576
25569 182505 200853 -15954 3687 1573
25562 182487 200840 -15944 3705 1579
25542 182435 200790 -15913 3685 1638
25522 182394 200763 -15921 3646 1657
25507 182397 200762 -15950 3637 1661
25500 182397 200756 -15968 3642 1659
25503 182361 200709 -15970 3655 1644
25508 182298 200632 -15961 3666 1616
25517 182238 200557 -15962 3667 1595
25527 182154 200449 -15966 3673 1576
25544 182095 200378 -15954 3687 1573
25565 182028 200290 -15944 3705 1579
25585 181913 200153 -15926 3716 1560
25612 181823 200047 -15927 3731 1560
25643 181761 199967 -15937 3748 1569
25674 181699 199880 -15950 3757 1581
25713 181644 199811 -15955 3758 1583
25749 181603 199744 -15954 3747 1579
25794 181600 199722 -15941 3740 1571
25839 181608 199713 -15923 3747 1571
25890 181599 199696 -15919 3753 1587
25931 181557 199634 -15930 3736 1605
25976 181495 199553 -15940 3718 1629
26010 181483 199536 -15936 3719 1642
26000 181424 199482 -15933 3724 1646
25909 181289 199400 -15934 3732 1649
25766 181189 199369 -15931 3738 1650
25602 181082 199319 -15921 3754 1638
25457 181003 199277 -15919 3769 1624
25353 180970 199248 -15934 3764 1635
25279 180914 199200 -15939 3758 1657
25227 180874 199162 -15930 3759 1675
25188 180840 199123 -15926 3744 1685
25163 180823 199113 -15959 3747 1681
25149 180807 199087 -15993 3758 1669
25158 180814 199072 -15990 3758 1671
25172 180793 199043 -15983 3762 1665
25176 180738 198982 -15981 3758 1647
25171 180704 198954 -15966 3745 1637
25150 180675 198907 -15938 3730 1634
25134 180674 198920 -15919 3721 1626
25118 180656 198902 -15916 3719 1622
25114 180653 198900 -15917 3708 1617
25115 180683 198920 -15915 3704 1614
25129 180679 198913 -15919 3729 1613
25141 180651 198879 -15927 3746 1593
25160 180628 198838 -15934 3753 1581
25189 180653 198855 -15935 3763 1597
25221 180696 198892 -15935 3771 1601
25252 180679 198861 -15926 3780 1591
25288 180659 198824 -15915 3785 1596
25328 180666 198826 -15922 3785 1606
25368 180649 198784 -15941 3766 1636
25416 180664 198788 -15948 3774 1630
25463 180682 198790 -15949 3774 1623
25508 180662 198756 -15939 3758 1622
25552 180652 198730 -15928 3742 1629
25603 180688 198761 -15919 3732 1646
25655 180712 198765 -15919 3727 1656
25706 180711 198743 -15924 3732 1651
25758 180720 198747 -15923 3737 1651
25808 180771 198779 -15914 3719 1657
25842 180795 198803 -15921 3725 1652
25806 180722 198767 -15935 3728 1652
25700 180640 198740 -15938 3738 1646
25548 180542 198701 -15946 3751 1642
25394 180420 198617 -15958 3745 1644
25271 180317 198537 -15955 3730 1661
25188 180216 198427 -15936 3720 1665
25134 180159 198374 -15931 3727 1640
25115 180174 198390 -15977 3736 1652
25103 180206 198421 -15984 3734 1664
25094 180157 198357 -15981 3734 1647
25100 180129 198316 -15960 3735 1627
25125 180125 198294 -15923 3723 1607
25139 180085 198242 -15898 3702 1599
25132 180003 198140 -15889 3698 1609
25107 179862 197997 -15890 3709 1611
25077 179742 197876 -15902 3717 1605
25056 179749 197901 -15909 3710 1609
25056 179830 197996 -15906 3687 1617
25067 179958 198143 -15923 3677 1622
25106 180234 198440 -15951 3704 1630
25167 180614 198844 -15970 3731 1633
25218 180858 199093 -15975 3744 1619
25259 180965 199202 -15949 3754 1600
25291 181018 199227 -15930 3750 1585
25324 181083 199258 -15929 3747 1570
25342 181065 199191 -15937 3743 1572
25334 180947 198993 -15964 3743 1579
25282 180451 198419 -15933 3720 1536
25224 179888 197783 -15925 3712 1527
25197 179489 197341 -15936 3676 1544
25193 179203 197023 -15963 3619 1560
25190 178880 196660 -16021 3564 1587
25200 178635 196384 -16039 3534 1613
25241 178616 196359 -15976 3567 1599
25296 178674 196409 -15897 3587 1569
25337 178640 196367 -15893 3551 1570
25368 178676 196428 -15949 3529 1569
25352 178767 196600 -16005 3534 1557
25286 178920 196840 -16021 3545 1557
25181 179041 197047 -15996 3552 1586
25071 179109 197154 -15964 3546 1629
24983 179118 197204 -15958 3555 1649
24912 179067 197168 -16002 3590 1642
24870 179028 197126 -16048 3622 1627
24853 179062 197148 -16049 3639 1632
24852 179114 197192 -16029 3641 1633
24858 179137 197207 -16005 3651 1609
24882 179127 197178 -15969 3646 1591
24907 179131 197167 -15948 3618 1601
24931 179172 197207 -15956 3601 1632
24950 179246 197299 -15966 3596 1643
24956 179332 197397 -15968 3597 1634
24955 179405 197483 -15951 3603 1628
24958 179468 197558 -15926 3613 1627
24962 179497 197584 -15945 3632 1622
24984 179567 197664 -15971 3639 1612
25006 179629 197715 -15980 3630 1619
25033 179652 197735 -15959 3623 1634
25067 179691 197772 -15944 3656 1616
25096 179698 197776 -15957 3675 1603
25131 179735 197797 -15972 3684 1603
25175 179771 197821 -15971 3684 1623
25211 179764 197805 -15977 3694 1626
25257 179783 197811 -15977 3706 1606
25302 179815 197832 -15967 3708 1597
25347 179834 197836 -15952 3704 1609
25398 179889 197875 -15945 3695 1620
25455 179910 197876 -15941 3679 1623
25499 179851 197796 -15943 3673 1621
25554 179872 197814 -15949 3675 1628
25585 179895 197831 -15945 3679 1634
25548 179867 197840 -15940 3689 1628
25447 179841 197883 -15938 3687 1639
25309 179776 197873 -15936 3684 1652
25162 179606 197741 -15927 3693 1648
25054 179524 197668 -15932 3706 1638
24986 179500 197646 -15958 3715 1634
24950 179500 197656 -15983 3720 1639
24932 179554 197712 -15998 3725 1647
24922 179585 197751 -15988 3720 1651
24923 179626 197786 -15971 3715 1646
24946 179689 197833 -15956 3711 1643
24976 179713 197844 -15942 3697 1657
25002 179741 197858 -15939 3692 1667
25016 179761 197881 -15938 3693 1662
25012 179738 197867 -15949 3693 1647
25010 179780 197916 -15948 3698 1637
25005 179782 197922 -15931 3687 1659
24997 179775 197902 -15932 3690 1668
25008 179787 197920 -15946 3706 1660
25024 179789 197915 -15955 3715 1658
25046 179802 197914 -15954 3716 1663
25077 179863 197972 -15944 3712 1655
25118 179926 198035 -15936 3718 1642
25159 179977 198083 -15932 3722 1642
25201 180014 198110 -15934 3721 1648
25241 180012 198086 -15942 3731 1654
25287 180034 198092 -15938 3726 1675
25340 180122 198175 -15948 3733 1679
25390 180135 198165 -15950 3738 1685
25435 180098 198114 -15945 3742 1691
25480 180050 198039 -15942 3741 1687
25520 180054 198040 -15929 3738 1678
25534 180086 198084 -15912 3730 1676
25472 180043 198092 -15910 3713 1680
25345 179937 198027 -15907 3690 1705
25190 179804 197947 -15851 3622 1785
25057 179722 197897 -15888 3618 1762
24967 179696 197897 -15950 3649 1729
24902 179661 197866 -15980 3692 1704
24857 179637 197840 -15988 3728 1687
24826 179609 197803 -15989 3760 1686
24807 179617 197815 -15977 3782 1682
24808 179648 197841 -15954 3787 1679
24828 179679 197865 -15931 3786 1682
24849 179684 197854 -15912 3774 1710
24862 179659 197819 -15904 3764 1757
24866 179647 197811 -15913 3757 1780
24858 179637 197798 -15921 3751 1791
24850 179666 197842 -15917 3753 1782
24840 179656 197840 -15923 3753 1761
24837 179647 197819 -15939 3758 1760
24841 179644 197810 -15948 3754 1763
24856 179640 197807 -15949 3743 1754
24873 179632 197783 -15938 3748 1747
24899 179627 197769 -15918 3742 1748
24926 179646 197784 -15899 3719 1758
24962 179674 197801 -15893 3728 1759
25000 179699 197805 -15904 3751 1749
25045 179756 197860 -15913 3755 1734
25099 179881 197991 -15920 3757 1720
25158 180034 198141 -15934 3769 1721
25216 180136 198245 -15942 3772 1741
25271 180198 198288 -15933 3767 1753
25334 180320 198400 -15923 3767 1753
25395 180393 198471 -15925 3755 1759
25445 180489 198563 -15914 3728 1780
25455 180579 198686 -15901 3721 1785
25385 180591 198758 -15907 3732 1765
25259 180617 198850 -15917 3726 1755
25117 180597 198890 -15909 3716 1755
24995 180566 198885 -15890 3710 1757
24912 180561 198897 -15899 3713 1753
24863 180614 198971 -15948 3719 1746
24831 180688 199050 -15984 3719 1759
24816 180752 199123 -15990 3720 1774
24804 180777 199139 -15962 3658 1790
24805 180811 199170 -15959 3648 1780
24832 180873 199221 -15938 3642 1773
24860 180957 199303 -15916 3640 1759
24878 181024 199367 -15906 3645 1744
24883 181100 199451 -15906 3644 1749
24875 181158 199529 -15904 3649 1753
24873 181254 199634 -15920 3661 1743
24873 181308 199698 -15943 3667 1734
24870 181321 199698 -15947 3646 1758
24878 181310 199687 -15953 3652 1759
24893 181314 199685 -15946 3668 1755
24920 181388 199755 -15940 3673 1753
24959 181497 199870 -15941 3675 1752
24999 181594 199952 -15942 3675 1761
25034 181629 199968 -15943 3677 1761
25072 181631 199968 -15941 3684 1746
25113 181672 199986 -15945 3690 1735
25158 181727 200040 -15948 3696 1746
25208 181820 200120 -15950 3681 1770
25262 181899 200188 -15944 3671 1758
25317 181978 200265 -15934 3672 1736
25368 182012 200276 -15930 3668 1729
25418 181993 200237 -15928 3667 1729
25470 182022 200261 -15928 3674 1736
25497 182028 200273 -15936 3667 1743
25453 181977 200261 -15940 3641 1758
25343 181917 200258 -15933 3618 1775
25201 181879 200274 -15926 3613 1775
25072 181847 200284 -15939 3624 1765
24978 181825 200287 -15988 3645 1758
24918 181790 200240 -16028 3670 1776
24881 181784 200234 -16019 3673 1794
24868 181835 200286 -15994 3665 1777
24863 181879 200325 -15970 3661 1751
24874 181935 200383 -15946 3648 1734
24904 182005 200441 -15937 3622 1718
24935 182027 200448 -15935 3601 1718
24947 182039 200456 -15937 3582 1725
24946 182047 200471 -15949 3524 1740
24928 182014 200440 -15961 3519 1713
24913 182022 200455 -15975 3509 1705
24898 182023 200452 -15987 3498 1717
24893 181994 200432 -15991 3499 1723
24896 181974 200406 -15980 3503 1719
24905 181934 200349 -15968 3510 1710
24914 181878 200283 -15965 3521 1701
24937 181856 200249 -15972 3532 1705
24958 181810 200195 -15976 3554 1716
24981 181755 200114 -15969 3577 1711
25012 181704 200051 -15965 3589 1699
25045 181664 199983 -15965 3586 1687
25079 181624 199929 -15967 3582 1699
25124 181628 199924 -15965 3578 1706
25165 181629 199917 -15963 3571 1707
25210 181608 199881 -15959 3564 1722
25256 181583 199832 -15963 3563 1733
25302 181539 199765 -15964 3559 1748
25349 181537 199753 -15969 3551 1762
25399 181604 199816 -15983 3554 1764
25389 181581 199825 -15959 3550 1770
25305 181531 199814 -15930 3549 1777
25168 181425 199772 -15966 3577 1765
25020 181267 199649 -16005 3606 1766
24901 181086 199468 -16004 3612 1786
24819 180924 199304 -16005 3602 1807
24771 180823 199202 -15991 3601 1792
24743 180730 199092 -15962 3602 1759
24731 180689 199050 -15944 3582 1767
24730 180634 198981 -15936 3570 1775
24747 180606 198935 -15933 3578 1761
24772 180558 198859 -15952 3583 1745
24785 180520 198816 -15963 3580 1739
24791 180523 198831 -15958 3584 1737
24778 180503 198820 -15973 3591 1733
24762 180496 198817 -15987 3604 1734
24756 180515 198841 -15980 3604 1728
24750 180506 198834 -15964 3598 1726
24755 180481 198796 -15943 3588 1723
24765 180451 198771 -15932 3584 1716
24784 180451 198755 -15925 3602 1708
24806 180438 198727 -15927 3614 1698
24831 180426 198711 -15954 3618 1700
24863 180440 198710 -15972 3623 1711
24899 180441 198694 -15980 3627 1724
24936 180448 198699 -15986 3630 1726
24977 180483 198715 -15973 3639 1729
25019 180480 198702 -15959 3644 1734
25057 180477 198680 -15930 3611 1764
25103 180499 198687 -15928 3620 1766
25151 180516 198685 -15939 3634 1759
25204 180539 198711 -15944 3639 1749
25259 180589 198745 -15949 3647 1741
25310 180643 198794 -15963 3644 1741
25326 180647 198807 -15959 3631 1753
25263 180569 198770 -15937 3632 1764
25124 180456 198706 -15930 3634 1759
24971 180354 198666 -15984 3633 1785
24832 180305 198656 -16006 3640 1803
24742 180316 198697 -15999 3634 1804
24678 180328 198712 -15971 3615 1785
24636 180301 198681 -15948 3607 1763
24598 180238 198610 -15937 3600 1752
24569 180189 198552 -15933 3596 1742
24560 180166 198532 -15928 3601 1735
24576 180200 198550 -15942 3602 1733
24599 180249 198584 -15943 3594 1749
24609 180249 198594 -15931 3590 1764
24607 180285 198628 -15941 3597 1750
24594 180267 198611 -15951 3615 1732
24568 180226 198576 -15951 3622 1728
24546 180190 198538 -15950 3610 1720
24527 180125 198473 -15943 3614 1714
24528 180136 198479 -15933 3618 1699
24540 180161 198510 -15941 3623 1691
24562 180197 198556 -15948 3637 1699
24595 180292 198664 -15944 3645 1707
24644 180451 198832 -15934 3641 1711
24695 180589 198967 -15934 3636 1701
24743 180658 199026 -15941 3637 1706
24769 180586 198896 -15927 3638 1715
24797 180601 198872 -15923 3637 1719
24817 180621 198836 -15951 3603 1741
24790 180242 198385 -16009 3546 1769
24734 179662 197734 -16062 3520 1778
24710 179255 197285 -16042 3541 1740
24683 178836 196822 -15981 3563 1709
24685 178587 196547 -15939 3479 1723
24716 178514 196441 -15948 3473 1706
24756 178478 196398 -15955 3499 1680
24814 178571 196484 -15974 3506 1675
24871 178673 196596 -15975 3488 1697
24892 178766 196729 -15962 3478 1720
24843 178865 196888 -15977 3504 1721
24738 179010 197136 -16016 3556 1714
24607 179146 197352 -16044 3587 1718
24480 179181 197444 -16008 3569 1746
24378 179164 197462 -15977 3581 1723
24304 179138 197464 -15968 3572 1704
24258 179166 197504 -15978 3530 1708
24224 179146 197489 -15980 3498 1728
24188 179077 197413 -15980 3493 1746
24159 179009 197344 -15995 3504 1751
24159 178992 197315 -15989 3512 1744
24174 179004 197321 -15981 3524 1740
24184 178990 197303 -15976 3534 1732
24185 178988 197307 -15965 3537 1728
24172 178957 197274 -15956 3546 1727
24161 178985 197307 -15950 3562 1704
24149 178977 197318 -15957 3576 1682
24138 178957 197309 -15966 3576 1683
24136 178948 197287 -15967 3564 1703
24149 178985 197323 -15963 3551 1731
24171 179035 197371 -15963 3536 1758
24195 179035 197363 -15978 3529 1771
24221 179013 197332 -15994 3530 1768
24249 179003 197302 -15989 3518 1774
24287 179001 197295 -15979 3530 1777
24325 179007 197284 -15966 3543 1764
24373 179055 197327 -15963 3533 1763
24423 179135 197395 -15971 3526 1776
24467 179159 197406 -15978 3525 1788
24516 179182 197412 -15983 3545 1805
24568 179205 197417 -15980 3569 1815
24616 179188 197386 -15985 3574 1818
24672 179239 197416 -15994 3569 1833
24723 179312 197502 -15979 3564 1859
24733 179341 197548 -15950 3564 1860
24669 179299 197552 -15942 3567 1844
24540 179239 197553 -15977 3568 1836
24394 179152 197526 -16004 3567 1844
24263 179072 197473 -16010 3566 1860
24165 179024 197441 -16004 3556 1864
24096 179004 197436 -15984 3538 1858
24046 178991 197425 -15967 3526 1860
24012 178986 197417 -15953 3513 1861
23982 178963 197396 -15920 3506 1866
23963 178908 197322 -15920 3513 1843
23969 178871 197272 -15917 3523 1824
23988 178857 197241 -15919 3538 1825
24005 178844 197216 -15937 3548 1823
24014 178860 197243 -15966 3566 1821
24009 178850 197234 -15980 3587 1821
23998 178844 197232 -15978 3593 1829
23988 178813 197207 -15972 3592 1840
23985 178771 197157 -15946 3593 1842
23991 178768 197150 -15932 3591 1849
24003 178778 197136 -15939 3591 1874
24021 178761 197118 -15946 3597 1895
24048 178759 197113 -15953 3605 1898
24080 178802 197139 -15966 3612 1902
24119 178852 197182 -15972 3614 1903
24157 178856 197184 -15969 3604 1905
24199 178868 197170 -15962 3585 1930
24244 178900 197183 -15960 3569 1926
24294 178938 197207 -15964 3552 1927
24350 178982 197239 -15958 3526 1955
24408 179010 197259 -15951 3515 1956
24462 179005 197232 -15952 3510 1957
24511 178984 197194 -15947 3502 1975
24550 179010 197217 -15931 3509 1986
24536 178975 197212 -15939 3532 1974
24443 178890 197183 -15978 3551 1949
24308 178828 197177 -16002 3555 1930
24161 178742 197135 -15999 3566 1922
24043 178652 197068 -15988 3573 1916
23961 178578 197016 -15958 3555 1926
23906 178526 196965 -15953 3544 1900
23866 178498 196931 -15945 3537 1895
23842 178493 196919 -15937 3538 1885
23829 178486 196913 -15960 3542 1873
23840 178550 196968 -15956 3551 1877
23874 178628 197037 -15942 3561 1889
23903 178654 197050 -15957 3575 1883
23917 178642 197029 -15968 3588 1869
23924 178638 197021 -15957 3585 1879
23917 178619 197003 -15936 3585 1878
23905 178591 196992 -15926 3591 1858
23901 178580 196980 -15923 3599 1847
23907 178571 196959 -15932 3612 1844
23922 178560 196949 -15935 3620 1851
23943 178566 196935 -15928 3633 1849
23972 178567 196936 -15921 3640 1859
24007 178582 196931 -15919 3637 1862
24043 178592 196939 -15925 3642 1861
24088 178626 196955 -15936 3651 1930
24145 178741 197072 -15946 3653 1947
24202 178845 197158 -15942 3664 1930
24255 178878 197177 -15933 3671 1908
24305 178887 197171 -15943 3675 1894
24357 178919 197197 -15947 3673 1879
24422 179008 197278 -15943 3664 1862
24481 179056 197314 -15943 3662 1841
24541 179066 197298 -15940 3655 1838
24598 179068 197277 -15936 3628 1860
24659 179098 197282 -15908 3583 1882
24715 179148 197340 -15891 3559 1886
24728 179156 197362 -15936 3566 1878
24660 179054 197307 -15984 3571 1878
24527 178946 197260 -16002 3569 1895
24384 178884 197237 -16005 3558 1903
24265 178801 197194 -15996 3545 1896
24183 178777 197192 -15976 3530 1884
24138 178774 197184 -15959 3523 1871
24106 178722 197120 -15952 3517 1862
24091 178713 197125 -15949 3508 1864
24088 178725 197124 -15952 3512 1854
24099 178752 197132 -15952 3526 1835
24132 178790 197162 -15946 3545 1825
24166 178802 197161 -15946 3552 1807
24184 178773 197121 -15953 3554 1796
24191 178761 197107 -15958 3557 1801
24183 178728 197093 -15958 3563 1792
24174 178709 197063 -15955 3575 1770
24170 178695 197044 -15946 3587 1757
24170 178650 196992 -15947 3570 1801
24181 178668 197015 -15957 3588 1788
24207 178731 197070 -15961 3602 1778
24233 178735 197069 -15962 3612 1788
24268 178763 197093 -15969 3612 1802
24308 178815 197128 -15969 3599 1800
24348 178849 197149 -15955 3592 1798
24396 178886 197176 -15944 3585 1793
24445 178925 197201 -15935 3574 1783
24500 178993 197265 -15933 3557 1794
24557 179065 197316 -15929 3563 1813
24613 179115 197361 -15933 3586 1821
24668 179142 197365 -15949 3593 1812
24721 179144 197357 -15959 3584 1814
24774 179147 197338 -15946 3573 1826
24832 179158 197332 -15932 3576 1829
24897 179212 197367 -15958 3597 1832
24950 179260 197414 -16002 3614 1817
24952 179234 197408 -16025 3605 1826
24875 179142 197364 -16020 3583 1854
24759 179095 197377 -15995 3572 1839
24640 179061 197399 -15966 3565 1812
24545 179040 197387 -15941 3550 1790
24487 179030 197390 -15924 3536 1785
24459 179027 197388 -15922 3534 1790
24453 179035 197382 -15935 3539 1782
24459 179060 197394 -15944 3550 1790
24477 179098 197419 -15951 3564 1807
24523 179158 197461 -15972 3566 1797
24567 179179 197467 -15960 3567 1780
24603 179191 197468 -15938 3569 1778
24623 179215 197487 -15945 3574 1785
24627 179207 197482 -15958 3586 1781
24629 179239 197527 -15958 3591 1764
24636 179282 197588 -15948 3592 1774
24631 179242 197532 -15946 3602 1800
24646 179207 197489 -15959 3614 1809
24668 179195 197469 -15976 3624 1808
24695 179198 197466 -15978 3627 1806
24730 179235 197492 -15966 3612 1810
24771 179269 197522 -15955 3597 1815
24817 179316 197550 -15944 3590 1811
24863 179351 197565 -15932 3582 1818
24912 179384 197591 -15927 3577 1831
24959 179392 197573 -15932 3587 1832
25012 179411 197586 -15941 3581 1830
25064 179424 197581 -15945 3577 1828
25121 179448 197590 -15955 3597 1832
25176 179463 197589 -15966 3600 1845
25236 179464 197578 -15921 3579 1894
25295 179500 197597 -15924 3587 1874
25360 179569 197657 -15969 3595 1853
25389 179589 197690 -16011 3604 1866
25335 179507 197647 -16020 3605 1887
25207 179373 197573 -16008 3592 1888
25060 179298 197546 -15984 3583 1872
24929 179223 197505 -15958 3579 1868
24834 179174 197478 -15940 3567 1874
24776 179158 197464 -15926 3546 1869
24744 179132 197432 -15926 3549 1858
24724 179118 197425 -15918 3558 1847
24718 179136 197436 -15923 3564 1849
24726 179186 197480 -15941 3570 1840
24755 179234 197512 -15949 3575 1841
24788 179234 197490 -15947 3573 1864
24810 179195 197445 -15938 3574 1880
24825 179207 197456 -15933 3585 1873
24826 179215 197460 -15933 3592 1867
24832 179281 197548 -15943 3587 1894
24829 179313 197578 -15948 3581 1913
24830 179293 197552 -15941 3588 1898
24834 179250 197504 -15941 3604 1886
24846 179218 197457 -15936 3615 1873
24872 179221 197454 -15936 3619 1864
24907 179267 197487 -15941 3615 1870
24947 179317 197520 -15937 3614 1889
24990 179341 197532 -15927 3626 1893
25034 179377 197554 -15924 3637 1883
25080 179385 197534 -15943 3587 1894
25129 179403 197545 -15948 3581 1913
25181 179412 197543 -15941 3588 1898
25233 179418 197524 -15941 3604 1886
25292 179447 197545 -15936 3615 1873
25347 179495 197583 -15936 3619 1864
25407 179534 197614 -15941 3615 1870
25463 179542 197595 -15937 3614 1889
25521 179517 197549 -15927 3626 1893
25579 179538 197560 -15924 3637 1883
25636 179598 197616 -15918 3622 1910
25639 179586 197629 -15926 3637 1906
25553 179464 197559 -15931 3643 1899
25390 179292 197464 -15929 3656 1891
25220 179133 197355 -15932 3663 1908
25076 178994 197247 -15947 3649 1938
24971 178904 197174 -15946 3633 1956
24899 178840 197109 -15922 3628 1948
24857 178820 197095 -15931 3631 1918
24835 178848 197128 -15966 3623 1914
24823 178902 197168 -15977 3625 1931
24821 178938 197207 -15973 3634 1924
24844 179022 197275 -15960 3632 1901
24876 179083 197322 -15941 3622 1869
24896 179111 197333 -15925 3608 1854
24906 179148 197373 -15915 3587 1857
24908 179184 197428 -15906 3577 1854
24904 179236 197484 -15910 3580 1844
24897 179259 197512 -15925 3576 1839
24891 179258 197520 -15908 3577 1872
24895 179258 197512 -15916 3597 1856
24908 179284 197536 -15930 3605 1840
24941 179370 197619 -15930 3608 1848
24973 179422 197652 -15932 3621 1853
25015 179536 197776 -15918 3634 1832
25078 179729 197976 -15901 3642 1819
25150 179967 198226 -15910 3650 1821
25223 180193 198457 -15927 3659 1825
25294 180403 198666 -15936 3660 1845
25367 180594 198847 -15944 3645 1873
25411 180524 198732 -15944 3640 1870
25427 180231 198386 -15936 3649 1849
25465 180159 198283 -15935 3658 1844
25486 179997 198051 -15928 3668 1843
25472 179578 197561 -15915 3666 1847
25427 178972 196888 -15897 3662 1850
25401 178576 196439 -15890 3662 1846
25416 178479 196323 -15914 3646 1847
25432 178375 196202 -15938 3614 1835
25445 178382 196199 -15974 3596 1828
25377 178215 196059 -16018 3635 1808
25246 178024 195935 -16003 3642 1819
25082 177909 195880 -15998 3575 1886
24922 177783 195816 -16012 3511 1923
24812 177829 195903 -15979 3490 1876
24764 178050 196165 -15923 3523 1777
24747 178250 196387 -15903 3562 1701
24727 178286 196440 -15917 3582 1657
24720 178335 196497 -15938 3589 1658
24718 178366 196532 -15962 3585 1700
24735 178418 196564 -15975 3566 1752
24767 178493 196626 -15984 3554 1784
24792 178490 196609 -15975 3546 1805
24801 178454 196573 -15973 3540 1818
24804 178478 196605 -15967 3543 1823
24797 178489 196633 -15953 3555 1823
24788 178511 196666 -15966 3555 1828
24785 178557 196724 -15977 3541 1842
24795 178631 196803 -15971 3547 1843
24805 178660 196824 -15991 3559 1882
24826 178668 196836 -15989 3578 1891
24856 178723 196890 -15969 3589 1886
24891 178755 196914 -15952 3598 1878
24928 178770 196914 -15945 3606 1858
24968 178762 196887 -15927 3619 1836
25005 178716 196820 -15911 3627 1845
25046 178677 196758 -15903 3630 1874
25096 178690 196766 -15904 3628 1879
25146 178709 196766 -15922 3612 1889
25191 178704 196742 -15924 3601 1918
25239 178666 196678 -15921 3604 1924
25287 178622 196606 -15927 3618 1920
25345 178634 196603 -15933 3625 1943
25400 178660 196609 -15937 3619 1960
25437 178676 196637 -15946 3618 1943
25405 178651 196639 -15944 3620 1934
25294 178547 196602 -15930 3625 1943
25140 178454 196564 -15925 3632 1944
24989 178304 196451 -15928 3631 1948
24867 178185 196354 -15927 3616 1960
24795 178187 196370 -15908 3623 1953
24751 178198 196383 -15903 3653 1924
24723 178201 196379 -15943 3667 1899
24708 178191 196366 -15974 3681 1901
24707 178216 196382 -15967 3683 1919
24723 178220 196366 -15951 3670 1919
24754 178241 196371 -15935 3653 1912
24784 178290 196419 -15914 3631 1911
24804 178394 196518 -15889 3621 1904
24800 178381 196514 -15885 3603 1953
24782 178333 196452 -15891 3599 1960
24771 178322 196463 -15892 3608 1970
24759 178289 196417 -15916 3621 1967
24756 178249 196362 -15946 3626 1967
24759 178229 196327 -15954 3646 1962
24774 178221 196315 -15943 3656 1957
24796 178234 196315 -15930 3647 1952
24819 178210 196279 -15923 3642 1954
24847 178191 196238 -15928 3632 1991
24877 178186 196226 -15930 3646 1978
24915 178190 196215 -15928 3655 1979
24952 178192 196201 -15934 3653 1986
25001 178234 196230 -15939 3646 1990
25046 178241 196219 -15930 3638 1983
25100 178279 196238 -15913 3627 1987
25158 178355 196309 -15905 3616 1996
25206 178369 196303 -15908 3608 1991
25227 178335 196269 -15907 3594 1991
25175 178243 196220 -15931 3581 1989
25059 178184 196214 -15938 3568 1997
24922 178151 196239 -15935 3559 2004
24787 178037 196160 -15940 3565 2007
24688 177954 196100 -15972 3585 1996
24630 177954 196097 -15994 3593 2001
24599 177961 196104 -15989 3592 2016
24590 178006 196147 -15969 3582 1998
24595 178044 196184 -15942 3562 1978
24617 178089 196208 -15916 3544 1969
24662 178185 196299 -15900 3536 1962
24695 178250 196352 -15892 3535 1948
24716 178297 196400 -15895 3535 1928
24719 178319 196429 -15897 3531 1937
24710 178352 196478 -15904 3529 1946
24707 178410 196548 -15940 3531 1935
24702 178424 196560 -15965 3533 1939
24702 178439 196577 -15967 3540 1961
24710 178440 196569 -15967 3541 1970
24727 178471 196595 -15948 3526 1955
24749 178518 196637 -15952 3533 1961
24783 178595 196700 -15958 3553 1982
24819 178656 196760 -15957 3557 1991
24857 178684 196773 -15950 3556 1984
24895 178720 196802 -15947 3556 1971
24935 178724 196805 -15939 3570 1972
24978 178763 196830 -15935 3578 1982
25023 178797 196843 -15929 3571 1984
25076 178827 196853 -15920 3548 2013
25126 178857 196876 -15923 3561 2029
25178 178917 196929 -15933 3580 2037
25189 178898 196933 -15938 3570 2046
25117 178820 196890 -15916 3556 2051
24975 178727 196862 -15902 3564 2060
24816 178626 196812 -15918 3588 2050
24677 178564 196797 -15949 3610 2046
24578 178558 196810 -15976 3621 2078
24514 178549 196804 -15958 3586 2139
24475 178553 196822 -15948 3584 2113
24456 178586 196843 -15932 3585 2067
24448 178592 196850 -15913 3582 2043
24458 178628 196883 -15904 3586 2044
24492 178708 196940 -15904 3578 2042
24524 178757 196987 -15900 3569 2040
24540 178791 197015 -15893 3576 2061
24531 178746 196970 -15910 3577 2065
24517 178733 196962 -15923 3582 2043
24505 178753 196997 -15926 3595 2025
24495 178791 197044 -15931 3600 2006
24496 178843 197096 -15931 3595 2001
24507 178859 197105 -15933 3593 2011
24518 178850 197081 -15933 3593 2011
24538 178863 197101 -15935 3598 2018
24570 178925 197153 -15929 3609 2035
24600 178925 197134 -15924 3608 2041
24632 178937 197137 -15922 3605 2036
24671 178954 197149 -15912 3576 2103
24707 178968 197139 -15910 3555 2120
24748 179001 197160 -15909 3556 2116
24790 179011 197149 -15910 3554 2137
24838 179030 197166 -15910 3542 2137
24894 179090 197211 -15916 3532 2140
24949 179112 197223 -15928 3527 2153
24999 179128 197228 -15938 3535 2156
25022 179132 197237 -15936 3543 2139
24973 179056 197199 -15913 3548 2103
24837 178944 197149 -15924 3568 2042
24655 178815 197084 -15940 3585 2016
24476 178685 197012 -15945 3593 2023
24333 178603 196960 -15945 3595 2055
24236 178529 196905 -15941 3590 2086
24169 178510 196893 -15937 3565 2109
24128 178527 196912 -15944 3526 2144
24095 178530 196921 -15933 3508 2173
24072 178512 196900 -15920 3500 2190
24074 178548 196925 -15911 3480 2183
24091 178582 196949 -15914 3501 2172
24108 178604 196963 -15930 3522 2154
24123 178720 197087 -15943 3541 2126
24131 178884 197282 -15942 3551 2113
24123 179022 197428 -15935 3562 2117
24117 179156 197583 -15923 3568 2115
24119 179302 197751 -15913 3573 2107
24120 179394 197859 -15920 3583 2094
24131 179494 197954 -15916 3579 2101
24150 179579 198037 -15917 3567 2128
24169 179610 198059 -15932 3566 2133
24191 179611 198052 -15932 3573 2120
24215 179565 197988 -15927 3575 2110
24241 179509 197909 -15925 3577 2119
24277 179504 197896 -15920 3579 2133
24324 179541 197909 -15916 3572 2140
24365 179533 197890 -15910 3565 2151
24407 179527 197870 -15905 3564 2156
24449 179479 197798 -15911 3554 2150
24491 179426 197729 -15915 3533 2150
24535 179381 197663 -15909 3536 2136
24583 179343 197603 -15911 3553 2126
24634 179359 197611 -15919 3563 2139
24679 179356 197598 -15920 3566 2133
24676 179286 197540 -15917 3559 2133
24580 179133 197441 -15931 3568 2124
24421 179038 197423 -15954 3580 2124
24240 178915 197353 -15968 3576 2141
24077 178756 197238 -15968 3574 2141
23958 178676 197176 -15941 3547 2127
23876 178622 197133 -15931 3543 2112
23823 178588 197095 -15915 3541 2121
23783 178565 197080 -15906 3534 2116
23757 178567 197080 -15924 3535 2094
23743 178575 197083 -15938 3538 2091
23757 178609 197111 -15925 3535 2107
23779 178640 197134 -15925 3540 2103
23790 178630 197113 -15928 3554 2089
23786 178594 197083 -15912 3550 2094
23763 178522 197002 -15902 3569 2081
23747 178540 197032 -15899 3586 2084
23731 178558 197057 -15912 3590 2106
23721 178542 197040 -15927 3595 2131
23723 178532 197026 -15926 3603 2149
23729 178529 197018 -15927 3612 2151
23745 178520 196995 -15929 3612 2152
23765 178499 196967 -15922 3598 2147
23791 178517 196980 -15920 3579 2139
23828 178580 197030 -15908 3563 2153
23864 178585 197020 -15900 3565 2159
23906 178618 197035 -15908 3584 2142
23956 178661 197059 -15916 3594 2132
23998 178664 197047 -15923 3587 2135
24050 178687 197057 -15927 3587 2137
24099 178715 197072 -15925 3586 2122
24146 178721 197053 -15920 3571 2116
24206 178793 197130 -15924 3572 2117
24264 178815 197129 -15934 3580 2119
24320 178851 197156 -15940 3573 2127
24383 178938 197229 -15928 3575 2143
24431 178953 197243 -15909 3584 2142
24440 178944 197253 -15924 3588 2121
24360 178858 197218 -15953 3588 2121
24218 178800 197236 -15968 3588 2115
24058 178742 197247 -15955 3589 2096
23917 178691 197238 -15943 3584 2089
23817 178666 197235 -15938 3572 2077
23752 178609 197183 -15912 3567 2067
23706 178566 197138 -15884 3557 2079
23675 178522 197093 -15888 3550 2083
23664 178518 197085 -15910 3548 2075
23663 178512 197072 -15918 3535 2083
23691 178566 197118 -15920 3533 2090
23724 178615 197142 -15936 3543 2073
23744 178611 197127 -15943 3551 2055
23750 178622 197138 -15937 3561 2059
23743 178604 197130 -15927 3571 2061
23727 178586 197133 -15919 3571 2039
23723 178626 197184 -15912 3562 2035
23727 178695 197275 -15923 3577 2041
23751 178847 197449 -15933 3586 2055
23791 179058 197668 -15944 3596 2075
23829 179157 197790 -15984 3581 2088
23878 179300 197951 -16016 3573 2066
23927 179399 198046 -15980 3605 1991
23971 179376 198025 -15904 3620 1904
24014 179307 197947 -15888 3582 1879
24053 179173 197792 -15968 3470 2014
24101 179130 197753 -15950 3474 2012
24162 179140 197743 -15940 3487 1949
24207 178996 197568 -15969 3474 1878
24238 178776 197303 -16060 3444 1858
24240 178378 196828 -16084 3423 1903
24227 178036 196394 -15960 3458 1907
24178 177516 195775 -15858 3504 1846
24124 176978 195177 -15893 3490 1829
24099 176565 194701 -15964 3422 1876
24099 176284 194362 -15987 3370 1930
24128 176235 194272 -15980 3391 1921
24169 176314 194338 -15959 3429 1905
24164 176383 194427 -15965 3444 1954
24076 176353 194458 -16003 3439 2033
23942 176406 194604 -16034 3418 2079
23815 176566 194845 -16026 3422 2075
23718 176733 195076 -15989 3436 2061
23650 176831 195213 -15953 3439 2059
23615 176943 195347 -15910 3446 2064
23617 177147 195568 -15894 3466 2063
23632 177347 195789 -15923 3467 2083
23640 177387 195830 -15947 3458 2120
23654 177345 195772 -15971 3462 2137
23692 177387 195802 -15990 3464 2130
23728 177443 195849 -15980 3480 2103
23754 177472 195882 -15957 3501 2082
23761 177465 195880 -15945 3513 2074
23757 177474 195900 -15936 3531 2059
24093 177932 196327 -15915 3544 2061
24148 177975 196362 -15918 3552 2063
24205 178016 196392 -15935 3562 2039
24263 178052 196418 -15942 3560 2035
24329 178117 196463 -15953 3564 2043
24394 178151 196481 -15956 3575 2030
24461 178220 196543 -15944 3577 2013
24525 178242 196554 -15934 3571 2015
24574 178256 196549 -15921 3557 2031
24582 178264 196576 -15906 3546 2034
24518 178216 196585 -15890 3532 2053
24393 178138 196563 -15899 3548 2055
24252 178025 196509 -15909 3553 2075
24133 177932 196437 -15925 3545 2110
24054 177894 196418 -15938 3542 2137
24009 177876 196409 -15928 3538 2166
23987 177874 196410 -15918 3533 2189
23978 177888 196419 -15937 3549 2186
23975 177860 196378 -15961 3569 2188
23995 177878 196374 -15964 3567 2191
24039 177923 196397 -15959 3561 2195
24074 177920 196370 -15962 3560 2195
24092 177869 196312 -15965 3542 2188
24097 177850 196293 -15948 3525 2171
24095 177853 196304 -15920 3516 2150
24084 177830 196278 -15902 3513 2156
24082 177813 196269 -15907 3516 2157
24086 177824 196266 -15913 3511 2164
24106 177861 196304 -15913 3515 2153
24129 177895 196324 -15917 3527 2109
24156 177896 196320 -15923 3519 2104
24187 177914 196321 -15935 3523 2125
24222 177928 196321 -15941 3539 2134
24262 177947 196321 -15950 3539 2137
24307 177979 196340 -15944 3542 2131
24356 178030 196393 -15935 3557 2118
24408 178090 196435 -15937 3572 2124
24462 178112 196433 -15945 3585 2146
24514 178119 196416 -15946 3588 2160
24573 178122 196409 -15931 3574 2155
