2025-10-08 21:22:38    绿光---红外光---红光---X轴---Y轴---Z轴
24136 177396 195613 -15976 3425 2000
24170 177427 195635 -15970 3435 2003
24197 177405 195586 -15975 3449 2003
24231 177418 195599 -15976 3464 1991
24267 177393 195567 -15984 3472 1976
24304 177378 195539 -15982 3481 1945
24351 177456 195608 -15977 3491 1929
24401 177518 195658 -15970 3499 1923
24452 177537 195662 -15966 3496 1900
24510 177595 195710 -15957 3490 1875
24560 177610 195715 -15961 3494 1846
24568 177548 195663 -15970 3498 1839
24499 177471 195632 -15965 3493 1853
24355 177403 195649 -15943 3485 1870
24187 177361 195687 -15964 3499 1902
24029 177275 195648 -16007 3517 1895
23907 177221 195627 -16017 3526 1888
23825 177195 195619 -16004 3534 1893
23778 177200 195626 -15993 3541 1869
23745 177207 195629 -15981 3543 1829
23719 177190 195619 -15976 3538 1805
23708 177185 195612 -15959 3525 1793
23725 177234 195646 -15934 3519 1782
23754 177300 195707 -15925 3509 1781
23773 177346 195753 -15914 3496 1813
23775 177372 195785 -15914 3501 1834
23755 177324 195732 -15946 3512 1837
23726 177247 195669 -15966 3532 1832
23707 177243 195690 -15968 3552 1833
23694 177298 195733 -15963 3563 1845
23692 177325 195760 -15954 3560 1837
23699 177343 195779 -15946 3556 1820
23710 177346 195774 -15954 3563 1806
23730 177348 195775 -15966 3560 1804
23756 177385 195798 -15960 3557 1834
23786 177398 195807 -15961 3560 1854
23822 177426 195819 -15982 3566 1844
23863 177460 195850 -15990 3572 1832
23906 177499 195886 -15990 3564 1828
23949 177562 195929 -15989 3551 1838
23988 177547 195889 -15970 3554 1850
24029 177522 195846 -15951 3552 1860
24080 177551 195860 -15956 3550 1852
24131 177597 195895 -15968 3549 1844
24185 177628 195921 -15957 3531 1862
24217 177655 195942 -15961 3527 1868
24179 177575 195893 -15976 3533 1850
24064 177484 195888 -15967 3533 1831
23896 177416 195907 -15951 3538 1831
23717 177282 195834 -15951 3540 1845
23569 177155 195736 -15976 3549 1844
23469 177157 195769 -16004 3563 1844
23402 177162 195782 -16012 3561 1857
23352 177151 195777 -16005 3548 1867
23317 177170 195797 -15964 3519 1858
23287 177152 195792 -15955 3509 1840
23275 177149 195787 -15945 3504 1840
23285 177170 195787 -15950 3505 1839
23306 177192 195808 -15976 3517 1820
23312 177181 195800 -15980 3524 1814
23302 177122 195737 -15962 3529 1815
23272 176938 195559 -15961 3536 1793
23240 176806 195425 -15978 3543 1788
23222 176764 195397 -15987 3535 1818
23207 176729 195348 -15979 3527 1841
23206 176708 195330 -15967 3542 1830
23217 176753 195364 -15962 3548 1815
23236 176781 195394 -15960 3549 1825
23262 176821 195427 -15953 3555 1836
23294 176863 195461 -15952 3563 1836
23331 176904 195490 -15948 3568 1829
23369 176931 195500 -15947 3564 1819
23417 176985 195544 -15952 3560 1827
23473 177094 195637 -15950 3552 1851
23537 177226 195758 -15940 3539 1884
23599 177341 195866 -15939 3538 1899
23669 177489 196014 -15948 3537 1902
23729 177573 196083 -15956 3544 1915
23778 177551 196052 -15961 3554 1916
23824 177534 196017 -15971 3551 1910
23872 177523 195984 -15978 3551 1912
23922 177481 195925 -15970 3551 1904
23974 177464 195889 -15968 3552 1904
24027 177485 195894 -15961 3549 1911
24070 177465 195867 -15954 3527 1935
24060 177345 195758 -15947 3543 1916
23962 177155 195629 -15912 3549 1891
23810 177068 195627 -15901 3566 1876
23645 176996 195625 -15942 3568 1889
23501 176932 195612 -15985 3571 1914
23407 176932 195641 -16002 3587 1926
23343 176952 195673 -16005 3590 1928
23298 176962 195695 -15995 3591 1923
23268 176975 195710 -15942 3549 1925
23242 176984 195724 -15920 3542 1918
23232 177003 195729 -15918 3555 1903
23242 177050 195761 -15932 3552 1892
23267 177076 195786 -15930 3537 1897
23293 177115 195804 -15912 3538 1887
23308 177197 195895 -15920 3549 1871
23302 177188 195888 -15942 3560 1852
23288 177148 195859 -15954 3565 1850
23271 177137 195861 -15958 3563 1873
23262 177126 195845 -15954 3561 1889
23260 177121 195842 -15949 3560 1879
23270 177123 195841 -15949 3564 1859
23287 177137 195832 -15959 3561 1859
23312 177119 195808 -15962 3557 1865
23344 177119 195796 -15959 3564 1870
23383 177166 195835 -15961 3565 1883
23426 177189 195844 -15967 3552 1890
23471 177232 195879 -15972 3545 1900
23526 177286 195913 -15968 3526 1920
23573 177282 195890 -15958 3501 1933
23625 177284 195880 -15955 3501 1922
23685 177358 195935 -15956 3502 1912
23745 177400 195958 -15961 3496 1910
23799 177418 195955 -15957 3488 1905
23853 177432 195956 -15953 3483 1898
23908 177460 195964 -15963 3484 1902
23964 177480 195976 -15971 3485 1921
24018 177502 195981 -15982 3481 1925
24075 177557 196021 -15989 3474 1908
24127 177563 196009 -15973 3469 1907
24182 177534 195957 -15974 3478 1888
24235 177540 195958 -15975 3471 1898
24279 177566 195978 -15957 3455 1902
24256 177505 195948 -15937 3460 1892
24158 177429 195938 -15949 3489 1875
24023 177388 195972 -15991 3511 1865
23887 177290 195931 -16027 3520 1867
23785 177240 195905 -16034 3527 1867
23716 177183 195851 -15973 3502 1837
23675 177118 195778 -15953 3486 1822
23667 177171 195838 -15934 3477 1809
23661 177158 195806 -15926 3480 1808
23672 177190 195837 -15945 3486 1810
23695 177225 195848 -15961 3488 1822
23731 177224 195828 -15974 3492 1827
23757 177208 195801 -16002 3499 1825
23774 177182 195767 -16018 3503 1828
23769 177131 195711 -16001 3503 1853
23753 177090 195686 -15992 3514 1821
23740 177071 195682 -15982 3523 1805
23733 177051 195663 -15979 3522 1810
23730 177027 195631 -15971 3518 1805
23743 177028 195626 -15966 3521 1800
23761 177041 195633 -15974 3517 1801
23786 177053 195631 -15990 3509 1804
23818 177093 195661 -15992 3503 1813
23857 177137 195693 -15966 3493 1827
23900 177189 195719 -15952 3485 1854
23947 177223 195752 -15953 3482 1854
23993 177239 195761 -15946 3480 1829
24041 177273 195783 -15952 3480 1816
24093 177314 195802 -15957 3495 1818
24147 177368 195838 -15953 3498 1823
24202 177401 195858 -15966 3492 1821
24258 177438 195882 -15985 3499 1838
24312 177486 195913 -15981 3509 1857
24370 177536 195963 -15979 3517 1852
24430 177609 196024 -15997 3504 1845
24487 177634 196024 -15998 3492 1850
24538 177635 196016 -15968 3494 1850
24593 177652 196021 -15930 3495 1843
24626 177670 196041 -15928 3504 1838
24597 177635 196048 -15966 3513 1837
24502 177581 196055 -15998 3519 1856
24377 177536 196070 -16007 3523 1871
24258 177453 196036 -16009 3526 1872
24171 177423 196031 -15996 3516 1867
24123 177431 196037 -15947 3457 1891
24094 177403 196015 -15945 3462 1888
24091 177446 196048 -15951 3465 1879
24099 177498 196097 -15956 3461 1870
24113 177514 196106 -15953 3461 1875
24153 177590 196153 -15969 3469 1877
24197 177618 196161 -16004 3485 1864
24226 177610 196143 -16017 3498 1858
24240 177619 196152 -15999 3491 1864
24241 177577 196118 -15985 3484 1892
24240 177603 196152 -15984 3492 1908
24238 177631 196182 -15979 3498 1890
24241 177655 196199 -15973 3485 1883
24254 177660 196207 -15971 3485 1893
24267 177656 196193 -15985 3495 1889
24293 177672 196197 -15995 3499 1875
24326 177709 196217 -15985 3507 1858
24361 177735 196232 -15965 3512 1849
24402 177749 196239 -15943 3520 1856
24445 177773 196245 -15930 3504 1870
24484 177732 196180 -15935 3480 1898
24534 177770 196199 -15937 3483 1903
24587 177804 196207 -15936 3503 1893
24640 177826 196217 -15936 3527 1894
24695 177853 196232 -15935 3544 1882
24755 177902 196254 -15944 3553 1867
24814 177943 196285 -15960 3556 1870
24869 177961 196286 -15984 3551 1885
24924 177986 196299 -16004 3553 1896
24980 178030 196318 -16012 3551 1924
25043 178079 196365 -16003 3531 1956
25102 178126 196395 -15971 3511 1969
25151 178155 196413 -15947 3509 1984
25158 178117 196390 -15952 3514 1989
25086 177985 196311 -15978 3523 1966
24955 177886 196282 -15982 3533 1946
24802 177788 196249 -15949 3538 1928
24665 177685 196183 -15917 3532 1903
24569 177651 196169 -15898 3521 1879
24502 177600 196126 -15894 3505 1865
24450 177517 196032 -15889 3469 1929
24420 177460 195973 -15897 3470 1940
24404 177441 195950 -15934 3479 1943
24397 177395 195893 -15964 3506 1976
24397 177306 195782 -15960 3532 2020
24417 177300 195749 -15967 3550 2016
24435 177283 195724 -15982 3567 1989
24457 177335 195773 -15977 3591 1982
24457 177340 195776 -15964 3611 2002
24441 177281 195716 -15955 3598 2024
24425 177237 195682 -15968 3605 1999
24411 177196 195631 -15972 3612 1998
24404 177131 195554 -15961 3608 2042
24409 177105 195510 -15946 3600 2076
24428 177105 195502 -15949 3589 2064
24458 177168 195558 -15949 3588 2045
24495 177237 195630 -15946 3576 2058
24531 177235 195601 -15946 3557 2084
24568 177228 195580 -15948 3537 2104
24603 177179 195505 -15937 3517 2116
24647 177177 195486 -15919 3530 2095
24700 177229 195522 -15930 3546 2064
24756 177298 195577 -15950 3546 2072
24810 177338 195599 -15954 3540 2082
24863 177362 195612 -15953 3528 2064
24919 177394 195614 -15950 3526 2049
24968 177377 195582 -15946 3524 2043
25019 177362 195551 -15937 3512 2044
25069 177392 195569 -15945 3501 2040
25122 177410 195571 -15960 3491 2038
25179 177437 195577 -15953 3479 2033
25229 177423 195541 -15933 3469 2029
25277 177398 195499 -15929 3478 2022
25315 177410 195528 -15962 3513 1996
25288 177408 195563 -15997 3532 1982
25187 177332 195550 -16001 3525 1985
25046 177247 195542 -15988 3510 1987
24910 177178 195519 -15963 3492 1981
24799 177090 195446 -15942 3484 1964
24723 177022 195395 -15960 3491 2038
24676 176976 195349 -15953 3479 2033
24653 176962 195327 -15933 3469 2029
24640 176953 195313 -15929 3478 2022
24645 176991 195356 -15962 3513 1996
24659 177063 195411 -15997 3532 1982
24690 177096 195417 -16001 3525 1985
24711 177055 195370 -15988 3510 1987
24721 177034 195336 -15963 3492 1981
24721 177020 195319 -15942 3484 1964
24712 177021 195330 -15930 3445 2006
24694 177021 195336 -15925 3446 2006
24674 176982 195296 -15935 3441 2015
24659 176932 195240 -15950 3440 2046
24669 177002 195312 -15949 3447 2063
24683 177045 195348 -15964 3461 2046
24696 177028 195328 -15985 3472 2036
24716 177021 195304 -15984 3472 2038
24739 177013 195279 -15983 3465 2035
24772 177020 195276 -15965 3460 2040
25289 177379 195460 -15932 3449 2023
25337 177383 195459 -15943 3451 2008
25388 177417 195477 -15952 3465 2014
25388 177366 195453 -15964 3463 2030
25324 177304 195447 -15965 3461 2046
25213 177259 195467 -15964 3478 2056
25085 177179 195427 -15968 3483 2047
24978 177106 195399 -15963 3484 2025
24903 177082 195376 -15941 3485 2025
24864 177102 195396 -15907 3478 2040
24853 177144 195443 -15924 3482 2026
24857 177214 195503 -15972 3492 2002
24865 177227 195504 -15994 3498 2011
24889 177262 195526 -15996 3500 2024
24935 177330 195582 -15980 3495 2015
24969 177370 195603 -15955 3486 1994
24994 177423 195659 -15936 3479 1989
24994 177433 195673 -15928 3471 2001
24984 177432 195673 -15932 3459 2004
24973 177430 195680 -15945 3442 2010
24961 177444 195706 -15946 3431 2013
24960 177464 195725 -15942 3435 2020
24970 177504 195756 -15958 3435 2040
24981 177509 195753 -15980 3443 2037
25004 177568 195803 -15981 3450 2029
25038 177620 195849 -15972 3450 2024
25062 177603 195816 -15963 3463 2017
25096 177624 195831 -15958 3471 2011
25132 177631 195827 -15965 3476 2008
25176 177706 195891 -15977 3474 2048
25228 177808 195985 -15979 3486 2057
25277 177859 196020 -15973 3492 2051
25313 177828 195969 -15972 3499 2027
25359 177848 195973 -15963 3504 2006
25408 177865 195975 -15941 3503 1995
25458 177882 195975 -15925 3497 1996
25511 177927 196011 -15927 3498 2001
25564 177966 196035 -15931 3501 1999
25612 178031 196096 -15940 3486 2043
25622 178064 196151 -15953 3481 2043
25543 177991 196138 -15955 3491 2033
25400 177880 196090 -15971 3496 2028
25233 177728 195995 -15990 3483 2025
25093 177658 195969 -15974 3470 2043
24993 177654 195994 -15936 3458 2059
24921 177610 195956 -15921 3467 2050
24877 177611 195961 -15952 3491 2041
24851 177650 195992 -15988 3497 2059
24834 177644 195983 -15992 3486 2084
24825 177632 195962 -15984 3481 2067
24836 177619 195921 -15960 3491 2017
24861 177635 195920 -15935 3504 1982
24882 177657 195935 -15916 3512 1972
24895 177754 196029 -15895 3514 1975
24885 177784 196078 -15887 3512 1974
24868 177774 196076 -15906 3512 1984
24845 177762 196076 -15929 3518 2017
24825 177727 196037 -15941 3521 2049
24819 177747 196059 -15955 3504 2076
24820 177746 196041 -15973 3507 2090
24835 177784 196079 -15981 3532 2101
24858 177826 196104 -15966 3544 2099
24878 177805 196068 -15943 3553 2079
24903 177808 196063 -15932 3558 2047
24935 177830 196069 -15935 3563 2026
24964 177821 196039 -15940 3568 2030
25008 177830 196037 -15934 3571 2035
25044 177822 196006 -15932 3574 2030
25084 177836 196006 -15952 3554 2056
25133 177884 196052 -15946 3553 2063
25188 177954 196097 -15934 3546 2075
25241 177978 196103 -15924 3538 2080
25284 177960 196073 -15916 3537 2072
25327 177972 196070 -15920 3549 2072
25375 177977 196054 -15926 3557 2072
25422 177972 196030 -15937 3555 2071
25475 178009 196057 -15937 3547 2080
25529 178092 196139 -15949 3532 2106
25536 178068 196131 -15934 3543 2089
25448 177941 196056 -15916 3565 2066
25291 177807 196001 -15933 3584 2078
25103 177665 195924 -15952 3586 2102
24934 177572 195880 -15940 3579 2104
24807 177535 195885 -15919 3575 2090
24717 177497 195865 -15935 3584 2077
24650 177467 195835 -15956 3594 2079
24601 177430 195792 -15955 3585 2107
24567 177390 195751 -15942 3576 2124
24540 177361 195716 -15934 3580 2112
24533 177387 195721 -15934 3576 2089
24552 177448 195781 -15927 3564 2077
24564 177441 195755 -15931 3556 2078
24559 177392 195698 -15932 3553 2074
24543 177374 195682 -15931 3557 2076
24517 177331 195649 -15944 3555 2100
24490 177343 195670 -15944 3553 2126
24466 177339 195674 -15940 3557 2117
24446 177290 195615 -15945 3556 2098
24436 177255 195575 -15945 3563 2090
24435 177230 195538 -15944 3581 2088
24443 177229 195523 -15934 3600 2086
24462 177236 195524 -15923 3606 2065
24485 177256 195534 -15918 3597 2052
24518 177303 195576 -15915 3588 2061
24554 177345 195601 -15922 3586 2067
24591 177354 195600 -15932 3589 2067
24630 177364 195582 -15938 3597 2063
24671 177352 195552 -15932 3566 2063
24716 177362 195543 -15915 3573 2053
24766 177392 195559 -15902 3563 2042
24813 177392 195543 -15901 3555 2035
24865 177431 195563 -15903 3546 2030
24917 177485 195612 -15909 3544 2032
24961 177496 195602 -15921 3543 2034
25009 177485 195568 -15931 3533 2046
25052 177439 195509 -15932 3520 2066
25097 177403 195452 -15923 3502 2081
25141 177412 195449 -15921 3498 2075
25166 177418 195473 -15928 3511 2047
25097 177301 195402 -15932 3532 2030
24468 177004 195272 -15913 3511 1989
24496 177048 195316 -15895 3507 1991
24504 177088 195351 -15915 3508 1999
24495 177063 195338 -15933 3508 2026
24472 177018 195301 -15936 3502 2055
24448 176973 195271 -15946 3498 2068
24431 176964 195253 -15956 3479 2082
24415 176902 195193 -15965 3482 2085
24413 176879 195172 -15970 3500 2079
24423 176907 195182 -15976 3504 2066
24444 176928 195188 -15969 3517 2042
24467 176926 195175 -15957 3523 2035
24495 176935 195177 -15962 3520 2056
24530 176945 195176 -15972 3528 2077
24565 176955 195167 -15974 3537 2068
24606 176998 195203 -15978 3545 2044
24647 177024 195213 -15967 3541 2043
24695 177070 195252 -15953 3544 2022
24744 177115 195276 -15948 3560 1989
24792 177153 195306 -15934 3575 1962
24839 177196 195345 -15918 3583 1940
24894 177239 195371 -15916 3585 1943
24944 177253 195366 -15919 3589 1961
24993 177278 195372 -15920 3576 1976
25046 177303 195388 -15934 3565 1975
25086 177324 195414 -15946 3570 1984
25076 177309 195427 -15976 3550 2002
24992 177248 195441 -15964 3543 2001
24866 177228 195479 -15933 3542 2020
24731 177180 195488 -15920 3565 2024
24629 177167 195506 -15952 3585 1989
24553 177132 195477 -15976 3591 1977
24505 177070 195418 -15972 3599 1998
24487 177066 195403 -15965 3597 2002
24491 177136 195473 -15957 3594 1993
24507 177215 195546 -15886 3579 2000
24544 177309 195623 -15888 3579 2007
24590 177342 195638 -15898 3574 1997
24624 177326 195616 -15911 3565 1994
24645 177341 195616 -15915 3557 2023
24649 177322 195594 -15920 3566 2051
24637 177291 195577 -15946 3574 2035
24634 177321 195616 -15963 3566 2027
24628 177345 195646 -15959 3557 2036
24633 177359 195658 -15951 3549 2035
24640 177373 195666 -15946 3550 2030
24661 177393 195681 -15946 3563 2016
24685 177375 195650 -15948 3572 2017
24714 177388 195661 -15935 3581 2017
24750 177462 195719 -15924 3587 2002
24791 177482 195726 -15926 3578 1994
24829 177487 195711 -15933 3576 1993
24876 177544 195756 -15937 3581 1997
24928 177562 195759 -15938 3593 1995
24977 177590 195771 -15930 3594 1998
25029 177599 195769 -15916 3569 2021
25081 177627 195773 -15912 3566 2033
25138 177675 195814 -15914 3577 2043
25196 177747 195873 -15918 3571 2054
25253 177810 195927 -15926 3565 2062
25306 177837 195932 -15933 3554 2085
25360 177829 195912 -15937 3547 2097
25416 177831 195889 -15945 3556 2094
25464 177849 195900 -15938 3563 2084
25469 177828 195898 -15941 3566 2081
25391 177765 195903 -15937 3518 2119
25248 177710 195931 -15917 3531 2126
25076 177605 195890 -15921 3564 2107
24918 177480 195822 -15948 3587 2083
24797 177400 195755 -15968 3597 2083
24720 177376 195751 -15968 3596 2087
24672 177404 195799 -15946 3587 2086
24647 177462 195851 -15930 3583 2075
24627 177488 195875 -15922 3586 2055
24613 177460 195839 -15903 3564 2086
24614 177444 195813 -15905 3565 2084
24635 177464 195814 -15917 3560 2072
24650 177464 195800 -15922 3559 2071
24665 177520 195852 -15910 3566 2081
24661 177541 195885 -15918 3572 2092
24639 177509 195864 -15934 3583 2091
24620 177485 195853 -15927 3594 2087
24595 177460 195821 -15926 3615 2081
24580 177411 195767 -15918 3618 2076
24579 177402 195756 -15909 3609 2087
24589 177414 195766 -15925 3612 2078
24609 177447 195786 -15939 3620 2075
24636 177502 195826 -15930 3634 2076
24666 177519 195833 -15923 3637 2073
24697 177519 195817 -15920 3640 2083
24726 177461 195741 -15921 3643 2090
24760 177429 195691 -15917 3636 2087
24803 177486 195726 -15904 3634 2077
24853 177542 195778 -15902 3624 2078
24905 177584 195805 -15908 3616 2089
24951 177594 195796 -15914 3624 2109
24997 177583 195775 -15913 3637 2112
25040 177579 195750 -15909 3645 2093
25091 177601 195748 -15907 3640 2091
25139 177607 195748 -15914 3626 2097
25186 177592 195710 -15923 3622 2097
25237 177594 195697 -15913 3631 2100
25296 177670 195760 -15918 3632 2100
25321 177655 195747 -15941 3623 2122
25268 177557 195690 -15939 3599 2147
25141 177458 195673 -15917 3593 2144
24983 177338 195624 -15918 3611 2125
24820 177187 195508 -15938 3616 2102
24699 177103 195464 -15945 3616 2096
24611 177072 195440 -15941 3625 2097
24559 177055 195441 -15942 3639 2091
24528 177057 195426 -15946 3637 2073
24511 177056 195423 -15940 3625 2052
24494 177026 195376 -15923 3621 2050
24496 177019 195364 -15884 3580 2084
24519 177030 195352 -15907 3581 2078
24537 177014 195316 -15918 3584 2068
24553 177035 195337 -15904 3594 2063
24555 177042 195353 -15909 3601 2051
24534 176998 195319 -15933 3611 2056
24513 176989 195304 -15938 3619 2075
24495 176950 195272 -15931 3618 2089
24478 176883 195201 -15928 3622 2078
24476 176878 195193 -15919 3608 2068
24497 176978 195293 -15921 3615 2071
24516 176983 195292 -15918 3619 2069
24538 177003 195304 -15925 3621 2055
24562 176977 195254 -15943 3621 2040
24586 176930 195187 -15950 3619 2042
24618 176916 195159 -15940 3614 2054
24653 176907 195125 -15922 3605 2076
24702 176944 195155 -15911 3600 2083
24760 177073 195272 -15904 3578 2077
24809 177103 195283 -15896 3560 2081
24855 177071 195236 -15895 3562 2086
24900 177058 195196 -15904 3572 2071
24947 177065 195189 -15914 3577 2071
24999 177116 195219 -15927 3580 2100
25049 177117 195203 -15931 3584 2097
25098 177091 195165 -15941 3590 2086
25160 177187 195261 -15950 3585 2090
25219 177307 195375 -15936 3569 2110
25243 177329 195420 -15907 3545 2142
25186 177235 195361 -15890 3533 2150
25068 177117 195305 -15927 3556 2119
24929 177055 195312 -15985 3576 2098
24813 177054 195361 -16000 3571 2109
24724 177049 195380 -15985 3560 2122
24671 177028 195363 -15958 3547 2103
24636 177003 195329 -15918 3522 2053
24626 176997 195320 -15896 3498 2032
24626 176999 195316 -15898 3486 2030
24635 176995 195301 -15907 3487 2034
24669 177049 195325 -15916 3483 2089
24706 177054 195315 -15924 3488 2102
24726 177046 195299 -15956 3497 2110
24735 177032 195291 -15979 3508 2120
24727 177026 195288 -15977 3504 2132
24712 177019 195293 -15967 3493 2135
24704 177055 195342 -15961 3496 2125
24693 177036 195312 -15954 3508 2122
24688 176978 195247 -15953 3521 2130
24696 176989 195259 -15944 3517 2144
24714 177031 195296 -15934 3513 2156
24745 177096 195352 -15940 3518 2149
24773 177147 195401 -15947 3522 2130
24804 177160 195399 -15950 3533 2118
24841 177187 195419 -15947 3536 2111
24884 177240 195463 -15937 3539 2105
24932 177306 195516 -15937 3530 2102
24979 177356 195550 -15934 3513 2108
25018 177373 195549 -15923 3500 2128
25068 177403 195577 -15908 3487 2150
25117 177439 195591 -15919 3481 2154
25166 177451 195586 -15947 3488 2147
25219 177493 195619 -15966 3508 2128
25277 177562 195672 -15972 3510 2126
25321 177607 195708 -15951 3494 2154
25342 177612 195734 -15916 3483 2168
25282 177548 195720 -15912 3499 2160
24847 177412 195691 -15918 3492 2135
24875 177470 195751 -15928 3485 2145
24888 177522 195804 -15952 3484 2121
24876 177483 195771 -15957 3482 2143
24871 177489 195786 -15953 3487 2156
24864 177496 195798 -15941 3494 2144
24855 177407 195694 -15939 3497 2124
24856 177377 195646 -15943 3499 2116
24878 177440 195716 -15953 3499 2126
24903 177503 195773 -15964 3504 2139
24935 177544 195818 -15971 3516 2146
24969 177577 195838 -15980 3523 2153
25003 177595 195838 -15944 3485 2164
25043 177631 195862 -15926 3471 2145
25085 177648 195865 -15923 3480 2167
25122 177668 195865 -15938 3496 2192
25168 177689 195870 -15959 3509 2183
25214 177714 195885 -15965 3520 2170
25263 177741 195896 -15958 3531 2163
25308 177740 195877 -15953 3534 2171
25359 177770 195893 -15940 3535 2180
25410 177778 195880 -15928 3528 2187
25462 177795 195880 -15926 3526 2216
25516 177863 195941 -15921 3538 2245
25556 177876 195953 -15908 3542 2259
25538 177808 195909 -15905 3550 2251
25439 177720 195889 -15935 3559 2245
25294 177647 195894 -15964 3565 2263
25136 177564 195865 -15965 3575 2299
25002 177498 195842 -15950 3580 2317
24778 177634 195994 -15939 3559 2162
24757 177637 196003 -15929 3560 2151
24739 177654 196026 -15907 3541 2139
24724 177669 196047 -15901 3532 2116
24716 177666 196036 -15919 3536 2098
24721 177680 196053 -15926 3548 2109
24736 177712 196077 -15922 3560 2129
24752 177706 196059 -15922 3562 2131
24776 177716 196058 -15926 3564 2109
24801 177706 196029 -15922 3564 2104
24830 177715 196032 -15917 3555 2111
24863 177717 195993 -15912 3543 2120
24905 177752 196025 -15904 3520 2149
24948 177772 196027 -15908 3509 2171
24990 177790 196023 -15911 3514 2175
25035 177812 196038 -15915 3519 2176
25078 177799 196002 -15923 3532 2168
25120 177773 195958 -15931 3534 2172
25167 177798 195966 -15937 3523 2186
25214 177802 195953 -15927 3530 2176
25260 177781 195915 -15918 3543 2172
25308 177770 195885 -15933 3545 2194
25345 177774 195874 -15923 3497 2246
25344 177734 195857 -15921 3506 2228
25259 177638 195823 -15956 3525 2211
25120 177536 195796 -15986 3535 2217
24965 177416 195728 -15991 3540 2223
24833 177285 195626 -15978 3545 2213
24736 177205 195564 -15965 3546 2199
24672 177163 195530 -15950 3539 2186
24635 177174 195540 -15929 3530 2174
24615 177171 195537 -15917 3515 2170
24601 177193 195552 -15909 3512 2170
24594 177192 195546 -15920 3518 2167
24607 177210 195545 -15930 3515 2156
24633 177215 195535 -15931 3512 2139
24642 177183 195480 -15942 3510 2120
24644 177181 195487 -15949 3521 2109
24634 177165 195481 -15954 3531 2116
24618 177144 195454 -15955 3538 2117
24605 177166 195491 -15936 3543 2098
24599 177204 195531 -15918 3536 2085
24595 177166 195491 -15930 3519 2096
24594 177126 195442 -15945 3519 2108
24606 177105 195409 -15950 3534 2104
24625 177111 195414 -15951 3528 2101
24662 177206 195493 -15944 3527 2103
24696 177248 195516 -15940 3529 2107
24732 177273 195527 -15934 3519 2106
24764 177253 195491 -15926 3518 2097
24795 177209 195436 -15916 3516 2099
24840 177250 195452 -15913 3499 2114
24882 177249 195435 -15914 3493 2126
24925 177244 195414 -15915 3491 2145
24977 177321 195483 -15919 3490 2156
25039 177437 195597 -15919 3497 2161
25090 177448 195587 -15937 3518 2159
25133 177438 195544 -15947 3524 2155
25182 177417 195504 -15944 3509 2173
25220 177401 195487 -15934 3504 2196
25216 177365 195470 -15924 3512 2178
25141 177286 195452 -15958 3515 2147
25021 177218 195460 -15986 3500 2162
24898 177173 195452 -15986 3494 2218
24796 177125 195438 -15984 3487 2235
24721 177057 195378 -15971 3469 2204
24675 177007 195329 -15957 3451 2183
24658 177034 195348 -15942 3441 2167
24659 177077 195394 -15926 3438 2148
24660 177066 195371 -15918 3441 2115
24683 177085 195363 -15928 3449 2087
24719 177101 195366 -15931 3460 2090
24746 177092 195338 -15922 3460 2112
24767 177133 195378 -15941 3467 2095
24769 177135 195380 -15947 3463 2118
24753 177093 195341 -15959 3458 2146
24738 177092 195354 -15964 3457 2136
24731 177109 195370 -15950 3461 2122
24728 177091 195354 -15940 3467 2108
24726 177081 195333 -15946 3472 2093
24744 177109 195358 -15953 3477 2095
24765 177141 195388 -15953 3476 2089
24791 177188 195424 -15947 3481 2075
24824 177260 195489 -15945 3490 2076
24860 177303 195519 -15943 3484 2076
24893 177311 195512 -15935 3474 2075
24927 177287 195471 -15934 3466 2084
24966 177330 195500 -15935 3465 2100
25011 177377 195534 -15944 3462 2108
25057 177429 195589 -15953 3453 2116
25113 177511 195656 -15955 3458 2124
25163 177540 195675 -15959 3424 2143
25214 177583 195693 -15941 3424 2171
25258 177587 195678 -15931 3433 2189
25288 177551 195644 -15958 3453 2193
25255 177485 195620 -15999 3474 2190
25165 177452 195655 -16017 3479 2194
25048 177464 195735 -16009 3481 2207
24937 177434 195745 -15996 3486 2203
24844 177355 195693 -15978 3485 2164
24785 177312 195641 -15954 3475 2131
24752 177309 195643 -15939 3459 2129
24747 177357 195688 -15931 3459 2128
24747 177404 195728 -15937 3468 2108
24756 177406 195716 -15940 3468 2105
24795 177504 195806 -15933 3464 2105
24840 177579 195857 -15948 3470 2089
24859 177558 195829 -15962 3483 2082
24871 177564 195833 -15959 3483 2079
24864 177529 195804 -15953 3482 2071
24859 177557 195841 -15948 3497 2060
24864 177634 195932 -15942 3506 2067
24862 177647 195933 -15934 3508 2065
24863 177612 195895 -15941 3514 2056
24880 177656 195934 -15949 3521 2050
24894 177617 195886 -15961 3530 2047
24922 177627 195887 -15973 3528 2057
24953 177685 195923 -15967 3529 2061
24989 177712 195949 -15953 3536 2065
25031 177776 195999 -15935 3541 2067
25074 177827 196044 -15915 3536 2068
25119 177886 196095 -15895 3540 2069
25164 177898 196089 -15915 3553 2053
25198 177851 196020 -15928 3558 2032
25247 177891 196049 -15924 3562 2024
25299 177958 196109 -15925 3572 2032
25350 177985 196117 -15946 3569 2047
25407 178036 196166 -15956 3541 2072
25459 178084 196186 -15932 3526 2094
25497 178105 196196 -15921 3528 2100
25478 178039 196159 -15969 3513 2120
25383 177939 196129 -15979 3524 2119
25238 177858 196130 -15975 3539 2116
25082 177771 196098 -15954 3544 2097
24949 177690 196055 -15935 3537 2060
24853 177681 196071 -15923 3534 2052
24785 177667 196060 -15909 3539 2058
24739 177665 196059 -15908 3546 2062
24713 177681 196084 -15927 3548 2056
24689 177681 196077 -15941 3541 2074
24678 177656 196049 -15929 3532 2109
24685 177685 196064 -15932 3538 2115
24709 177728 196098 -15950 3556 2090
24717 177727 196082 -15951 3559 2078
24722 177749 196109 -15943 3557 2085
24705 177731 196083 -15936 3567 2074
24682 177704 196072 -15934 3587 2062
24657 177689 196062 -15937 3593 2074
24640 177637 196002 -15943 3584 2097
24632 177620 195977 -15947 3588 2111
24635 177639 196000 -15936 3590 2128
24654 177699 196052 -15937 3592 2132
24673 177720 196064 -15944 3600 2113
24695 177705 196028 -15932 3594 2113
24724 177679 195980 -15921 3589 2118
24750 177668 195957 -15922 3585 2121
24790 177694 195971 -15931 3592 2128
24834 177758 196027 -15937 3601 2128
24876 177779 196022 -15935 3591 2139
24916 177742 195969 -15934 3585 2143
24955 177723 195935 -15939 3568 2147
24997 177725 195914 -15932 3566 2143
25049 177771 195948 -15936 3578 2120
25095 177776 195930 -15952 3564 2118
25144 177781 195914 -15945 3547 2137
25188 177780 195911 -15928 3555 2142
25214 177747 195873 -15939 3565 2115
25174 177680 195855 -15970 3570 2087
25062 177593 195839 -15968 3576 2094
24908 177476 195778 -15954 3574 2102
24753 177337 195673 -15935 3549 2060
24634 177275 195649 -15915 3544 2028
24554 177269 195663 -15899 3539 2019
24500 177248 195633 -15888 3542 2034
24464 177220 195602 -15897 3541 2046
24428 177178 195554 -15921 3529 2061
24408 177144 195514 -15927 3525 2082
24402 177113 195469 -15937 3525 2090
24427 177162 195509 -15954 3533 2086
24445 177195 195529 -15958 3543 2089
24455 177198 195531 -15952 3542 2106
24455 177219 195559 -15942 3543 2101
24439 177177 195520 -15926 3555 2060
24413 177124 195464 -15923 3565 2032
24397 177073 195427 -15931 3571 2027
24386 177047 195392 -15931 3573 2044
24390 177077 195411 -15928 3575 2068
24407 177152 195494 -15929 3583 2081
24425 177162 195485 -15928 3572 2089
24443 177127 195447 -15930 3555 2093
24466 177117 195419 -15939 3543 2108
24495 177115 195408 -15946 3533 2122
24534 177155 195421 -15945 3524 2103
24569 177156 195415 -15934 3510 2090
24609 177148 195392 -15921 3507 2090
24648 177132 195353 -15920 3502 2089
24697 177169 195365 -15929 3492 2079
24745 177202 195396 -15942 3498 2064
24791 177212 195390 -15959 3505 2054
24840 177246 195410 -15970 3504 2051
24892 177260 195412 -15939 3543 2108
24942 177279 195412 -15946 3533 2122
24986 177313 195442 -15945 3524 2103
24971 177226 195370 -15934 3510 2090
24888 177103 195305 -15921 3507 2090
24758 177025 195300 -15920 3502 2089
24632 176977 195291 -15929 3492 2079
24526 176938 195290 -15942 3498 2064
24454 176884 195238 -15959 3505 2054
24401 176798 195151 -15970 3504 2051
24376 176764 195112 -15919 3478 2065
24368 176768 195117 -15948 3493 2043
24373 176817 195156 -15982 3490 2058
24400 176930 195262 -15991 3482 2096
24433 176972 195279 -15989 3476 2107
24462 176973 195266 -15982 3477 2093
24480 177002 195296 -15960 3481 2077
24477 176973 195276 -15940 3471 2079
24465 176931 195239 -15931 3456 2085
24451 176913 195225 -15920 3452 2088
24445 176919 195232 -15930 3456 2092
24444 176935 195250 -15939 3459 2097
24451 176969 195277 -15946 3463 2106
24467 176997 195307 -15966 3467 2095
24489 177013 195312 -15978 3475 2090
24510 176999 195278 -15970 3480 2115
24539 176985 195259 -15963 3466 2116
24573 177004 195262 -15970 3463 2103
24616 177054 195302 -15975 3469 2106
24664 177125 195363 -15958 3459 2145
24717 177203 195430 -15956 3466 2135
24763 177247 195463 -15960 3477 2102
24809 177248 195448 -15968 3487 2084
24856 177260 195442 -15964 3497 2087
24900 177252 195414 -15950 3499 2084
24956 177285 195428 -15930 3498 2081
25014 177365 195506 -15913 3494 2072
25063 177434 195579 -15914 3492 2058
25057 177385 195548 -15920 3487 2071
24980 177296 195516 -15915 3469 2108
24858 177226 195512 -15919 3467 2123
24728 177126 195463 -15938 3490 2104
24626 177101 195467 -15965 3497 2097
24557 177109 195492 -15976 3476 2106
24517 177123 195513 -15956 3457 2116
24497 177155 195547 -15942 3460 2117
24494 177181 195572 -15969 3482 2106
24496 177173 195550 -16004 3502 2120
24517 177200 195560 -16005 3503 2156
24553 177223 195556 -15988 3479 2178
24583 177210 195538 -15969 3463 2167
24610 177280 195593 -15956 3471 2139
24624 177324 195645 -15936 3472 2143
24621 177319 195645 -15918 3464 2147
24617 177326 195670 -15918 3462 2123
24610 177315 195653 -15924 3454 2115
24609 177295 195632 -15924 3444 2132
24622 177312 195643 -15932 3447 2154
24640 177334 195654 -15961 3448 2159
24668 177364 195683 -15964 3430 2189
24707 177435 195748 -15966 3433 2203
24744 177474 195770 -15966 3441 2197
24781 177475 195753 -15965 3445 2180
24812 177436 195697 -15958 3439 2166
24859 177474 195723 -15937 3438 2161
24907 177515 195751 -15930 3450 2167
24952 177525 195735 -15935 3464 2173
24998 177523 195728 -15943 3477 2173
25049 177556 195738 -15936 3469 2194
25099 177562 195738 -15931 3474 2189
25151 177608 195766 -15938 3467 2177
25207 177653 195795 -15943 3469 2163
25254 177650 195769 -15945 3483 2150
25302 177618 195714 -15946 3488 2153
25356 177625 195711 -15938 3482 2156
25407 177679 195767 -15923 3468 2160
25424 177692 195781 -15924 3460 2180
25361 177634 195780 -15933 3451 2200
25240 177567 195802 -15931 3446 2210
25090 177493 195797 -15941 3468 2211
24947 177358 195688 -15965 3488 2210
24836 177263 195622 -15960 3481 2226
24764 177238 195606 -15933 3468 2244
24715 177215 195590 -15936 3478 2229
24685 177255 195633 -15966 3495 2194
24669 177304 195686 -15975 3498 2187
24657 177333 195707 -15974 3506 2191
24657 177345 195711 -15970 3524 2186
24678 177358 195710 -15931 3513 2193
24697 177367 195710 -15912 3494 2193
24708 177382 195714 -15926 3492 2193
24706 177388 195720 -15916 3492 2198
24695 177392 195743 -15900 3497 2204
24679 177383 195738 -15910 3492 2216
24663 177362 195719 -15924 3488 2238
24657 177356 195712 -15923 3495 2257
24662 177366 195715 -15934 3506 2232
24675 177368 195700 -15955 3518 2199
24692 177341 195674 -15947 3507 2201
24714 177351 195665 -15929 3500 2208
24745 177385 195685 -15929 3519 2197
24785 177442 195736 -15930 3535 2181
24824 177459 195730 -15929 3544 2162
24863 177465 195722 -15932 3547 2150
24905 177461 195697 -15936 3550 2149
24947 177467 195690 -15930 3554 2165
24992 177477 195679 -15927 3547 2186
25045 177484 195667 -15934 3540 2185
25099 177514 195683 -15924 3529 2180
25153 177572 195727 -15915 3517 2195
25203 177587 195720 -15913 3509 2195
25251 177591 195713 -15909 3504 2190
25300 177595 195703 -15923 3492 2194
25354 177614 195699 -15939 3493 2198
25404 177622 195691 -15942 3500 2199
25454 177611 195668 -15949 3499 2202
25509 177640 195678 -15960 3492 2210
25555 177657 195689 -15959 3479 2232
25562 177591 195644 -15962 3463 2246
25491 177486 195577 -15976 3461 2237
25370 177401 195571 -15974 3467 2237
25239 177324 195555 -15972 3466 2240
25119 177228 195488 -15962 3457 2234
25025 177135 195414 -15936 3452 2231
24967 177105 195382 -15919 3460 2222
24931 177102 195385 -15927 3477 2203
24914 177101 195384 -15958 3492 2182
24906 177143 195434 -15977 3498 2174
24905 177142 195410 -15969 3494 2183
24916 177140 195380 -15955 3494 2183
24944 177158 195383 -15931 3496 2159
24962 177142 195364 -15914 3489 2140
24977 177173 195394 -15906 3470 2149
24971 177155 195377 -15903 3447 2160
24958 177096 195319 -15924 3447 2150
24941 177089 195314 -15954 3452 2160
24930 177043 195268 -15965 3446 2190
24924 177031 195243 -15957 3451 2192
24938 177069 195275 -15963 3454 2176
24955 177083 195279 -15953 3477 2157
24978 177098 195292 -15948 3494 2141
25000 177067 195247 -15937 3506 2127
25026 177034 195200 -15935 3508 2112
25060 177042 195193 -15949 3504 2122
25108 177123 195256 -15948 3502 2149
25149 177138 195254 -15939 3504 2157
25195 177163 195264 -15939 3503 2152
25243 177191 195275 -15939 3484 2167
25289 177176 195240 -15929 3466 2184
25339 177188 195232 -15933 3461 2187
25385 177199 195230 -15945 3464 2188
25436 177217 195229 -15946 3469 2188
25488 177231 195235 -15940 3463 2179
25535 177217 195185 -15938 3450 2163
25581 177183 195146 -15933 3438 2163
25630 177192 195140 -15923 3434 2166
25667 177161 195100 -15931 3433 2156
25651 177074 195035 -15927 3422 2146
25581 177042 195068 -15947 3422 2147
25479 177055 195157 -15977 3401 2163
25373 177003 195145 -15973 3372 2195
25283 176933 195092 -15939 3352 2219
25224 176891 195052 -15941 3359 2220
25194 176866 195037 -15985 3384 2203
25183 176880 195016 -16007 3401 2198
25179 176850 194985 -16015 3400 2204
25184 176837 194957 -16006 3400 2202
25213 176894 194997 -15975 3393 2181
25255 176940 195035 -15951 3373 2153
25283 176906 194985 -15948 3364 2152
25301 176914 194989 -15961 3360 2166
25308 176938 195013 -15972 3358 2175
25305 176914 195000 -15976 3355 2168
25294 176893 194983 -15967 3353 2149
25285 176882 194976 -15972 3358 2139
25290 176902 194998 -15996 3349 2156
25303 176938 195026 -16005 3337 2192
25319 176962 195037 -15989 3346 2208
25343 176984 195057 -15988 3367 2185
25376 177034 195088 -15990 3364 2176
25415 177102 195147 -15980 3362 2171
25456 177130 195161 -15961 3373 2151
25498 177159 195187 -15947 3383 2128
25540 177184 195203 -15948 3391 2120
25586 177234 195226 -15956 3407 2129
25634 177275 195263 -15960 3419 2128
25687 177329 195302 -15960 3391 2180
25733 177360 195324 -15962 3386 2199
25785 177409 195359 -15961 3384 2204
25832 177433 195367 -15966 3390 2221
25879 177416 195326 -15968 3389 2232
25928 177448 195349 -15958 3377 2229
25976 177502 195404 -15948 3387 2222
25977 177463 195379 -15957 3405 2212
25913 177407 195377 -15974 3403 2209
25810 177378 195415 -15967 3387 2209
25695 177314 195403 -15937 3376 2220
25597 177280 195396 -15934 3395 2219
25529 177244 195372 -15964 3422 2198
25479 177198 195336 -15991 3420 2202
25469 177242 195376 -15995 3415 2221
25461 177262 195390 -15988 3419 2219
25465 177278 195402 -15984 3411 2199
25484 177308 195411 -15972 3396 2190
25523 177341 195422 -15957 3380 2179
25558 177382 195445 -15951 3366 2164
25591 177452 195524 -15945 3352 2165
25605 177500 195574 -15938 3351 2163
25603 177455 195531 -15935 3366 2160
25586 177382 195450 -15941 3375 2176
25861 177682 195656 -15966 3427 2176
25904 177692 195661 -15966 3429 2190
25952 177749 195699 -15962 3428 2203
26003 177822 195771 -15961 3434 2214
26052 177862 195798 -15955 3440 2221
26095 177874 195795 -15938 3439 2225
26145 177886 195797 -15924 3418 2238
26194 177901 195790 -15927 3416 2254
26249 177967 195835 -15939 3445 2231
26292 178011 195879 -15942 3463 2195
26274 177952 195859 -15923 3468 2177
26168 177764 195732 -15921 3469 2181
26027 177673 195720 -15948 3470 2194
25885 177632 195729 -15957 3463 2209
25747 177531 195668 -15944 3452 2214
25646 177479 195631 -15940 3453 2205
25570 177436 195593 -15988 3446 2191
25522 177424 195592 -15985 3443 2189
25494 177475 195646 -15968 3435 2179
25476 177535 195705 -15961 3419 2168
25466 177551 195712 -15956 3416 2163
25471 177561 195703 -15947 3406 2168
25485 177533 195653 -15935 3398 2181
25489 177472 195583 -15922 3403 2199
25488 177510 195623 -15942 3407 2195
25481 177536 195655 -15956 3403 2198
25465 177551 195678 -15940 3393 2192
25441 177523 195648 -15944 3409 2160
25414 177447 195562 -15970 3440 2139
25396 177373 195480 -15976 3439 2139
25391 177376 195490 -15969 3436 2149
25402 177393 195489 -15950 3441 2152
25416 177383 195473 -15938 3440 2144
25430 177368 195445 -15953 3448 2138
25453 177376 195433 -15965 3460 2150
25481 177380 195423 -15963 3466 2164
25511 177371 195390 -15958 3447 2176
25546 177390 195402 -15963 3435 2168
25586 177417 195402 -15969 3438 2158
25622 177425 195399 -15956 3443 2161
25662 177428 195379 -15940 3447 2173
25696 177369 195306 -15934 3444 2187
25729 177331 195250 -15934 3449 2197
25777 177369 195275 -15943 3459 2198
25824 177398 195290 -15952 3462 2180
25873 177442 195316 -15957 3451 2170
25920 177461 195323 -15943 3411 2213
25955 177477 195340 -15941 3430 2200
25923 177392 195287 -15959 3438 2184
25819 177272 195225 -15974 3437 2184
25673 177182 195208 -15966 3425 2211
25515 177051 195130 -15951 3420 2224
25385 176999 195115 -15958 3425 2192
25289 176985 195122 -15992 3441 2163
25217 176941 195079 -16010 3455 2166
25170 176925 195067 -16003 3454 2169
25142 176934 195072 -15989 3447 2158
25117 176893 195018 -15971 3435 2138
25108 176889 195000 -15946 3418 2114
25127 176958 195057 -15937 3390 2090
25148 177013 195107 -15929 3372 2080
25160 177055 195145 -15930 3375 2090
25155 177060 195151 -15944 3384 2111
25129 176992 195084 -15946 3395 2113
25094 176929 195027 -15947 3395 2087
25067 176912 195024 -15947 3397 2068
25046 176894 195003 -15953 3410 2089
25035 176886 194987 -15968 3421 2097
25031 176899 195002 -15960 3422 2087
25035 176928 195025 -15956 3425 2067
25372 177046 194996 -15932 3385 2108
25410 177032 194956 -15943 3388 2104
25457 177050 194967 -15954 3406 2118
25483 177057 194989 -15963 3416 2130
25450 177018 194987 -15978 3395 2146
25344 176959 194993 -15934 3354 2150
25202 176859 194954 -15951 3372 2120
25067 176782 194921 -15995 3398 2104
24961 176724 194888 -16015 3410 2127
24891 176732 194909 -16016 3419 2157
24856 176776 194952 -16003 3413 2157
24837 176831 195007 -15976 3404 2141
24836 176859 195032 -15960 3394 2127
24845 176874 195038 -15950 3385 2121
24871 176929 195072 -15928 3390 2122
24904 176951 195066 -15938 3391 2136
24926 176954 195076 -15945 3385 2154
24940 177000 195120 -15960 3380 2150
24932 177001 195121 -15975 3384 2135
24921 177011 195145 -15978 3388 2135
24908 177008 195146 -15977 3383 2143
24896 176977 195114 -15973 3382 2135
24893 176977 195118 -15967 3388 2133
24900 177004 195134 -15952 3372 2143
24919 177044 195165 -15954 3379 2164
24939 177084 195201 -15963 3394 2190
24966 177107 195212 -15964 3394 2193
24999 177141 195241 -15963 3397 2191
25034 177166 195252 -15967 3401 2190
25072 177190 195264 -15967 3400 2169
25111 177235 195293 -15967 3397 2160
25151 177260 195310 -15966 3400 2168
25192 177267 195307 -15964 3397 2186
25238 177308 195334 -15957 3383 2201
25284 177363 195376 -15950 3383 2184
25332 177383 195384 -15941 3388 2163
25382 177407 195400 -15954 3399 2164
25424 177417 195386 -15977 3415 2178
25457 177404 195382 -15972 3407 2197
25422 177333 195342 -15947 3391 2217
25313 177227 195300 -15934 3399 2224
25164 177170 195318 -15960 3417 2189
25018 177128 195345 -15982 3426 2173
24905 177162 195418 -15974 3420 2199
24818 177140 195410 -15974 3422 2205
24748 177045 195308 -15982 3428 2195
24704 176986 195256 -15980 3420 2175
24676 176998 195259 -15964 3405 2154
24664 176990 195244 -15937 3394 2147
24673 177051 195287 -15923 3404 2151
24704 177087 195321 -15937 3402 2156
24721 177112 195335 -15941 3393 2164
24737 177158 195380 -15941 3406 2182
24735 177168 195386 -15962 3365 2183
24717 177120 195354 -15966 3377 2189
24695 177104 195342 -15958 3379 2195
24668 177061 195303 -15956 3391 2183
24653 177036 195274 -15960 3408 2177
24651 177057 195291 -15956 3417 2176
24659 177097 195328 -15949 3426 2174
24680 177153 195381 -15945 3428 2186
24702 177161 195376 -15951 3432 2205
24729 177174 195381 -15969 3435 2221
24757 177156 195352 -15972 3436 2239
24792 177172 195345 -15967 3449 2257
24831 177208 195376 -15957 3451 2254
24878 177282 195448 -15958 3444 2241
24926 177359 195506 -15956 3446 2236
24969 177357 195489 -15943 3458 2225
25016 177390 195512 -15943 3460 2207
25060 177417 195508 -15951 3457 2187
25102 177416 195501 -15964 3447 2181
25157 177480 195563 -15966 3430 2198
25210 177522 195594 -15940 3414 2226
25259 177545 195595 -15928 3401 2241
25312 177606 195651 -15951 3400 2262
25339 177629 195690 -15964 3395 2292
25287 177525 195627 -15951 3398 2298
25164 177412 195592 -15941 3408 2277
25004 177354 195609 -15965 3421 2249
24840 177251 195556 -15987 3444 2255
24705 177175 195522 -15984 3457 2272
24609 177151 195520 -15970 3456 2261
24545 177152 195528 -15959 3446 2244
24501 177168 195548 -15956 3440 2222
24472 177180 195558 -15954 3436 2218
24450 177186 195569 -15941 3423 2220
24440 177156 195520 -15932 3411 2210
24451 177167 195517 -15949 3410 2205
24469 177165 195502 -15949 3406 2209
24484 177173 195504 -15921 3392 2207
24483 177205 195535 -15923 3395 2199
24464 177156 195501 -15953 3408 2203
24441 177117 195468 -15971 3407 2215
24420 177058 195407 -15955 3438 2190
24406 177019 195363 -15938 3457 2168
24403 176985 195320 -15931 3462 2166
24407 176974 195304 -15932 3460 2176
24424 176993 195315 -15946 3472 2183
24448 177020 195334 -15959 3488 2174
24478 177043 195341 -15960 3491 2174
24509 177044 195317 -15951 3477 2184
24543 177029 195284 -15907 3438 2220
24580 176997 195238 -15920 3436 2227
24621 177003 195223 -15939 3433 2236
24671 177045 195252 -15951 3417 2238
24722 177071 195271 -15956 3406 2241
24774 177106 195279 -15966 3403 2254
24824 177108 195271 -15964 3403 2271
24873 177104 195253 -15961 3406 2276
24689 176772 195086 -15999 3452 2175
24597 176730 195060 -15992 3446 2162
24540 176713 195055 -15968 3429 2149
24511 176709 195045 -15947 3410 2158
24494 176728 195053 -15933 3395 2163
24486 176728 195052 -15926 3384 2151
24491 176736 195049 -15938 3381 2134
24514 176784 195080 -15939 3378 2130
24541 176784 195066 -15938 3379 2158
24563 176793 195066 -15956 3381 2170
24576 176812 195087 -15975 3384 2159
24568 176765 195038 -15980 3402 2160
24556 176755 195034 -15965 3409 2144
24544 176751 195039 -15957 3416 2124
24539 176731 195021 -15960 3419 2119
24537 176706 194977 -15966 3426 2130
24542 176674 194953 -15964 3430 2146
24562 176705 194982 -15957 3426 2154
24588 176747 195014 -15969 3418 2145
24616 176755 195003 -15982 3411 2142
24651 176774 195020 -15982 3401 2159
24694 176823 195053 -15956 3361 2182
24738 176853 195062 -15958 3357 2167
24778 176833 195021 -15950 3359 2152
24821 176827 194992 -15950 3358 2154
24865 176814 194964 -15961 3357 2159
24914 176823 194967 -15973 3364 2161
24961 176834 194960 -15980 3357 2169
25010 176831 194938 -15982 3344 2165
25062 176851 194945 -15985 3334 2184
24724 176588 194866 -15931 3358 2152
24725 176632 194903 -15918 3365 2167
24739 176654 194909 -15919 3370 2194
24768 176699 194934 -15923 3383 2208
24809 176712 194918 -15946 3398 2209
24841 176703 194905 -15966 3398 2209
24877 176751 194948 -15966 3400 2203
24891 176779 194978 -15966 3398 2208
24895 176804 195010 -15960 3397 2201
24896 176853 195077 -15951 3407 2177
24894 176832 195049 -15949 3419 2177
24896 176801 195011 -15946 3413 2179
24908 176793 195001 -15949 3403 2185
24931 176800 195007 -15958 3418 2200
24965 176861 195056 -15967 3437 2204
25004 176957 195139 -15975 3445 2190
25047 177007 195174 -15971 3449 2182
25087 177030 195195 -15959 3445 2185
25129 177049 195194 -15949 3435 2190
25175 177064 195196 -15947 3433 2211
25220 177090 195209 -15946 3428 2225
25267 177107 195208 -15941 3404 2243
25319 177149 195237 -15933 3385 2253
25373 177189 195263 -15938 3392 2249
25430 177245 195309 -15952 3404 2238
25485 177283 195327 -15971 3412 2232
25545 177298 195330 -15981 3410 2247
25596 177315 195333 -15970 3392 2268
25638 177301 195322 -15950 3387 2280
25623 177232 195276 -15953 3397 2257
25547 177188 195302 -15987 3412 2230
25437 177190 195370 -15981 3399 2254
25317 177139 195364 -15977 3404 2245
25219 177099 195356 -15977 3415 2225
25149 177082 195350 -15970 3416 2212
25101 177037 195310 -15947 3408 2212
25079 177018 195286 -15922 3401 2218
25071 177048 195313 -15918 3402 2206
25079 177088 195349 -15932 3400 2198
25093 177094 195332 -15939 3404 2209
25127 177132 195351 -15946 3399 2213
25160 177168 195380 -15960 3394 2207
25182 177186 195392 -15970 3406 2192
25195 177216 195424 -15958 3418 2184
25196 177239 195449 -15946 3429 2182
25186 177214 195443 -15947 3431 2170
25180 177205 195428 -15946 3425 2167
25181 177217 195438 -15945 3429 2183
25183 177160 195371 -15950 3447 2199
25195 177161 195368 -15968 3463 2200
25220 177196 195384 -15975 3470 2204
25253 177263 195455 -15967 3458 2209
25296 177359 195533 -15967 3449 2205
25335 177403 195571 -15966 3450 2206
25369 177397 195548 -15956 3444 2210
25403 177362 195491 -15944 3435 2207
25447 177372 195486 -15941 3424 2202
25488 177371 195476 -15945 3416 2196
25537 177445 195535 -15949 3418 2188
25589 177480 195559 -15948 3430 2199
25638 177490 195552 -15951 3432 2211
25690 177540 195587 -15940 3423 2219
25745 177575 195609 -15952 3444 2221
25798 177583 195597 -15972 3455 2235
25848 177586 195588 -15967 3451 2243
25897 177599 195588 -15949 3455 2243
25936 177605 195588 -15952 3462 2234
25923 177552 195573 -15979 3467 2223
25837 177469 195542 -15988 3471 2225
25708 177411 195559 -15974 3476 2227
25573 177342 195548 -15930 3459 2182
25460 177283 195525 -15929 3453 2157
25372 177210 195465 -15927 3440 2161
25314 177155 195421 -15928 3425 2161
25279 177150 195403 -15932 3431 2168
25257 177181 195428 -15946 3445 2173
25252 177213 195466 -15947 3438 2180
25248 177216 195451 -15936 3429 2190
25265 177220 195427 -15948 3431 2190
25284 177190 195381 -15956 3430 2200
25290 177133 195312 -15953 3432 2214
25296 177139 195327 -15948 3449 2210
25283 177100 195279 -15950 3471 2193
25269 177088 195270 -15954 3493 2181
25259 177095 195285 -15949 3508 2176
25245 177048 195237 -15944 3509 2168
25235 176993 195170 -15944 3507 2158
25237 176954 195118 -15948 3504 2150
25253 176959 195117 -15953 3501 2149
25272 176978 195122 -15947 3495 2156
25307 177016 195160 -15925 3476 2169
25332 177044 195159 -15921 3462 2184
25370 177065 195170 -15931 3449 2204
25405 177040 195133 -15933 3440 2231
25437 177025 195095 -15943 3435 2254
25476 177011 195056 -15956 3432 2248
25520 177024 195071 -15969 3442 2217
25567 177055 195072 -15968 3448 2198
25617 177063 195070 -15959 3447 2215
25667 177095 195090 -15958 3437 2226
25713 177114 195088 -15925 3476 2169
25757 177131 195083 -15921 3462 2184
25801 177099 195038 -15931 3449 2204
25851 177113 195035 -15933 3440 2231
25903 177166 195085 -15943 3435 2254
25943 177201 195112 -15956 3432 2248
25924 177130 195064 -15969 3442 2217
25833 177005 195004 -15968 3448 2198
25708 176930 194993 -15959 3447 2215
25575 176834 194945 -15958 3437 2226
25371 176851 194941 -15945 3382 2181
25349 176772 194858 -15935 3379 2168
25330 176759 194845 -15931 3380 2178
25321 176772 194858 -15950 3397 2185
25303 176720 194786 -15956 3397 2192
25300 176723 194806 -15952 3396 2203
25307 176730 194801 -15959 3400 2175
25318 176740 194810 -15966 3397 2141
25335 176747 194799 -15958 3401 2130
25352 176730 194763 -15942 3395 2118
25379 176726 194743 -15918 3388 2109
25405 176697 194702 -15898 3394 2101
25437 176696 194689 -15910 3407 2095
25471 176702 194693 -15919 3427 2115
25515 176780 194754 -15938 3447 2134
25559 176818 194772 -15960 3461 2144
25599 176850 194790 -15980 3470 2170
25639 176871 194804 -15990 3477 2194
25682 176871 194786 -15983 3481 2206
25726 176899 194805 -15977 3476 2221
25771 176925 194809 -15964 3463 2234
25813 176946 194827 -15957 3466 2233
25839 176972 194862 -15952 3472 2219
25805 176966 194900 -15943 3471 2206
25711 176951 194956 -15942 3463 2190
25587 176879 194947 -15939 3452 2175
25473 176820 194921 -15935 3450 2159
25382 176735 194841 -15950 3443 2146
25327 176711 194832 -15957 3423 2166
25296 176729 194845 -15938 3391 2202
25286 176756 194872 -15948 3370 2184
25285 176800 194907 -15999 3396 2184
25296 176851 194945 -16011 3400 2225
25331 176924 195005 -15996 3392 2250
25359 176918 194977 -15986 3385 2230
25375 176903 194945 -15964 3380 2191
25385 176919 194971 -15944 3375 2163
25378 176910 194965 -15940 3371 2145
25372 176947 195013 -15932 3375 2144
25362 176987 195069 -15936 3375 2164
25354 176983 195055 -15945 3365 2198
25353 176980 195040 -15946 3370 2221
25359 176978 195032 -15971 3372 2223
25373 176974 195028 -15992 3381 2206
25392 176991 195035 -15986 3402 2195
25423 177019 195052 -15974 3408 2203
25454 177058 195076 -15956 3416 2191
25489 177096 195106 -15937 3419 2165
25529 177147 195152 -15929 3416 2141
25567 177185 195172 -15917 3398 2183
25612 177239 195216 -15936 3415 2201
25646 177225 195181 -15958 3432 2209
25683 177215 195151 -15959 3454 2211
25734 177270 195196 -15955 3460 2221
25779 177290 195207 -15941 3450 2232
25830 177335 195253 -15927 3452 2230
25882 177382 195278 -15921 3456 2225
25921 177405 195299 -15923 3464 2221
25904 177356 195278 -15929 3468 2219
25816 177274 195262 -15927 3450 2244
25675 177166 195221 -15921 3443 2250
25515 177015 195124 -15920 3460 2239
25384 176994 195140 -15941 3469 2256
25289 176996 195166 -15958 3451 2287
25222 177030 195201 -15947 3437 2313
25171 177017 195185 -15949 3447 2301
25134 177022 195195 -15985 3463 2288
25109 177037 195206 -16012 3469 2291
25097 177035 195195 -16006 3468 2285
25114 177123 195279 -15971 3454 2282
25129 177142 195290 -15940 3445 2261
25141 177153 195289 -15924 3443 2221
25137 177158 195295 -15915 3442 2192
25124 177128 195268 -15908 3445 2187
25108 177135 195286 -15916 3448 2195
25087 177130 195289 -15939 3456 2203
25075 177135 195298 -15940 3467 2207
25068 177137 195290 -15931 3466 2214
25069 177124 195272 -15942 3460 2205
25076 177127 195271 -15945 3452 2191
25093 177134 195260 -15938 3462 2208
25119 177153 195273 -15932 3469 2210
25148 177186 195291 -15926 3469 2203
25182 177232 195325 -15927 3475 2199
25220 177259 195337 -15934 3477 2213
25256 177296 195353 -15941 3482 2239
25291 177285 195332 -15942 3496 2242
25328 177262 195294 -15945 3513 2231
25372 177295 195310 -15928 3496 2241
25418 177342 195352 -15923 3498 2264
25465 177361 195350 -15915 3496 2260
25511 177353 195314 -15920 3487 2251
25562 177375 195324 -15932 3480 2267
25600 177351 195282 -15941 3481 2281
25612 177304 195245 -15946 3478 2274
25550 177201 195183 -15945 3474 2265
25429 177133 195195 -15939 3475 2254
25282 177072 195200 -15939 3468 2266
25142 176981 195147 -15941 3445 2296
25029 176924 195108 -15943 3435 2305
24948 176854 195048 -15938 3432 2308
24890 176795 194979 -15950 3437 2290
24850 176749 194932 -15983 3451 2275
24824 176745 194924 -15998 3464 2277
24811 176726 194895 -15990 3470 2277
24815 176731 194886 -15979 3470 2244
24835 176753 194895 -15969 3464 2202
24850 176732 194869 -15951 3442 2192
24857 176724 194855 -15928 3424 2198
24848 176696 194829 -15911 3431 2206
24823 176631 194758 -15918 3450 2194
24800 176582 194716 -15934 3450 2200
24783 176543 194683 -15932 3446 2229
24778 176554 194685 -15935 3451 2219
24783 176579 194711 -15957 3454 2201
24795 176598 194724 -15972 3455 2216
24809 176556 194676 -15974 3463 2224
24829 176567 194664 -15960 3469 2211
24856 176594 194678 -15943 3452 2202
24887 176597 194676 -15941 3464 2200
