Time(s)	RED_denoised_wiener
0.000000	-0.612943
0.010000	-3.576801
0.020000	-3.900680
0.030000	2.098392
0.040000	18.093154
0.050000	35.085035
0.060000	47.442598
0.070000	57.439863
0.080000	67.472293
0.090000	82.815963
0.100000	99.490033
0.110000	120.558324
0.120000	143.506138
0.130000	167.987102
0.140000	193.535819
0.150000	214.749663
0.160000	237.276634
0.170000	253.489983
0.180000	265.057297
0.190000	266.558592
0.200000	265.554803
0.210000	264.962400
0.220000	267.065290
0.230000	276.387172
0.240000	287.897775
0.250000	290.142631
0.260000	277.427836
0.270000	255.945912
0.280000	238.658418
0.290000	228.403401
0.300000	218.210823
0.310000	209.232040
0.320000	196.762736
0.330000	186.103829
0.340000	179.655763
0.350000	180.326168
0.360000	186.552411
0.370000	191.550137
0.380000	196.821195
0.390000	203.790010
0.400000	213.438284
0.410000	223.370196
0.420000	231.739873
0.430000	248.332049
0.440000	271.693720
0.450000	299.976001
0.460000	324.311537
0.470000	342.989583
0.480000	354.947835
0.490000	359.019636
0.500000	359.616264
0.510000	361.734827
0.520000	368.295903
0.530000	374.445626
0.540000	381.676646
0.550000	388.498614
0.560000	387.056999
0.570000	372.242939
0.580000	346.475192
0.590000	327.045312
0.600000	316.871137
0.610000	310.174392
0.620000	301.284664
0.630000	290.336729
0.640000	282.395734
0.650000	277.168371
0.660000	281.209656
0.670000	289.652701
0.680000	300.716128
0.690000	306.805156
0.700000	306.924831
0.710000	307.328298
0.720000	306.462883
0.730000	306.880174
0.740000	306.338571
0.750000	306.460133
0.760000	310.903991
0.770000	316.706038
0.780000	327.170763
0.790000	337.948382
0.800000	349.802368
0.810000	359.196363
0.820000	367.464787
0.830000	376.463200
0.840000	386.473626
0.850000	394.739079
0.860000	398.834079
0.870000	391.351959
0.880000	370.226524
0.890000	344.011303
0.900000	321.303020
0.910000	309.685099
0.920000	300.017451
0.930000	292.735693
0.940000	283.736542
0.950000	277.159345
0.960000	270.788557
0.970000	272.293816
0.980000	279.162896
0.990000	289.112492
1.000000	297.547747
1.010000	303.624947
1.020000	311.295860
1.030000	319.139349
1.040000	326.061520
1.050000	331.672273
1.060000	338.518443
1.070000	346.547861
1.080000	356.995304
1.090000	365.089958
1.100000	374.511645
1.110000	381.628171
1.120000	391.735300
1.130000	400.823544
1.140000	408.986198
1.150000	415.699783
1.160000	421.589394
1.170000	426.589853
1.180000	424.190527
1.190000	408.831415
1.200000	386.839764
1.210000	366.761098
1.220000	356.168258
1.230000	351.675844
1.240000	345.499731
1.250000	338.963894
1.260000	336.855562
1.270000	340.256505
1.280000	348.554702
1.290000	356.216778
1.300000	358.269778
1.310000	356.543349
1.320000	354.336382
1.330000	358.560546
1.340000	365.721652
1.350000	374.263519
1.360000	384.458936
1.370000	394.641358
1.380000	401.538536
1.390000	406.043894
1.400000	409.967103
1.410000	415.126097
1.420000	419.731931
1.430000	428.238133
1.440000	438.825402
1.450000	453.038463
1.460000	465.578979
1.470000	479.206334
1.480000	490.995527
1.490000	495.044451
1.500000	486.760596
1.510000	469.916966
1.520000	456.559638
1.530000	448.773197
1.540000	445.026313
1.550000	437.957466
1.560000	429.194881
1.570000	418.814488
1.580000	411.385952
1.590000	407.336769
1.600000	405.248396
1.610000	401.529328
1.620000	393.790188
1.630000	386.082089
1.640000	379.666628
1.650000	376.311675
1.660000	376.882481
1.670000	381.213446
1.680000	387.435123
1.690000	394.458613
1.700000	400.660664
1.710000	408.054582
1.720000	412.209096
1.730000	415.342511
1.740000	417.424822
1.750000	418.303343
1.760000	419.986155
1.770000	418.921674
1.780000	417.235612
1.790000	410.861956
1.800000	395.824027
1.810000	367.137938
1.820000	331.783518
1.830000	300.094430
1.840000	276.731809
1.850000	255.692423
1.860000	234.359934
1.870000	214.639774
1.880000	197.990177
1.890000	186.257943
1.900000	179.284399
1.910000	175.207322
1.920000	167.568285
1.930000	155.507431
1.940000	143.201090
1.950000	135.811734
1.960000	131.816747
1.970000	128.446887
1.980000	122.097446
1.990000	117.438498
2.000000	117.707667
2.010000	128.102006
2.020000	145.628300
2.030000	162.752340
2.040000	179.234656
2.050000	191.057706
2.060000	201.526254
2.070000	210.685638
2.080000	220.487658
2.090000	229.635601
2.100000	237.782340
2.110000	244.916873
2.120000	248.734154
2.130000	243.184337
2.140000	231.708223
2.150000	217.112625
2.160000	206.355967
2.170000	196.341940
2.180000	189.346816
2.190000	185.560244
2.200000	183.661271
2.210000	180.434134
2.220000	180.658174
2.230000	189.970567
2.240000	204.288266
2.250000	217.828581
2.260000	228.922267
2.270000	242.029067
2.280000	257.202830
2.290000	276.225989
2.300000	300.473653
2.310000	329.408725
2.320000	355.382362
2.330000	379.940486
2.340000	399.934964
2.350000	421.487506
2.360000	441.117336
2.370000	462.376328
2.380000	481.602052
2.390000	501.270504
2.400000	517.724753
2.410000	536.845369
2.420000	554.808286
2.430000	563.061059
2.440000	552.543892
2.450000	526.964933
2.460000	506.644555
2.470000	494.473344
2.480000	488.049398
2.490000	477.613234
2.500000	468.814552
2.510000	468.407109
2.520000	480.222261
2.530000	499.159994
2.540000	521.617244
2.550000	540.887137
2.560000	556.678916
2.570000	569.933007
2.580000	582.056825
2.590000	592.287478
2.600000	598.745834
2.610000	600.625325
2.620000	603.766458
2.630000	607.257578
2.640000	610.767884
2.650000	607.517576
2.660000	600.775279
2.670000	596.763634
2.680000	595.075318
2.690000	596.657168
2.700000	591.655682
2.710000	583.563576
2.720000	568.524971
2.730000	550.132437
2.740000	522.342674
2.750000	480.345780
2.760000	435.177871
2.770000	393.186424
2.780000	361.989608
2.790000	332.286516
2.800000	303.129738
2.810000	275.363176
2.820000	251.244929
2.830000	235.082835
2.840000	226.985479
2.850000	223.094681
2.860000	219.027191
2.870000	215.088194
2.880000	210.701457
2.890000	206.385875
2.900000	201.005187
2.910000	197.327804
2.920000	191.924932
2.930000	185.914771
2.940000	181.145409
2.950000	178.129639
2.960000	171.313634
2.970000	158.317142
2.980000	145.469204
2.990000	136.126076
3.000000	131.247291
3.010000	126.214962
3.020000	121.333672
3.030000	117.934274
3.040000	116.377831
3.050000	103.576590
3.060000	75.406049
3.070000	36.535332
3.080000	-3.259937
3.090000	-39.562709
3.100000	-77.996066
3.110000	-114.677713
3.120000	-152.795184
3.130000	-189.152591
3.140000	-226.321386
3.150000	-257.312955
3.160000	-275.895239
3.170000	-281.535042
3.180000	-282.205692
3.190000	-287.809491
3.200000	-296.531517
3.210000	-306.130816
3.220000	-310.896347
3.230000	-316.866768
3.240000	-326.300302
3.250000	-340.650501
3.260000	-356.073514
3.270000	-367.816023
3.280000	-376.579805
3.290000	-382.030603
3.300000	-391.492841
3.310000	-403.273264
3.320000	-415.458590
3.330000	-424.231142
3.340000	-427.817530
3.350000	-432.933709
3.360000	-437.875174
3.370000	-450.718759
3.380000	-471.633836
3.390000	-498.219938
3.400000	-525.442229
3.410000	-546.105929
3.420000	-561.999816
3.430000	-578.727354
3.440000	-590.250820
3.450000	-598.095372
3.460000	-614.256830
3.470000	-638.489773
3.480000	-665.643125
3.490000	-674.901993
3.500000	-675.506554
3.510000	-673.700978
3.520000	-669.748954
3.530000	-663.227205
3.540000	-658.066170
3.550000	-658.149888
3.560000	-659.759474
3.570000	-659.470732
3.580000	-659.532757
3.590000	-659.515657
3.600000	-655.361217
3.610000	-649.644309
3.620000	-643.250909
3.630000	-638.844071
3.640000	-632.522489
3.650000	-630.471805
3.660000	-628.165258
3.670000	-620.164656
3.680000	-608.897592
3.690000	-601.939942
3.700000	-614.051615
3.710000	-643.405287
3.720000	-680.253158
3.730000	-716.611738
3.740000	-743.187677
3.750000	-769.941289
3.760000	-785.467373
3.770000	-794.385680
3.780000	-799.814066
3.790000	-812.923605
3.800000	-825.846837
3.810000	-831.870015
3.820000	-825.622224
3.830000	-821.610221
3.840000	-819.095204
3.850000	-820.766236
3.860000	-820.951872
3.870000	-812.658855
3.880000	-803.589383
3.890000	-780.568188
3.900000	-778.433057
3.910000	-776.065022
3.920000	-778.088854
3.930000	-767.911884
3.940000	-760.907636
3.950000	-760.467902
3.960000	-750.749191
3.970000	-736.155338
3.980000	-720.999836
3.990000	-710.588362
4.000000	-699.965349
4.010000	-692.119776
4.020000	-692.347279
4.030000	-703.387759
4.040000	-717.109776
4.050000	-732.753247
4.060000	-748.948018
4.070000	-770.546738
4.080000	-790.163711
4.090000	-806.768897
4.100000	-818.455015
4.110000	-828.416561
4.120000	-835.813532
4.130000	-839.475071
4.140000	-835.242385
4.150000	-824.293567
4.160000	-814.769136
4.170000	-808.506967
4.180000	-806.372198
4.190000	-803.115989
4.200000	-801.409520
4.210000	-801.798433
4.220000	-805.193854
4.230000	-810.220684
4.240000	-813.385194
4.250000	-812.058200
4.260000	-806.998793
4.270000	-799.978173
4.280000	-792.357662
4.290000	-786.313494
4.300000	-783.795727
4.310000	-795.084882
4.320000	-812.263696
4.330000	-828.940373
4.340000	-831.792566
4.350000	-832.277209
4.360000	-833.378129
4.370000	-840.032714
4.380000	-859.717303
4.390000	-889.172034
4.400000	-926.807693
4.410000	-953.008454
4.420000	-974.049119
4.430000	-988.236222
4.440000	-998.382790
4.450000	-1007.544486
4.460000	-1012.779777
4.470000	-1017.616924
4.480000	-1014.559496
4.490000	-1009.806595
4.500000	-1007.078623
4.510000	-1008.070175
4.520000	-1011.335183
4.530000	-1014.744517
4.540000	-1018.009340
4.550000	-1018.491515
4.560000	-1015.434334
4.570000	-1013.331825
4.580000	-1012.927799
4.590000	-1011.909050
4.600000	-1006.495747
4.610000	-999.917233
4.620000	-995.141206
4.630000	-994.334629
4.640000	-995.519870
4.650000	-994.824579
4.660000	-992.988790
4.670000	-988.719691
4.680000	-986.216692
4.690000	-977.324578
4.700000	-966.556235
4.710000	-962.015977
4.720000	-974.646682
4.730000	-996.732356
4.740000	-1011.789056
4.750000	-1010.878578
4.760000	-1001.385148
4.770000	-991.101237
4.780000	-980.034932
4.790000	-968.733533
4.800000	-948.734537
4.810000	-925.478320
4.820000	-898.826189
4.830000	-876.986462
4.840000	-854.955035
4.850000	-828.570115
4.860000	-799.171901
4.870000	-768.226726
4.880000	-738.798798
4.890000	-706.267568
4.900000	-673.852254
4.910000	-642.373198
4.920000	-614.648921
4.930000	-586.530424
4.940000	-560.534301
4.950000	-537.419562
4.960000	-512.474392
4.970000	-481.379174
4.980000	-445.833404
4.990000	-416.431928
5.000000	-395.905844
5.010000	-380.200721
5.020000	-372.064622
5.030000	-375.038991
5.040000	-388.278291
5.050000	-406.264338
5.060000	-418.210370
5.070000	-419.572680
5.080000	-407.546035
5.090000	-388.972627
5.100000	-374.289642
5.110000	-361.736764
5.120000	-344.750702
5.130000	-314.558428
5.140000	-274.976221
5.150000	-241.809182
5.160000	-225.583013
5.170000	-220.744493
5.180000	-213.896589
5.190000	-201.434635
5.200000	-190.300007
5.210000	-177.491282
5.220000	-165.110859
5.230000	-148.589291
5.240000	-137.352774
5.250000	-130.049921
5.260000	-127.659578
5.270000	-122.879227
5.280000	-110.697025
5.290000	-93.118422
5.300000	-68.782104
5.310000	-44.436365
5.320000	-19.904232
5.330000	-9.850737
5.340000	-14.374945
5.350000	-33.319257
5.360000	-51.191321
5.370000	-60.530545
5.380000	-62.418126
5.390000	-69.159223
5.400000	-80.329458
5.410000	-94.504235
5.420000	-106.616123
5.430000	-114.241440
5.440000	-118.296486
5.450000	-114.682317
5.460000	-111.059517
5.470000	-108.488358
5.480000	-107.537413
5.490000	-102.994325
5.500000	-96.415956
5.510000	-90.551876
5.520000	-87.005914
5.530000	-85.485030
5.540000	-88.316802
5.550000	-96.795329
5.560000	-104.318902
5.570000	-104.819575
5.580000	-99.720306
5.590000	-93.898287
5.600000	-90.494837
5.610000	-89.679645
5.620000	-88.303974
5.630000	-92.864127
5.640000	-106.814301
5.650000	-131.418383
5.660000	-157.003289
5.670000	-176.354336
5.680000	-186.578668
5.690000	-192.017587
5.700000	-198.866142
5.710000	-209.042332
5.720000	-219.512830
5.730000	-224.765989
5.740000	-227.554169
5.750000	-234.204317
5.760000	-242.944351
5.770000	-251.679077
5.780000	-255.029061
5.790000	-253.874140
5.800000	-249.484181
5.810000	-243.104700
5.820000	-236.308654
5.830000	-229.700609
5.840000	-222.162627
5.850000	-214.000880
5.860000	-205.382887
5.870000	-200.678912
5.880000	-204.302366
5.890000	-213.368880
5.900000	-227.259593
5.910000	-241.412423
5.920000	-261.274926
5.930000	-286.804375
5.940000	-322.666221
5.950000	-361.860189
5.960000	-395.079955
5.970000	-413.946857
5.980000	-421.887285
5.990000	-426.405429
6.000000	-434.386479
6.010000	-442.529113
6.020000	-446.909909
6.030000	-440.670199
6.040000	-426.484506
6.050000	-414.188784
6.060000	-405.059600
6.070000	-397.389356
6.080000	-389.992485
6.090000	-384.954773
6.100000	-381.606496
6.110000	-372.523164
6.120000	-359.934712
6.130000	-352.128709
6.140000	-347.255094
6.150000	-345.425808
6.160000	-341.580254
6.170000	-338.763641
6.180000	-338.920344
6.190000	-341.110987
6.200000	-344.277020
6.210000	-348.143542
6.220000	-357.329668
6.230000	-378.530467
6.240000	-409.706465
6.250000	-442.246952
6.260000	-466.427275
6.270000	-480.665671
6.280000	-492.184930
6.290000	-504.419437
6.300000	-517.946312
6.310000	-526.164513
6.320000	-528.066863
6.330000	-525.928522
6.340000	-528.213773
6.350000	-535.011659
6.360000	-542.357782
6.370000	-549.778715
6.380000	-554.502572
6.390000	-560.236752
6.400000	-563.968176
6.410000	-572.727732
6.420000	-588.090233
6.430000	-605.205248
6.440000	-618.547360
6.450000	-620.346260
6.460000	-614.706163
6.470000	-606.156898
6.480000	-598.530900
6.490000	-592.960692
6.500000	-589.017973
6.510000	-588.436429
6.520000	-598.519058
6.530000	-623.568681
6.540000	-657.990416
6.550000	-690.682633
6.560000	-713.131737
6.570000	-729.159343
6.580000	-743.604083
6.590000	-755.280422
6.600000	-765.744219
6.610000	-768.706222
6.620000	-766.901410
6.630000	-761.118275
6.640000	-756.394532
6.650000	-756.851392
6.660000	-757.853166
6.670000	-760.255133
6.680000	-761.624285
6.690000	-761.317944
6.700000	-757.378576
6.710000	-747.699755
6.720000	-738.140107
6.730000	-734.733361
6.740000	-731.185038
6.750000	-728.770960
6.760000	-724.199896
6.770000	-726.490772
6.780000	-734.501174
6.790000	-740.171839
6.800000	-742.133664
6.810000	-745.516171
6.820000	-759.087473
6.830000	-779.136792
6.840000	-798.006906
6.850000	-812.077526
6.860000	-828.597774
6.870000	-846.302340
6.880000	-864.162637
6.890000	-877.155403
6.900000	-881.368978
6.910000	-877.993433
6.920000	-870.551873
6.930000	-865.475449
6.940000	-865.693664
6.950000	-868.910804
6.960000	-872.802236
6.970000	-879.658193
6.980000	-885.525511
6.990000	-892.720472
7.000000	-899.868803
7.010000	-908.754055
7.020000	-916.494382
7.030000	-920.750025
7.040000	-929.107248
7.050000	-940.681877
7.060000	-954.344368
7.070000	-963.890492
7.080000	-972.229657
7.090000	-979.380070
7.100000	-987.074316
7.110000	-1000.165296
7.120000	-1019.527538
7.130000	-1042.559538
7.140000	-1060.915947
7.150000	-1068.576858
7.160000	-1063.263710
7.170000	-1052.903665
7.180000	-1044.222002
7.190000	-1042.171803
7.200000	-1034.077101
7.210000	-1021.423082
7.220000	-1005.207454
7.230000	-991.965171
7.240000	-979.588673
7.250000	-963.774828
7.260000	-947.596070
7.270000	-931.515556
7.280000	-919.216191
7.290000	-905.501413
7.300000	-892.123881
7.310000	-876.074969
7.320000	-861.651366
7.330000	-840.880171
7.340000	-814.466975
7.350000	-784.619389
7.360000	-757.555757
7.370000	-733.269260
7.380000	-705.888437
7.390000	-675.193579
7.400000	-642.148873
7.410000	-611.718964
7.420000	-588.664398
7.430000	-571.815946
7.440000	-556.089284
7.450000	-530.148097
7.460000	-496.135755
7.470000	-468.764885
7.480000	-453.739815
7.490000	-445.933132
7.500000	-436.246388
7.510000	-422.699892
7.520000	-403.665089
7.530000	-374.368045
7.540000	-332.332332
7.550000	-282.965614
7.560000	-225.890308
7.570000	-172.835248
7.580000	-131.006866
7.590000	-100.254534
7.600000	-71.333829
7.610000	-35.576304
7.620000	1.065965
7.630000	36.881634
7.640000	71.906432
7.650000	109.118007
7.660000	148.510206
7.670000	186.116152
7.680000	227.915095
7.690000	268.858952
7.700000	311.115889
7.710000	350.361146
7.720000	376.078046
7.730000	388.004347
7.740000	390.834463
7.750000	407.145111
7.760000	440.655333
7.770000	486.379343
7.780000	541.935191
7.790000	604.064128
7.800000	671.675086
7.810000	744.874069
7.820000	825.877092
7.830000	910.457072
7.840000	996.877802
7.850000	1083.499971
7.860000	1170.678047
7.870000	1256.665580
7.880000	1339.273304
7.890000	1421.308883
7.900000	1500.319147
7.910000	1576.759601
7.920000	1653.839697
7.930000	1734.678252
7.940000	1816.479882
7.950000	1898.740095
7.960000	1974.573783
7.970000	2048.639214
7.980000	2118.120379
7.990000	2184.691531
8.000000	2248.136943
8.010000	2300.532114
8.020000	2343.991453
8.030000	2379.514260
8.040000	2418.687241
8.050000	2463.282540
8.060000	2510.517818
8.070000	2556.195092
8.080000	2599.172462
8.090000	2641.599855
8.100000	2686.981476
8.110000	2736.148724
8.120000	2790.276997
8.130000	2845.837668
8.140000	2903.738445
8.150000	2959.332495
8.160000	3012.701398
8.170000	3061.977848
8.180000	3105.822356
8.190000	3143.114348
8.200000	3169.759663
8.210000	3185.419632
8.220000	3189.856316
8.230000	3185.224468
8.240000	3171.774612
8.250000	3152.865255
8.260000	3129.180162
8.270000	3104.676801
8.280000	3086.423171
8.290000	3077.974742
8.300000	3074.807139
8.310000	3065.751340
8.320000	3054.729868
8.330000	3048.032133
8.340000	3048.140199
8.350000	3049.121554
8.360000	3046.052032
8.370000	3045.073744
8.380000	3043.104525
8.390000	3047.888601
8.400000	3050.277138
8.410000	3059.921844
8.420000	3080.934830
8.430000	3125.811936
8.440000	3198.737024
8.450000	3288.658705
8.460000	3383.706400
8.470000	3467.327994
8.480000	3536.215129
8.490000	3592.009822
8.500000	3637.561801
8.510000	3678.199783
8.520000	3715.733473
8.530000	3749.551077
8.540000	3781.747193
8.550000	3813.066552
8.560000	3844.262073
8.570000	3870.400773
8.580000	3888.282610
8.590000	3889.889170
8.600000	3880.172670
8.610000	3862.540351
8.620000	3845.577085
8.630000	3822.983869
8.640000	3792.826428
8.650000	3749.583508
8.660000	3694.927846
8.670000	3634.024709
8.680000	3578.879652
8.690000	3537.285546
8.700000	3494.266377
8.710000	3441.394721
8.720000	3371.820660
8.730000	3284.683087
8.740000	3179.951256
8.750000	3048.316394
8.760000	2911.264151
8.770000	2777.953763
8.780000	2638.300305
8.790000	2497.004997
8.800000	2366.057157
8.810000	2247.740172
8.820000	2141.447752
8.830000	2051.491903
8.840000	1977.942484
8.850000	1915.385212
8.860000	1849.250415
8.870000	1765.099598
8.880000	1673.775385
8.890000	1583.956884
8.900000	1500.794726
8.910000	1417.929883
8.920000	1333.972286
8.930000	1252.399090
8.940000	1171.617969
8.950000	1099.040941
8.960000	1034.723887
8.970000	980.500633
8.980000	932.292368
8.990000	892.455976
9.000000	865.009218
9.010000	845.865358
9.020000	836.216017
9.030000	831.065682
9.040000	828.906140
9.050000	827.737539
9.060000	825.401176
9.070000	827.902964
9.080000	828.330999
9.090000	827.893407
9.100000	824.720864
9.110000	824.037604
9.120000	825.896564
9.130000	825.300396
9.140000	824.222970
9.150000	825.696743
9.160000	825.325366
9.170000	818.889044
9.180000	804.562212
9.190000	789.900718
9.200000	781.923585
9.210000	785.364506
9.220000	791.706003
9.230000	794.289887
9.240000	790.287801
9.250000	784.691310
9.260000	781.988478
9.270000	780.194241
9.280000	781.151310
9.290000	778.124272
9.300000	772.786910
9.310000	764.496617
9.320000	758.887428
9.330000	757.638109
9.340000	757.754113
9.350000	760.235228
9.360000	762.721876
9.370000	766.952887
9.380000	764.436464
9.390000	755.468574
9.400000	744.268016
9.410000	737.763520
9.420000	735.516771
9.430000	733.484952
9.440000	733.884715
9.450000	731.954824
9.460000	731.709970
9.470000	725.491440
9.480000	710.646708
9.490000	684.123613
9.500000	653.708789
9.510000	625.846585
9.520000	603.855679
9.530000	582.972994
9.540000	560.432590
9.550000	536.865498
9.560000	517.110049
9.570000	504.174192
9.580000	495.859980
9.590000	490.570188
9.600000	484.354648
9.610000	477.728528
9.620000	469.259587
9.630000	460.643281
9.640000	451.238133
9.650000	442.643078
9.660000	435.959733
9.670000	432.386421
9.680000	431.084541
9.690000	429.532800
9.700000	428.959490
9.710000	430.083136
9.720000	434.240342
9.730000	440.363250
9.740000	446.921812
9.750000	453.045902
9.760000	454.326457
9.770000	453.814104
9.780000	452.121630
9.790000	444.964907
9.800000	426.641115
9.810000	404.545381
9.820000	390.565454
9.830000	385.820943
9.840000	381.185129
9.850000	374.838865
9.860000	365.527450
9.870000	359.263315
9.880000	356.907663
9.890000	361.411013
9.900000	374.667950
9.910000	386.239941
9.920000	396.170927
9.930000	399.434300
9.940000	396.065957
9.950000	386.005331
9.960000	366.663095
9.970000	338.292003
9.980000	299.629355
9.990000	257.974253
10.000000	223.641401
10.010000	196.330293
10.020000	173.682847
10.030000	160.406226
10.040000	156.076124
10.050000	159.845692
10.060000	165.818994
10.070000	172.659910
10.080000	174.911540
10.090000	165.161849
10.100000	150.402167
10.110000	144.372942
10.120000	155.233510
10.130000	174.559961
10.140000	192.080009
10.150000	203.114666
10.160000	214.977193
10.170000	230.005543
10.180000	249.553601
10.190000	271.567742
10.200000	293.808931
10.210000	316.481499
10.220000	337.401298
10.230000	359.083844
10.240000	376.647773
10.250000	393.716045
10.260000	406.545925
10.270000	417.034383
10.280000	423.436789
10.290000	425.023623
10.300000	427.010830
10.310000	426.990832
10.320000	429.267604
10.330000	432.271599
10.340000	441.538971
10.350000	456.863723
10.360000	476.799440
10.370000	498.443067
10.380000	512.030997
10.390000	539.431259
10.400000	590.884625
10.410000	661.363556
10.420000	725.333332
10.430000	755.608080
10.440000	752.172114
10.450000	711.490407
10.460000	637.343806
10.470000	532.575851
10.480000	356.779214
10.490000	97.010014
10.500000	-290.722300
10.510000	-789.631894
10.520000	-1280.199236
10.530000	-1635.424455
10.540000	-1880.605478
10.550000	-2067.961216
10.560000	-2220.898468
10.570000	-2339.851820
10.580000	-2419.221891
10.590000	-2470.760347
10.600000	-2518.279154
10.610000	-2576.165720
10.620000	-2646.677857
10.630000	-2728.269950
10.640000	-2824.627278
10.650000	-2940.213525
10.660000	-3057.643108
10.670000	-3159.985913
10.680000	-3243.863868
10.690000	-3306.763374
10.700000	-3349.156664
10.710000	-3368.018913
10.720000	-3365.516501
10.730000	-3347.337938
10.740000	-3320.601753
10.750000	-3292.045058
10.760000	-3260.388429
10.770000	-3229.824929
10.780000	-3187.520317
10.790000	-3131.694713
10.800000	-3065.392560
10.810000	-2998.644989
10.820000	-2935.978498
10.830000	-2877.646503
10.840000	-2827.638480
10.850000	-2793.388717
10.860000	-2770.999348
10.870000	-2753.187732
10.880000	-2727.412607
10.890000	-2690.078873
10.900000	-2646.251240
10.910000	-2599.367820
10.920000	-2555.500049
10.930000	-2509.362502
10.940000	-2460.165435
10.950000	-2404.755543
10.960000	-2343.913747
10.970000	-2287.579782
10.980000	-2236.710672
10.990000	-2184.122170
11.000000	-2128.264125
11.010000	-2065.065888
11.020000	-1993.233976
11.030000	-1908.744713
11.040000	-1816.638486
11.050000	-1732.863743
11.060000	-1657.075624
11.070000	-1593.071984
11.080000	-1539.242854
11.090000	-1494.694238
11.100000	-1453.141080
11.110000	-1407.727810
11.120000	-1361.479737
11.130000	-1318.177144
11.140000	-1281.565708
11.150000	-1240.667160
11.160000	-1189.079072
11.170000	-1132.940142
11.180000	-1083.354954
11.190000	-1040.265024
11.200000	-993.686474
11.210000	-943.700784
11.220000	-897.120042
11.230000	-859.884701
11.240000	-830.951962
11.250000	-806.813019
11.260000	-793.895987
11.270000	-792.141965
11.280000	-795.241584
11.290000	-792.878936
11.300000	-780.689507
11.310000	-765.733546
11.320000	-750.879117
11.330000	-740.011085
11.340000	-738.158938
11.350000	-740.682727
11.360000	-744.530705
11.370000	-744.436120
11.380000	-747.023212
11.390000	-751.256798
11.400000	-754.600153
11.410000	-755.168057
11.420000	-758.285919
11.430000	-768.499750
11.440000	-787.052071
11.450000	-807.566858
11.460000	-824.577268
11.470000	-837.403867
11.480000	-844.189516
11.490000	-849.014328
11.500000	-849.875722
11.510000	-852.403268
11.520000	-855.969103
11.530000	-864.228503
11.540000	-884.162986
11.550000	-914.121558
11.560000	-945.429262
11.570000	-967.768603
11.580000	-979.477959
11.590000	-981.849214
11.600000	-977.288637
11.610000	-968.690211
11.620000	-959.526739
11.630000	-952.956294
11.640000	-948.514284
11.650000	-946.651052
11.660000	-944.585881
11.670000	-943.449570
11.680000	-942.077608
11.690000	-940.678373
11.700000	-937.657640
11.710000	-932.336346
11.720000	-926.671630
11.730000	-919.746532
11.740000	-913.787744
11.750000	-906.905614
11.760000	-902.679118
11.770000	-899.477325
11.780000	-891.987346
11.790000	-878.820135
11.800000	-862.733969
11.810000	-850.267008
11.820000	-846.570469
11.830000	-853.130834
11.840000	-859.467781
11.850000	-862.776077
11.860000	-856.448303
11.870000	-849.558020
11.880000	-843.167091
11.890000	-830.746018
11.900000	-800.297730
11.910000	-739.693812
11.920000	-659.918625
11.930000	-565.977195
11.940000	-481.687374
11.950000	-412.112732
11.960000	-366.898094
11.970000	-332.870692
11.980000	-303.887856
11.990000	-284.083204
12.000000	-267.944044
12.010000	-254.066509
12.020000	-241.427373
12.030000	-230.814138
12.040000	-220.997764
12.050000	-206.643004
12.060000	-187.675035
12.070000	-168.576734
12.080000	-149.098231
12.090000	-131.944080
12.100000	-120.615694
12.110000	-123.416603
12.120000	-140.201847
12.130000	-160.953812
12.140000	-172.872067
12.150000	-175.951113
12.160000	-172.306299
12.170000	-168.719320
12.180000	-163.809438
12.190000	-159.588071
12.200000	-149.714098
12.210000	-134.566307
12.220000	-121.395224
12.230000	-111.285098
12.240000	-104.498146
12.250000	-100.425445
12.260000	-95.683961
12.270000	-93.674832
12.280000	-84.924715
12.290000	-74.387371
12.300000	-58.231427
12.310000	-41.213476
12.320000	-25.955480
12.330000	-14.126727
12.340000	-5.096201
12.350000	5.213277
12.360000	12.985295
12.370000	19.143640
12.380000	13.614034
12.390000	-3.654241
12.400000	-28.835579
12.410000	-58.542215
12.420000	-86.365678
12.430000	-112.202846
12.440000	-131.639164
12.450000	-139.951081
12.460000	-143.364399
12.470000	-137.759132
12.480000	-129.874244
12.490000	-116.962466
12.500000	-107.168562
12.510000	-100.564737
12.520000	-94.543180
12.530000	-90.933407
12.540000	-86.324164
12.550000	-81.734890
12.560000	-75.184099
12.570000	-67.631524
12.580000	-59.128493
12.590000	-50.283190
12.600000	-40.155348
12.610000	-31.030309
12.620000	-23.931880
12.630000	-16.186962
12.640000	-11.478769
12.650000	-12.092552
12.660000	-27.798872
12.670000	-53.710417
12.680000	-75.846413
12.690000	-91.778972
12.700000	-105.998458
12.710000	-122.932735
12.720000	-138.880097
12.730000	-149.503218
12.740000	-151.850552
12.750000	-148.507125
12.760000	-138.228578
12.770000	-129.622721
12.780000	-123.335907
12.790000	-119.153658
12.800000	-113.184044
12.810000	-107.785875
12.820000	-104.112851
12.830000	-99.825681
12.840000	-93.795366
12.850000	-83.946470
12.860000	-77.252850
12.870000	-71.458556
12.880000	-66.466109
12.890000	-61.384840
12.900000	-52.755220
12.910000	-44.079684
12.920000	-34.782430
12.930000	-34.886134
12.940000	-52.219307
12.950000	-80.068199
12.960000	-107.727305
12.970000	-125.000274
12.980000	-138.028650
12.990000	-148.334663
13.000000	-158.079945
13.010000	-166.743069
13.020000	-170.871100
13.030000	-171.244204
13.040000	-164.732473
13.050000	-154.510132
13.060000	-146.348311
13.070000	-140.508113
13.080000	-136.709702
13.090000	-129.906557
13.100000	-122.504968
13.110000	-117.386228
13.120000	-113.368846
13.130000	-107.607614
13.140000	-100.320603
13.150000	-90.906060
13.160000	-82.695654
13.170000	-73.936209
13.180000	-65.490068
13.190000	-56.707562
13.200000	-47.698435
13.210000	-39.225753
13.220000	-32.987590
13.230000	-40.849934
13.240000	-63.323462
13.250000	-92.528816
13.260000	-116.057815
13.270000	-131.980574
13.280000	-144.218843
13.290000	-151.495161
13.300000	-158.807389
13.310000	-167.409585
13.320000	-173.792811
13.330000	-170.389322
13.340000	-158.211427
13.350000	-146.801952
13.360000	-140.357990
13.370000	-135.603184
13.380000	-131.586566
13.390000	-127.145959
13.400000	-123.563810
13.410000	-117.751844
13.420000	-107.952986
13.430000	-96.109327
13.440000	-84.751709
13.450000	-76.541590
13.460000	-69.277991
13.470000	-61.717221
13.480000	-54.215898
13.490000	-49.640132
13.500000	-46.548851
13.510000	-41.631273
13.520000	-39.643818
13.530000	-49.707414
13.540000	-73.123474
13.550000	-99.490734
13.560000	-118.342093
13.570000	-133.719535
13.580000	-145.621724
13.590000	-156.025707
13.600000	-161.959519
13.610000	-167.756853
13.620000	-169.011367
13.630000	-162.228377
13.640000	-151.154125
13.650000	-141.442643
13.660000	-135.023971
13.670000	-128.713323
13.680000	-122.305607
13.690000	-117.392353
13.700000	-112.649125
13.710000	-107.142157
13.720000	-100.062495
13.730000	-92.967777
13.740000	-84.871333
13.750000	-77.536545
13.760000	-71.746211
13.770000	-64.831037
13.780000	-56.028002
13.790000	-43.524126
13.800000	-32.730919
13.810000	-21.263556
13.820000	-14.522777
13.830000	-19.407793
13.840000	-39.372333
13.850000	-66.588008
13.860000	-88.275056
13.870000	-102.865586
13.880000	-112.587910
13.890000	-124.556088
13.900000	-133.599662
13.910000	-139.993985
13.920000	-139.330786
13.930000	-132.846086
13.940000	-122.128044
13.950000	-109.097396
13.960000	-101.673201
13.970000	-94.710712
13.980000	-89.634080
13.990000	-83.710083
14.000000	-79.005409
14.010000	-72.425671
14.020000	-62.110312
14.030000	-50.884103
14.040000	-38.937746
14.050000	-29.079282
14.060000	-19.816049
14.070000	-10.673059
14.080000	-2.426717
14.090000	5.675311
14.100000	13.230938
14.110000	24.307662
14.120000	36.810248
14.130000	45.871189
14.140000	41.648229
14.150000	22.061916
14.160000	-2.874490
14.170000	-23.475294
14.180000	-35.806500
14.190000	-45.766126
14.200000	-53.448979
14.210000	-59.785452
14.220000	-68.157513
14.230000	-75.512884
14.240000	-75.917032
14.250000	-68.646652
14.260000	-59.753638
14.270000	-52.497684
14.280000	-46.304434
14.290000	-37.063512
14.300000	-28.935576
14.310000	-22.343155
14.320000	-15.618177
14.330000	-9.686911
14.340000	-0.009204
14.350000	7.550865
14.360000	17.572106
14.370000	26.042247
14.380000	33.777427
14.390000	38.135092
14.400000	40.939527
14.410000	45.844353
14.420000	51.700039
14.430000	57.499154
14.440000	61.069381
14.450000	56.422383
14.460000	37.384001
14.470000	5.646551
14.480000	-24.320074
14.490000	-44.868263
14.500000	-59.441310
14.510000	-70.767602
14.520000	-79.610092
14.530000	-82.708623
14.540000	-86.859011
14.550000	-85.999969
14.560000	-81.179550
14.570000	-70.668901
14.580000	-64.584287
14.590000	-60.020184
14.600000	-54.040172
14.610000	-47.432715
14.620000	-40.545650
14.630000	-34.899052
14.640000	-26.419466
14.650000	-18.101620
14.660000	-10.336065
14.670000	-1.013706
14.680000	9.357316
14.690000	21.027008
14.700000	31.995453
14.710000	42.357963
14.720000	52.251742
14.730000	61.640029
14.740000	72.131020
14.750000	83.870098
14.760000	95.291169
14.770000	97.031206
14.780000	81.742856
14.790000	55.849687
14.800000	32.165191
14.810000	14.262767
14.820000	1.529552
14.830000	-9.712167
14.840000	-17.804146
14.850000	-25.411477
14.860000	-31.840911
14.870000	-33.147266
14.880000	-29.266866
14.890000	-20.595968
14.900000	-12.417680
14.910000	-6.412665
14.920000	-3.611049
14.930000	-1.597359
14.940000	0.814960
14.950000	5.509495
14.960000	13.528506
14.970000	24.235132
14.980000	34.191302
14.990000	42.591825
15.000000	49.480466
15.010000	54.237613
15.020000	59.402771
15.030000	65.836801
15.040000	74.951480
15.050000	84.718309
15.060000	91.788543
15.070000	96.903242
15.080000	99.581319
15.090000	87.013596
15.100000	62.377495
15.110000	30.755549
15.120000	8.832110
15.130000	-4.925750
15.140000	-17.768654
15.150000	-27.955153
15.160000	-37.084520
15.170000	-38.668059
15.180000	-38.807141
15.190000	-34.728558
15.200000	-26.576200
15.210000	-16.833699
15.220000	-7.381609
15.230000	-1.647554
15.240000	2.122960
15.250000	3.829451
15.260000	6.599226
15.270000	12.934446
15.280000	20.692650
15.290000	27.335145
15.300000	32.422176
15.310000	39.711250
15.320000	47.768195
15.330000	55.385608
15.340000	63.083464
15.350000	70.020940
15.360000	79.374687
15.370000	86.265943
15.380000	94.655525
15.390000	99.785876
15.400000	95.565112
15.410000	75.270029
15.420000	44.140383
15.430000	16.077669
15.440000	-7.351658
15.450000	-19.467208
15.460000	-30.924339
15.470000	-38.673933
15.480000	-48.219796
15.490000	-53.213854
15.500000	-52.227641
15.510000	-46.125410
15.520000	-39.276915
15.530000	-34.397352
15.540000	-32.352500
15.550000	-32.696876
15.560000	-33.120611
15.570000	-33.366144
15.580000	-27.904810
15.590000	-21.761425
15.600000	-13.367722
15.610000	-5.866259
15.620000	2.152127
15.630000	9.993599
15.640000	15.973262
15.650000	22.836505
15.660000	30.424173
15.670000	39.653662
15.680000	50.176442
15.690000	59.102213
15.700000	69.583890
15.710000	78.171415
15.720000	75.280148
15.730000	55.558107
15.740000	28.657017
15.750000	9.264904
15.760000	-1.028947
15.770000	-10.749397
15.780000	-19.048952
15.790000	-26.126150
15.800000	-30.757759
15.810000	-35.873480
15.820000	-36.804664
15.830000	-29.314090
15.840000	-18.235039
15.850000	-7.778011
15.860000	-0.686200
15.870000	5.748431
15.880000	9.826127
15.890000	10.920286
15.900000	13.327982
15.910000	20.064831
15.920000	31.131303
15.930000	42.174036
15.940000	50.917154
15.950000	58.269015
15.960000	65.681730
15.970000	73.672195
15.980000	81.420272
15.990000	91.061334
16.000000	99.455705
16.010000	108.108143
16.020000	115.461175
16.030000	122.473846
16.040000	122.090148
16.050000	103.809137
16.060000	76.083759
16.070000	47.457455
16.080000	28.729878
16.090000	16.713864
16.100000	6.685145
16.110000	-2.706894
16.120000	-11.375210
16.130000	-19.481041
16.140000	-24.781472
16.150000	-25.274832
16.160000	-19.207199
16.170000	-10.435956
16.180000	-4.656366
16.190000	3.749130
16.200000	10.850246
16.210000	18.264987
16.220000	21.990483
16.230000	26.119005
16.240000	34.446027
16.250000	40.928989
16.260000	46.236522
16.270000	50.721485
16.280000	56.682602
16.290000	65.160964
16.300000	71.095890
16.310000	75.601565
16.320000	83.169477
16.330000	90.338206
16.340000	97.237671
16.350000	102.054446
16.360000	105.297374
16.370000	98.063492
16.380000	75.353311
16.390000	46.430750
16.400000	23.402951
16.410000	10.428929
16.420000	2.413448
16.430000	-2.577747
16.440000	-4.249949
16.450000	-2.932630
16.460000	2.076520
16.470000	10.029056
16.480000	23.064997
16.490000	35.623856
16.500000	45.383489
16.510000	50.207142
16.520000	49.694916
16.530000	47.122209
16.540000	43.990011
16.550000	48.043154
16.560000	54.573153
16.570000	63.967200
16.580000	73.804540
16.590000	82.549821
16.600000	89.026577
16.610000	93.125223
16.620000	96.577039
16.630000	100.021179
16.640000	102.780957
16.650000	106.580984
16.660000	109.298412
16.670000	112.140889
16.680000	115.805599
16.690000	111.666503
16.700000	95.650119
16.710000	69.867445
16.720000	46.514192
16.730000	29.370638
16.740000	16.020121
16.750000	4.534228
16.760000	-7.816919
16.770000	-18.628672
16.780000	-27.332750
16.790000	-29.120160
16.800000	-23.199675
16.810000	-15.302777
16.820000	-7.061711
16.830000	-1.829648
16.840000	3.421097
16.850000	9.631916
16.860000	12.550649
16.870000	14.439223
16.880000	18.677969
16.890000	28.240288
16.900000	42.457005
16.910000	56.358104
16.920000	69.243176
16.930000	83.479932
16.940000	97.012960
16.950000	110.939690
16.960000	124.106007
16.970000	139.406860
16.980000	152.843250
16.990000	159.534913
17.000000	153.240231
17.010000	132.339309
17.020000	104.326063
17.030000	80.150521
17.040000	68.737159
17.050000	62.915188
17.060000	59.156089
17.070000	55.014160
17.080000	51.248652
17.090000	50.115574
17.100000	51.332743
17.110000	59.228316
17.120000	67.386154
17.130000	70.008419
17.140000	69.795400
17.150000	66.780522
17.160000	68.892488
17.170000	74.191843
17.180000	85.669603
17.190000	100.253158
17.200000	115.782702
17.210000	131.986631
17.220000	152.573866
17.230000	178.713756
17.240000	209.359733
17.250000	238.762243
17.260000	268.500164
17.270000	297.805546
17.280000	327.646780
17.290000	355.173261
17.300000	373.450566
17.310000	376.545595
17.320000	359.926885
17.330000	335.298016
17.340000	313.737123
17.350000	301.706870
17.360000	292.179559
17.370000	282.463688
17.380000	269.958431
17.390000	259.911715
17.400000	252.727115
17.410000	247.024757
17.420000	247.850155
17.430000	251.450468
17.440000	254.645057
17.450000	249.867881
17.460000	242.479331
17.470000	236.619264
17.480000	234.311902
17.490000	236.371547
17.500000	242.144780
17.510000	252.799953
17.520000	261.627251
17.530000	272.261447
17.540000	282.431620
17.550000	294.406969
17.560000	307.232130
17.570000	322.230517
17.580000	336.024933
17.590000	346.395884
17.600000	349.151053
17.610000	345.247558
17.620000	327.259742
17.630000	298.133404
17.640000	270.066283
17.650000	248.339447
17.660000	233.866778
17.670000	214.849942
17.680000	193.043946
17.690000	160.339539
17.700000	123.601852
17.710000	91.172882
17.720000	74.173824
17.730000	69.306463
17.740000	64.394666
17.750000	56.137750
17.760000	46.971332
17.770000	45.994150
17.780000	50.856776
17.790000	62.867558
17.800000	83.416145
17.810000	122.438214
17.820000	174.607445
17.830000	228.332250
17.840000	261.443687
17.850000	272.958538
17.860000	270.310513
17.870000	264.602438
17.880000	257.158081
17.890000	245.577108
17.900000	227.346401
17.910000	196.215971
17.920000	156.571783
17.930000	111.191658
17.940000	74.169543
17.950000	43.798636
17.960000	22.453257
17.970000	2.385945
17.980000	-14.896090
17.990000	-31.027132
18.000000	-40.551001
18.010000	-45.452295
18.020000	-45.524821
18.030000	-46.552115
18.040000	-49.142578
18.050000	-53.308393
18.060000	-59.419356
18.070000	-64.045550
18.080000	-68.032470
18.090000	-67.761649
18.100000	-66.321817
18.110000	-62.456902
18.120000	-56.941103
18.130000	-49.473506
18.140000	-41.890504
18.150000	-34.810951
18.160000	-29.499137
18.170000	-20.119629
18.180000	-13.132212
18.190000	-8.735055
18.200000	-19.122120
18.210000	-39.293748
18.220000	-65.439057
18.230000	-85.486791
18.240000	-96.103636
18.250000	-105.368091
18.260000	-115.074474
18.270000	-128.242881
18.280000	-139.679478
18.290000	-144.107439
18.300000	-139.951246
18.310000	-129.305276
18.320000	-121.566203
18.330000	-117.469055
18.340000	-113.158215
18.350000	-112.978285
18.360000	-115.724512
18.370000	-122.149012
18.380000	-119.242395
18.390000	-110.353981
18.400000	-99.083540
18.410000	-95.900319
18.420000	-99.213989
18.430000	-104.427416
18.440000	-110.008466
18.450000	-110.933792
18.460000	-104.464676
18.470000	-91.104454
18.480000	-78.261822
18.490000	-72.260694
18.500000	-78.712155
18.510000	-95.383790
18.520000	-118.479847
18.530000	-135.136888
18.540000	-145.605049
18.550000	-149.877355
18.560000	-154.068390
18.570000	-157.587315
18.580000	-158.181660
18.590000	-154.955408
18.600000	-141.601053
18.610000	-127.019504
18.620000	-111.651355
18.630000	-99.413872
18.640000	-88.673710
18.650000	-78.129694
18.660000	-67.017991
18.670000	-55.836005
18.680000	-43.010184
18.690000	-31.541721
18.700000	-20.979642
18.710000	-15.246102
18.720000	-10.246976
18.730000	-0.265827
18.740000	14.148776
18.750000	28.717924
18.760000	37.888176
18.770000	47.079055
18.780000	54.287860
18.790000	60.462386
18.800000	54.669099
18.810000	34.550218
18.820000	7.758875
18.830000	-14.671532
18.840000	-27.151745
18.850000	-37.248099
18.860000	-47.366783
18.870000	-53.793020
18.880000	-55.908733
18.890000	-49.312532
18.900000	-36.788641
18.910000	-18.476240
18.920000	2.338105
18.930000	22.041213
18.940000	40.155616
18.950000	55.906764
18.960000	74.338113
18.970000	96.109374
18.980000	121.869775
18.990000	148.651335
19.000000	176.759806
19.010000	203.200367
19.020000	226.002208
19.030000	242.764532
19.040000	257.612271
19.050000	274.010040
19.060000	290.893134
19.070000	305.935408
19.080000	314.183522
19.090000	312.215134
19.100000	296.490484
19.110000	275.210748
19.120000	261.494668
19.130000	256.524030
19.140000	255.499615
19.150000	253.186708
19.160000	253.212898
19.170000	255.857585
19.180000	258.268369
19.190000	262.559623
19.200000	265.326262
19.210000	267.959140
19.220000	266.386851
19.230000	264.398000
19.240000	262.121864
19.250000	261.860690
19.260000	261.195156
19.270000	263.022611
19.280000	265.607065
19.290000	270.210824
19.300000	275.697153
19.310000	282.755530
19.320000	292.807437
19.330000	301.636308
19.340000	310.952261
19.350000	321.198573
19.360000	332.781984
19.370000	341.098773
19.380000	340.961833
19.390000	325.345680
19.400000	301.198510
19.410000	272.603191
19.420000	250.472440
19.430000	233.512355
19.440000	222.437085
19.450000	215.098876
19.460000	208.083482
19.470000	204.054000
19.480000	206.082929
19.490000	211.010610
19.500000	212.091138
19.510000	209.003486
19.520000	205.462393
19.530000	206.351541
19.540000	208.496822
19.550000	210.723730
19.560000	212.217550
19.570000	212.448680
19.580000	214.968130
19.590000	216.506874
19.600000	221.090719
19.610000	225.898231
19.620000	230.572038
19.630000	236.980990
19.640000	244.732425
19.650000	256.423899
19.660000	266.890083
19.670000	278.238696
19.680000	286.382623
19.690000	287.071591
19.700000	272.884985
19.710000	249.291732
19.720000	224.747371
19.730000	207.864100
19.740000	197.267434
19.750000	188.112016
19.760000	180.820351
19.770000	175.711338
19.780000	175.732148
19.790000	177.645303
19.800000	184.679970
19.810000	190.905673
19.820000	193.989202
19.830000	194.525581
19.840000	195.656886
19.850000	200.831081
19.860000	205.654413
19.870000	211.838021
19.880000	215.320716
19.890000	222.892687
19.900000	233.650432
19.910000	245.294684
19.920000	253.659472
19.930000	258.391555
19.940000	266.038484
19.950000	272.476753
19.960000	281.122453
19.970000	287.892212
19.980000	292.902092
19.990000	291.979971
20.000000	279.361376
20.010000	254.766751
20.020000	223.519942
20.030000	195.917683
20.040000	176.680286
20.050000	159.388378
20.060000	145.211763
20.070000	130.863717
20.080000	116.101748
20.090000	104.031660
20.100000	97.674834
20.110000	101.887904
20.120000	104.885397
20.130000	105.790552
20.140000	103.779137
20.150000	102.053883
20.160000	99.677720
20.170000	97.672061
20.180000	99.933588
20.190000	102.284037
20.200000	104.215434
20.210000	103.573975
20.220000	104.196134
20.230000	105.534191
20.240000	106.524320
20.250000	109.853530
20.260000	113.187451
20.270000	117.864943
20.280000	122.190816
20.290000	128.235179
20.300000	132.193107
20.310000	124.939109
20.320000	102.223675
20.330000	72.024752
20.340000	46.948328
20.350000	29.764665
20.360000	13.995439
20.370000	-3.805993
20.380000	-19.923433
20.390000	-32.367141
20.400000	-37.490258
20.410000	-35.591723
20.420000	-25.037796
20.430000	-12.826123
20.440000	-2.896472
20.450000	2.624831
20.460000	5.268514
20.470000	7.090755
20.480000	11.784766
20.490000	22.568720
20.500000	35.628290
20.510000	50.067866
20.520000	62.812236
20.530000	76.261701
20.540000	88.664335
20.550000	104.819663
20.560000	125.518131
20.570000	148.381537
20.580000	170.048416
20.590000	187.623788
20.600000	204.274348
20.610000	216.192452
20.620000	223.857528
20.630000	220.753945
20.640000	199.784385
20.650000	166.695890
20.660000	132.738093
20.670000	107.645305
20.680000	87.332039
20.690000	66.603097
20.700000	48.292688
20.710000	33.233267
20.720000	21.595958
20.730000	14.209573
20.740000	12.244387
20.750000	17.197556
20.760000	20.208372
20.770000	21.220284
20.780000	10.489539
20.790000	-12.387654
20.800000	-41.535141
20.810000	-77.670239
20.820000	-117.873142
20.830000	-165.961415
20.840000	-213.501021
20.850000	-249.569390
20.860000	-271.140996
20.870000	-275.836317
20.880000	-267.789475
20.890000	-252.765104
20.900000	-234.422989
20.910000	-217.354029
20.920000	-199.696456
20.930000	-183.946026
20.940000	-175.301879
20.950000	-178.528119
20.960000	-188.872548
20.970000	-205.445627
20.980000	-230.109000
20.990000	-269.367537
21.000000	-315.297559
21.010000	-359.947859
21.020000	-395.144076
21.030000	-422.547178
21.040000	-441.643349
21.050000	-456.484512
21.060000	-470.466369
21.070000	-483.404298
21.080000	-490.936937
21.090000	-492.326457
21.100000	-493.418070
21.110000	-496.230648
21.120000	-500.886591
21.130000	-503.783928
21.140000	-510.372677
21.150000	-517.305796
21.160000	-524.193011
21.170000	-526.475716
21.180000	-524.018365
21.190000	-521.986436
21.200000	-519.820933
21.210000	-518.494326
21.220000	-516.944235
21.230000	-514.329168
21.240000	-513.069525
21.250000	-509.473599
21.260000	-505.536824
21.270000	-499.935311
21.280000	-498.349764
21.290000	-499.704871
21.300000	-501.150901
21.310000	-501.137734
21.320000	-500.618640
21.330000	-500.563692
21.340000	-501.411287
21.350000	-511.337254
21.360000	-536.190542
21.370000	-572.411283
21.380000	-605.265390
21.390000	-628.501531
21.400000	-646.027695
21.410000	-663.589677
21.420000	-682.437127
21.430000	-699.659161
21.440000	-711.837884
21.450000	-716.724519
21.460000	-713.568694
21.470000	-707.799393
21.480000	-703.287704
21.490000	-701.192558
21.500000	-698.320424
21.510000	-694.252263
21.520000	-690.350204
21.530000	-683.625430
21.540000	-674.381013
21.550000	-662.990682
21.560000	-650.405197
21.570000	-636.678488
21.580000	-622.756739
21.590000	-613.033892
21.600000	-608.089147
21.610000	-600.023899
21.620000	-588.767485
21.630000	-571.330190
21.640000	-555.800419
21.650000	-541.603386
21.660000	-527.154472
21.670000	-510.198489
21.680000	-489.167347
21.690000	-467.464032
21.700000	-443.489784
21.710000	-422.738865
21.720000	-413.810399
21.730000	-421.325594
21.740000	-434.745365
21.750000	-443.902500
21.760000	-441.677688
21.770000	-437.847961
21.780000	-432.906485
21.790000	-432.462601
21.800000	-434.101522
21.810000	-435.398642
21.820000	-430.608681
21.830000	-419.337101
21.840000	-408.790915
21.850000	-402.252115
21.860000	-399.951907
21.870000	-397.474637
21.880000	-396.449572
21.890000	-393.336158
21.900000	-392.288027
21.910000	-389.161004
21.920000	-387.132496
21.930000	-385.627901
21.940000	-386.636145
21.950000	-391.077115
21.960000	-394.777503
21.970000	-399.527516
21.980000	-401.889082
21.990000	-403.977523
22.000000	-401.634218
22.010000	-398.098401
22.020000	-394.022565
22.030000	-392.542846
22.040000	-391.379207
22.050000	-383.289923
22.060000	-370.076701
22.070000	-353.017994
22.080000	-347.127433
22.090000	-348.008013
22.100000	-340.129258
22.110000	-313.327519
22.120000	-262.459358
22.130000	-205.691941
22.140000	-158.763414
22.150000	-123.331385
22.160000	-100.713298
22.170000	-85.264870
22.180000	-85.682128
22.190000	-104.159787
22.200000	-132.267462
22.210000	-164.040226
22.220000	-192.160894
22.230000	-208.897733
22.240000	-216.726962
22.250000	-215.057808
22.260000	-212.963623
22.270000	-210.503565
22.280000	-210.518086
22.290000	-212.917824
22.300000	-215.041753
22.310000	-215.311042
22.320000	-208.196942
22.330000	-198.040118
22.340000	-183.311140
22.350000	-169.429792
22.360000	-156.384978
22.370000	-147.469474
22.380000	-139.749022
22.390000	-134.828641
22.400000	-128.069307
22.410000	-122.515342
22.420000	-112.003774
22.430000	-99.867299
22.440000	-89.243251
22.450000	-91.881492
22.460000	-111.766350
22.470000	-135.485893
22.480000	-152.936224
22.490000	-156.735159
22.500000	-158.127682
22.510000	-160.265652
22.520000	-165.620424
22.530000	-168.075408
22.540000	-159.409934
22.550000	-135.866330
22.560000	-94.169371
22.570000	-49.008221
22.580000	-7.208531
22.590000	27.223285
22.600000	62.485124
22.610000	102.810172
22.620000	133.493343
22.630000	153.468072
22.640000	155.852785
22.650000	145.860024
22.660000	122.563172
22.670000	92.975228
22.680000	61.635180
22.690000	27.443665
22.700000	-10.924410
22.710000	-43.688070
22.720000	-61.114507
22.730000	-51.110060
22.740000	-8.954624
22.750000	54.796529
22.760000	125.230793
22.770000	193.758289
22.780000	264.489200
22.790000	334.739799
22.800000	391.758665
22.810000	436.798782
22.820000	481.429103
22.830000	528.540195
22.840000	572.114967
22.850000	605.653797
22.860000	635.209105
22.870000	661.125803
22.880000	682.006149
22.890000	706.332913
22.900000	742.845467
22.910000	794.231905
22.920000	850.358331
22.930000	897.496712
22.940000	940.297612
22.950000	974.446413
22.960000	999.958545
22.970000	1009.753284
22.980000	1003.013570
22.990000	987.794970
23.000000	972.112479
23.010000	969.897110
23.020000	963.502401
23.030000	919.333387
23.040000	839.291963
23.050000	762.237637
23.060000	726.300370
23.070000	724.384492
23.080000	738.581939
23.090000	761.271948
23.100000	798.948113
23.110000	848.512388
23.120000	892.320482
23.130000	909.456804
23.140000	895.451122
23.150000	863.496305
23.160000	822.951268
23.170000	794.614051
23.180000	785.794647
23.190000	804.113043
23.200000	825.932681
23.210000	827.993678
23.220000	797.145856
23.230000	741.981498
23.240000	684.443256
23.250000	648.689713
23.260000	647.089329
23.270000	672.726092
23.280000	706.750494
23.290000	732.817284
23.300000	749.500634
23.310000	760.303403
23.320000	772.308719
23.330000	781.473790
23.340000	782.494877
23.350000	775.707911
23.360000	764.404098
23.370000	751.656408
23.380000	738.355659
23.390000	725.988229
23.400000	716.690710
23.410000	715.041805
23.420000	719.724623
23.430000	731.817016
23.440000	744.451769
23.450000	756.656799
23.460000	763.215627
23.470000	757.541171
23.480000	740.381298
23.490000	712.473823
23.500000	689.970915
23.510000	673.411836
23.520000	666.617750
23.530000	662.701932
23.540000	663.001952
23.550000	663.024071
23.560000	658.768849
23.570000	653.079616
23.580000	649.251533
23.590000	655.195649
23.600000	663.406280
23.610000	669.367556
23.620000	665.934721
23.630000	659.958734
23.640000	658.176924
23.650000	661.247195
23.660000	670.802355
23.670000	682.900795
23.680000	701.830735
23.690000	726.252506
23.700000	756.577377
23.710000	787.635556
23.720000	817.044888
23.730000	842.732540
23.740000	865.901013
23.750000	883.196491
23.760000	895.815642
23.770000	908.382379
23.780000	922.099912
23.790000	939.952035
23.800000	957.074673
23.810000	967.229791
23.820000	961.754471
23.830000	943.918504
23.840000	921.157037
23.850000	905.664755
23.860000	898.239233
23.870000	897.783195
23.880000	900.691722
23.890000	904.615380
23.900000	913.204097
23.910000	930.826050
23.920000	955.408391
23.930000	982.405968
23.940000	1003.310928
23.950000	1022.396530
23.960000	1043.922042
23.970000	1067.081532
23.980000	1091.910213
23.990000	1111.789396
24.000000	1135.314358
24.010000	1159.171781
24.020000	1182.097731
24.030000	1202.593483
24.040000	1216.580333
24.050000	1229.079509
24.060000	1235.742872
24.070000	1241.630043
24.080000	1250.272876
24.090000	1255.859559
24.100000	1257.520743
24.110000	1252.454356
24.120000	1245.493129
24.130000	1235.068072
24.140000	1218.832827
24.150000	1199.397787
24.160000	1176.199120
24.170000	1145.085886
24.180000	1103.604560
24.190000	1057.162967
24.200000	1013.048787
24.210000	984.957498
24.220000	963.127992
24.230000	952.157082
24.240000	947.213126
24.250000	949.738591
24.260000	953.307537
24.270000	952.687121
24.280000	948.113564
24.290000	930.639867
24.300000	894.290027
24.310000	838.970546
24.320000	781.206738
24.330000	725.629312
24.340000	676.816879
24.350000	635.971856
24.360000	613.812346
24.370000	611.312966
24.380000	618.803368
24.390000	619.993480
24.400000	613.860031
24.410000	592.678753
24.420000	561.975699
24.430000	510.673815
24.440000	444.158082
24.450000	379.054023
24.460000	334.367377
24.470000	320.764467
24.480000	327.202953
24.490000	342.827424
24.500000	357.057375
24.510000	356.901274
24.520000	336.281057
24.530000	296.678914
24.540000	245.536883
24.550000	196.488750
24.560000	150.773269
24.570000	118.670769
24.580000	85.621524
24.590000	47.561118
24.600000	1.150685
24.610000	-45.505448
24.620000	-87.651621
24.630000	-135.937187
24.640000	-190.749194
24.650000	-252.693570
24.660000	-317.157065
24.670000	-371.753827
24.680000	-417.260229
24.690000	-446.786088
24.700000	-465.724106
24.710000	-458.087185
24.720000	-416.874132
24.730000	-345.746277
24.740000	-256.041189
24.750000	-159.960568
24.760000	-54.876895
24.770000	52.908684
24.780000	146.715559
24.790000	213.860266
24.800000	254.649194
24.810000	271.818291
24.820000	268.249418
24.830000	243.766870
24.840000	211.551374
24.850000	185.715820
24.860000	178.846376
24.870000	180.598452
24.880000	191.834913
24.890000	201.777956
24.900000	199.484596
24.910000	203.365769
24.920000	249.175686
24.930000	337.138473
24.940000	392.697575
24.950000	384.021481
24.960000	308.719222
24.970000	195.933509
24.980000	-20.110466
24.990000	-312.500528
25.000000	-658.258608
25.010000	-979.289957
25.020000	-1222.830201
25.030000	-1425.056106
25.040000	-1560.670334
25.050000	-1647.051445
25.060000	-1693.068951
25.070000	-1714.568807
25.080000	-1729.934003
25.090000	-1749.747468
25.100000	-1771.111945
25.110000	-1794.619473
25.120000	-1825.653978
25.130000	-1862.824292
25.140000	-1911.900917
25.150000	-1968.353190
25.160000	-2022.486502
25.170000	-2059.889072
25.180000	-2077.122601
25.190000	-2082.812216
25.200000	-2080.098171
25.210000	-2068.413442
25.220000	-2046.426955
25.230000	-2022.396687
25.240000	-2004.110487
25.250000	-1991.715328
25.260000	-1984.815909
25.270000	-1982.723528
25.280000	-1985.213275
25.290000	-1986.741417
25.300000	-1983.306122
25.310000	-1973.792081
25.320000	-1962.438780
25.330000	-1955.206152
25.340000	-1957.930011
25.350000	-1966.619031
25.360000	-1978.116206
25.370000	-1989.391795
25.380000	-1999.334054
25.390000	-2006.857854
25.400000	-2010.243539
25.410000	-2014.703143
25.420000	-2016.822991
25.430000	-2016.584871
25.440000	-2007.745900
25.450000	-1991.848631
25.460000	-1971.699680
25.470000	-1949.471452
25.480000	-1920.328406
25.490000	-1879.120984
25.500000	-1823.325284
25.510000	-1765.172002
25.520000	-1710.666035
25.530000	-1663.243602
25.540000	-1614.000517
25.550000	-1559.357430
25.560000	-1504.720580
25.570000	-1455.498791
25.580000	-1412.455357
25.590000	-1370.317650
25.600000	-1324.887088
25.610000	-1278.515090
25.620000	-1234.348173
25.630000	-1192.063406
25.640000	-1150.500591
25.650000	-1105.630696
25.660000	-1062.036729
25.670000	-1014.531090
25.680000	-967.960231
25.690000	-921.776332
25.700000	-874.574229
25.710000	-825.716379
25.720000	-781.900912
25.730000	-747.007725
25.740000	-719.571785
25.750000	-694.313958
25.760000	-677.967500
25.770000	-676.309228
25.780000	-687.032490
25.790000	-703.650971
25.800000	-715.443604
25.810000	-723.382384
25.820000	-724.868927
25.830000	-725.493425
25.840000	-724.968364
25.850000	-720.621288
25.860000	-711.428812
25.870000	-698.778694
25.880000	-687.588309
25.890000	-677.611035
25.900000	-661.751206
25.910000	-646.168415
25.920000	-632.590312
25.930000	-623.081515
25.940000	-611.427884
25.950000	-599.036489
25.960000	-589.960065
25.970000	-581.994686
25.980000	-575.519475
25.990000	-562.950870
26.000000	-549.466846
26.010000	-532.906189
26.020000	-518.787648
26.030000	-504.858879
26.040000	-491.467344
26.050000	-477.492324
26.060000	-472.527623
26.070000	-482.466457
26.080000	-499.567666
26.090000	-513.450241
26.100000	-516.298008
26.110000	-518.834551
26.120000	-518.006464
26.130000	-515.915318
26.140000	-511.387897
26.150000	-503.344652
26.160000	-487.775928
26.170000	-460.454364
26.180000	-427.539793
26.190000	-394.241764
26.200000	-367.321205
26.210000	-348.026964
26.220000	-333.102835
26.230000	-314.812097
26.240000	-296.259460
26.250000	-271.249883
26.260000	-242.117348
26.270000	-203.343582
26.280000	-160.349066
26.290000	-117.110068
26.300000	-72.242451
26.310000	-28.898374
26.320000	12.195164
26.330000	49.970424
26.340000	86.633509
26.350000	123.495535
26.360000	155.714091
26.370000	176.341032
26.380000	186.142395
26.390000	192.197433
26.400000	204.238580
26.410000	220.683713
26.420000	234.982435
26.430000	243.840612
26.440000	255.754037
26.450000	273.310339
26.460000	300.191389
26.470000	328.745367
26.480000	363.325159
26.490000	397.481189
26.500000	431.809092
26.510000	461.533415
26.520000	488.643102
26.530000	516.922411
26.540000	544.126060
26.550000	575.330694
26.560000	603.575464
26.570000	635.108424
26.580000	662.988803
26.590000	689.913102
26.600000	719.405209
26.610000	752.378384
26.620000	789.488990
26.630000	824.493097
26.640000	856.923989
26.650000	883.268419
26.660000	901.365299
26.670000	904.032832
26.680000	897.179053
26.690000	883.124155
26.700000	873.355014
26.710000	864.177741
26.720000	853.873949
26.730000	844.245460
26.740000	837.732679
26.750000	838.656624
26.760000	840.901257
26.770000	845.425964
26.780000	848.061382
26.790000	842.528696
26.800000	820.221178
26.810000	775.980505
26.820000	712.408764
26.830000	642.467439
26.840000	577.599043
26.850000	530.297649
26.860000	496.417524
26.870000	473.807421
26.880000	455.229630
26.890000	444.354925
26.900000	441.373452
26.910000	447.245988
26.920000	454.502392
26.930000	462.163316
26.940000	467.635497
26.950000	466.417491
26.960000	461.130406
26.970000	445.656725
26.980000	420.653130
26.990000	385.902914
27.000000	353.886893
27.010000	326.462897
27.020000	298.778667
27.030000	267.369937
27.040000	233.359752
27.050000	202.967818
27.060000	176.601847
27.070000	159.589646
27.080000	150.836865
27.090000	143.874067
27.100000	138.433062
27.110000	128.821194
27.120000	123.078037
27.130000	118.416434
27.140000	118.084226
27.150000	120.676990
27.160000	130.450841
27.170000	145.599226
27.180000	164.830656
27.190000	186.866734
27.200000	212.561680
27.210000	243.481664
27.220000	277.294245
27.230000	314.115683
27.240000	349.693953
27.250000	383.104759
27.260000	420.793261
27.270000	465.095346
27.280000	508.879467
27.290000	538.748393
27.300000	550.336914
27.310000	552.116559
27.320000	551.805578
27.330000	552.819615
27.340000	554.275895
27.350000	557.876644
27.360000	564.424025
27.370000	575.950746
27.380000	585.227145
27.390000	600.414284
27.400000	623.025902
27.410000	649.878876
27.420000	673.493536
27.430000	692.373966
27.440000	711.325922
27.450000	730.537194
27.460000	746.161424
27.470000	765.411695
27.480000	785.985051
27.490000	810.647741
27.500000	836.474020
27.510000	864.575868
27.520000	888.623554
27.530000	905.527238
27.540000	916.131571
27.550000	924.836044
27.560000	929.970581
27.570000	929.157219
27.580000	919.823347
27.590000	903.503940
27.600000	889.378006
27.610000	878.509230
27.620000	875.289286
27.630000	862.134927
27.640000	834.918229
27.650000	796.460358
27.660000	764.268089
27.670000	741.426688
27.680000	722.942859
27.690000	701.734298
27.700000	680.324276
27.710000	653.032885
27.720000	618.731607
27.730000	582.027205
27.740000	552.833392
27.750000	529.001499
27.760000	505.607213
27.770000	483.003166
27.780000	464.067399
27.790000	450.012900
27.800000	436.190668
27.810000	422.046271
27.820000	410.001039
27.830000	405.767479
27.840000	403.123960
27.850000	402.518864
27.860000	387.211388
27.870000	370.698207
27.880000	356.950752
27.890000	353.899709
27.900000	357.000319
27.910000	355.428279
27.920000	351.764198
27.930000	343.620543
27.940000	334.220669
27.950000	320.472481
27.960000	298.017185
27.970000	258.657235
27.980000	199.839062
27.990000	132.221301
28.000000	79.372584
28.010000	51.090225
28.020000	30.842970
28.030000	0.296536
28.040000	-38.956416
28.050000	-71.784645
28.060000	-96.116519
28.070000	-117.879483
28.080000	-137.921197
28.090000	-153.289250
28.100000	-155.703446
28.110000	-145.047147
28.120000	-116.130973
28.130000	-75.162392
28.140000	-32.897206
28.150000	0.063072
28.160000	23.371511
28.170000	48.327143
28.180000	82.971067
28.190000	116.545868
28.200000	142.588537
28.210000	157.110675
28.220000	164.568318
28.230000	167.007813
28.240000	158.197474
28.250000	144.277539
28.260000	128.490441
28.270000	116.224755
28.280000	102.760399
28.290000	74.485464
28.300000	30.402744
28.310000	-26.906434
28.320000	-87.263323
28.330000	-147.313197
28.340000	-209.608580
28.350000	-267.691687
28.360000	-312.944553
28.370000	-335.062366
28.380000	-333.303786
28.390000	-312.111112
28.400000	-280.339137
28.410000	-245.152715
28.420000	-219.387725
28.430000	-207.502466
28.440000	-206.413586
28.450000	-209.841583
28.460000	-212.440312
28.470000	-214.528049
28.480000	-215.463015
28.490000	-213.543708
28.500000	-211.831054
28.510000	-211.887657
28.520000	-216.535106
28.530000	-219.873690
28.540000	-217.242079
28.550000	-207.535824
28.560000	-193.292197
28.570000	-181.543592
28.580000	-171.988936
28.590000	-167.560475
28.600000	-170.016158
28.610000	-183.918911
28.620000	-203.682825
28.630000	-218.931645
28.640000	-226.704115
28.650000	-229.961705
28.660000	-232.729517
28.670000	-233.979207
28.680000	-232.756574
28.690000	-227.663738
28.700000	-213.441400
28.710000	-195.713326
28.720000	-180.796755
28.730000	-176.101328
28.740000	-176.787335
28.750000	-178.827217
28.760000	-183.795744
28.770000	-188.876939
28.780000	-190.805596
28.790000	-183.922880
28.800000	-175.520592
28.810000	-163.613028
28.820000	-150.918309
28.830000	-139.972588
28.840000	-134.990659
28.850000	-130.308481
28.860000	-120.400296
28.870000	-108.672589
28.880000	-95.471984
28.890000	-86.388326
28.900000	-82.869631
28.910000	-91.789738
28.920000	-115.258402
28.930000	-151.518175
28.940000	-189.960613
28.950000	-219.917633
28.960000	-235.346816
28.970000	-245.363445
28.980000	-253.054616
28.990000	-262.483521
29.000000	-269.745544
29.010000	-270.942055
29.020000	-264.113666
29.030000	-256.765208
29.040000	-254.147645
29.050000	-254.240524
29.060000	-254.184877
29.070000	-248.046368
29.080000	-241.927558
29.090000	-232.833027
29.100000	-225.363654
29.110000	-215.268002
29.120000	-206.160728
29.130000	-198.032472
29.140000	-192.969748
29.150000	-187.454478
29.160000	-183.132618
29.170000	-181.215027
29.180000	-181.297527
29.190000	-180.642376
29.200000	-177.471681
29.210000	-176.761616
29.220000	-183.318777
29.230000	-207.235512
29.240000	-241.793232
29.250000	-278.043544
29.260000	-305.269818
29.270000	-322.886447
29.280000	-336.771260
29.290000	-349.059562
29.300000	-359.606984
29.310000	-367.237104
29.320000	-367.775116
29.330000	-360.431300
29.340000	-351.971400
29.350000	-347.294478
29.360000	-349.503567
29.370000	-353.810167
29.380000	-355.710738
29.390000	-352.337939
29.400000	-343.934069
29.410000	-331.876475
29.420000	-322.846307
29.430000	-317.740156
29.440000	-313.421857
29.450000	-307.948187
29.460000	-300.675403
29.470000	-294.841322
29.480000	-292.934680
29.490000	-290.055299
29.500000	-283.207001
29.510000	-273.287793
29.520000	-262.156457
29.530000	-264.563531
29.540000	-281.409042
29.550000	-311.842300
29.560000	-342.301222
29.570000	-365.813674
29.580000	-383.556953
29.590000	-394.453351
29.600000	-402.835366
29.610000	-408.087249
29.620000	-414.134049
29.630000	-415.369418
29.640000	-410.786464
29.650000	-400.328610
29.660000	-391.133027
29.670000	-386.618620
29.680000	-385.140016
29.690000	-385.584398
29.700000	-382.810213
29.710000	-378.576700
29.720000	-371.813505
29.730000	-364.919357
29.740000	-355.143437
29.750000	-341.273647
29.760000	-326.158549
29.770000	-310.963959
29.780000	-296.179061
29.790000	-279.988481
29.800000	-265.219475
29.810000	-249.672958
29.820000	-236.281018
29.830000	-224.688714
29.840000	-229.056006
29.850000	-253.015740
29.860000	-286.132472
29.870000	-313.671007
29.880000	-327.567243
29.890000	-338.718265
29.900000	-348.983701
29.910000	-359.102212
29.920000	-367.065639
29.930000	-372.162667
29.940000	-373.152322
29.950000	-367.224932
29.960000	-355.589408
29.970000	-344.640719
29.980000	-336.019292
29.990000	-326.047664
30.000000	-315.132731
30.010000	-305.130832
30.020000	-295.244357
30.030000	-283.215366
30.040000	-269.702603
30.050000	-258.981672
30.060000	-250.820199
30.070000	-241.744033
30.080000	-235.629502
30.090000	-230.160794
30.100000	-224.781599
30.110000	-218.581096
30.120000	-206.593625
30.130000	-194.702146
30.140000	-182.392248
30.150000	-176.848389
30.160000	-184.526131
30.170000	-205.647986
30.180000	-234.313548
30.190000	-260.439657
30.200000	-277.113108
30.210000	-289.601427
30.220000	-299.238380
30.230000	-308.101627
30.240000	-314.355826
30.250000	-314.600316
30.260000	-305.810292
30.270000	-289.112925
30.280000	-269.277137
30.290000	-253.634810
30.300000	-243.061678
30.310000	-235.818129
30.320000	-229.847151
30.330000	-222.668609
30.340000	-213.639177
30.350000	-202.187310
30.360000	-190.439820
30.370000	-178.033558
30.380000	-165.911615
30.390000	-152.540414
30.400000	-140.729258
30.410000	-129.370273
30.420000	-119.887459
30.430000	-110.524842
30.440000	-102.721051
30.450000	-96.341546
30.460000	-89.549596
30.470000	-81.828007
30.480000	-83.741213
30.490000	-105.980622
30.500000	-142.886897
30.510000	-179.439670
30.520000	-205.043378
30.530000	-224.272194
30.540000	-238.522777
30.550000	-250.773873
30.560000	-259.989121
30.570000	-268.282005
30.580000	-272.438460
30.590000	-267.783577
30.600000	-258.576280
30.610000	-249.951321
30.620000	-246.375853
30.630000	-244.093217
30.640000	-240.174255
30.650000	-234.906986
30.660000	-229.638418
30.670000	-222.374243
30.680000	-213.103838
30.690000	-204.511187
30.700000	-193.548944
30.710000	-182.992692
30.720000	-170.642091
30.730000	-159.817539
30.740000	-152.058327
30.750000	-140.948320
30.760000	-132.168709
30.770000	-124.387224
30.780000	-117.275701
30.790000	-105.806872
30.800000	-91.059580
30.810000	-82.242095
30.820000	-88.168753
30.830000	-110.316671
30.840000	-137.569304
30.850000	-159.385256
30.860000	-171.646386
30.870000	-177.465719
30.880000	-183.391380
30.890000	-188.851559
30.900000	-193.795862
30.910000	-193.214958
30.920000	-186.536831
30.930000	-177.246922
30.940000	-169.603797
30.950000	-164.593555
30.960000	-160.653871
30.970000	-155.595020
30.980000	-151.371663
30.990000	-146.910954
31.000000	-138.738757
31.010000	-128.229211
31.020000	-117.429818
31.030000	-111.210448
31.040000	-106.086269
31.050000	-101.855480
31.060000	-99.400250
31.070000	-95.476840
31.080000	-92.383552
31.090000	-85.065208
31.100000	-71.361782
31.110000	-55.324049
31.120000	-37.316406
31.130000	-31.941618
31.140000	-39.551279
31.150000	-60.879399
31.160000	-81.062242
31.170000	-94.160390
31.180000	-100.241506
31.190000	-104.105950
31.200000	-107.731020
31.210000	-108.356268
31.220000	-108.218463
31.230000	-102.571376
31.240000	-93.040474
31.250000	-80.100155
31.260000	-68.524222
31.270000	-56.928380
31.280000	-48.001948
31.290000	-40.728978
31.300000	-37.137013
31.310000	-32.158831
31.320000	-22.258117
31.330000	-10.254404
31.340000	3.312349
31.350000	14.660000
31.360000	24.246916
31.370000	37.941958
31.380000	50.169650
31.390000	65.270992
31.400000	79.089122
31.410000	95.642796
31.420000	111.675833
31.430000	123.032922
31.440000	124.948563
31.450000	118.794503
31.460000	105.240867
31.470000	91.596052
31.480000	83.550697
31.490000	77.728233
31.500000	77.902603
31.510000	74.847376
31.520000	73.315804
31.530000	70.970174
31.540000	73.440919
31.550000	82.439134
31.560000	94.241599
31.570000	103.928860
31.580000	112.415917
31.590000	120.108363
31.600000	126.612778
31.610000	126.298446
31.620000	125.200203
31.630000	124.500618
31.640000	127.819964
31.650000	131.374987
31.660000	134.808556
31.670000	140.282585
31.680000	145.478040
31.690000	152.562592
31.700000	157.490765
31.710000	166.564878
31.720000	175.836077
31.730000	186.943471
31.740000	191.515068
31.750000	182.019096
31.760000	159.579437
31.770000	133.144696
31.780000	113.009531
31.790000	99.605445
31.800000	88.789510
31.810000	78.434386
31.820000	71.613304
31.830000	65.944753
31.840000	66.821733
31.850000	70.794319
31.860000	79.407574
31.870000	87.322210
31.880000	93.368974
31.890000	98.219467
31.900000	107.709071
31.910000	117.119122
31.920000	125.758484
31.930000	133.050882
31.940000	140.846555
31.950000	151.014889
31.960000	158.949233
31.970000	167.364933
31.980000	172.065719
31.990000	177.438205
32.000000	183.202573
32.010000	189.546142
32.020000	193.698211
32.030000	198.703819
32.040000	201.878739
32.050000	204.239143
32.060000	200.409384
32.070000	184.474180
32.080000	155.655521
32.090000	125.778732
32.100000	105.600474
32.110000	97.428682
32.120000	91.213604
32.130000	84.134120
32.140000	76.537920
32.150000	69.544340
32.160000	68.576900
32.170000	74.645460
32.180000	85.309607
32.190000	93.102825
32.200000	95.760161
32.210000	96.946882
32.220000	101.250496
32.230000	105.473650
32.240000	109.119183
32.250000	111.704903
32.260000	115.032095
32.270000	115.292209
32.280000	116.003431
32.290000	121.587136
32.300000	130.329896
32.310000	137.245224
32.320000	142.710080
32.330000	153.292808
32.340000	174.125646
32.350000	199.349698
32.360000	225.253439
32.370000	247.444546
32.380000	259.415414
32.390000	258.590350
32.400000	251.643111
32.410000	245.778088
32.420000	247.576400
32.430000	252.308890
32.440000	264.242012
32.450000	281.530675
32.460000	300.945076
32.470000	321.132355
32.480000	338.349798
32.490000	360.140068
32.500000	378.085866
32.510000	394.218468
32.520000	403.177096
32.530000	411.037216
32.540000	415.621398
32.550000	418.575670
32.560000	421.107164
32.570000	427.498704
32.580000	433.612727
32.590000	438.473470
32.600000	439.824607
32.610000	443.179527
32.620000	450.403200
32.630000	457.914137
32.640000	464.030633
32.650000	473.042210
32.660000	485.023655
32.670000	492.861138
32.680000	490.730918
32.690000	471.052702
32.700000	437.847597
32.710000	395.623242
32.720000	358.368042
32.730000	332.216688
32.740000	312.570230
32.750000	300.871363
32.760000	292.132804
32.770000	283.242643
32.780000	277.424303
32.790000	274.649923
32.800000	281.779721
32.810000	288.388126
32.820000	294.876675
32.830000	297.493451
32.840000	300.039632
32.850000	300.962722
32.860000	304.931719
32.870000	309.792018
32.880000	315.207622
32.890000	318.995113
32.900000	323.875920
32.910000	330.571688
32.920000	334.575544
32.930000	336.541501
32.940000	336.318730
32.950000	336.899093
32.960000	336.427790
32.970000	334.974527
32.980000	331.579947
32.990000	325.095396
33.000000	310.768190
33.010000	285.600431
33.020000	254.022876
33.030000	227.838445
33.040000	207.291904
33.050000	191.452671
33.060000	175.262387
33.070000	161.133561
33.080000	150.275727
33.090000	143.860525
33.100000	143.670270
33.110000	149.294337
33.120000	156.099434
33.130000	159.775267
33.140000	161.255911
33.150000	160.299219
33.160000	159.466347
33.170000	160.533951
33.180000	165.724284
33.190000	173.471227
33.200000	177.682743
33.210000	183.151357
33.220000	192.347786
33.230000	200.524623
33.240000	207.738989
33.250000	210.935638
33.260000	215.867344
33.270000	222.710962
33.280000	227.697817
33.290000	231.544888
33.300000	222.874678
33.310000	201.789945
33.320000	171.773746
33.330000	143.099897
33.340000	125.049654
33.350000	112.082024
33.360000	104.053256
33.370000	93.757610
33.380000	85.467891
33.390000	79.134146
33.400000	79.943048
33.410000	89.547097
33.420000	99.102145
33.430000	108.028832
33.440000	112.966333
33.450000	117.241647
33.460000	122.872951
33.470000	126.485652
33.480000	132.513664
33.490000	138.423145
33.500000	144.541502
33.510000	153.412636
33.520000	161.933047
33.530000	171.125986
33.540000	177.023380
33.550000	183.573548
33.560000	191.149668
33.570000	199.732442
33.580000	206.981960
33.590000	212.943566
33.600000	217.860440
33.610000	216.184393
33.620000	202.785642
33.630000	179.155607
33.640000	153.107036
33.650000	133.842762
33.660000	122.451558
33.670000	114.226036
33.680000	106.179468
33.690000	97.995260
33.700000	94.299525
33.710000	95.130411
33.720000	102.804321
33.730000	112.290482
33.740000	121.361871
33.750000	128.497498
33.760000	136.643313
33.770000	146.075422
33.780000	154.295324
33.790000	165.717137
33.800000	180.981726
33.810000	196.725889
33.820000	209.044619
33.830000	224.474577
33.840000	239.791906
33.850000	255.611620
33.860000	267.235684
33.870000	283.162599
33.880000	301.361506
33.890000	321.094694
33.900000	341.531236
33.910000	359.397511
33.920000	374.419902
33.930000	381.397419
33.940000	380.032585
33.950000	369.105266
33.960000	352.369324
33.970000	337.868543
33.980000	331.410152
33.990000	330.652918
34.000000	333.495028
34.010000	335.474112
34.020000	338.975255
34.030000	345.669795
34.040000	357.833495
34.050000	370.555329
34.060000	379.736790
34.070000	385.829412
34.080000	392.357808
34.090000	401.809824
34.100000	411.005657
34.110000	423.517734
34.120000	436.678541
34.130000	448.603183
34.140000	460.735838
34.150000	471.722761
34.160000	487.521572
34.170000	501.181780
34.180000	518.049174
34.190000	534.323642
34.200000	552.969848
34.210000	572.160025
34.220000	589.931025
34.230000	604.370609
34.240000	617.610553
34.250000	621.927882
34.260000	615.680379
34.270000	597.526082
34.280000	577.153772
34.290000	564.832309
34.300000	557.296252
34.310000	555.188687
34.320000	551.122580
34.330000	549.616818
34.340000	548.970690
34.350000	552.430544
34.360000	558.845202
34.370000	568.285910
34.380000	575.075339
34.390000	579.194694
34.400000	581.345121
34.410000	584.814705
34.420000	590.311726
34.430000	604.153812
34.440000	624.292151
34.450000	644.518066
34.460000	660.313562
34.470000	671.263030
34.480000	682.720022
34.490000	693.358610
34.500000	702.496966
34.510000	710.826426
34.520000	716.969773
34.530000	724.342021
34.540000	733.468997
34.550000	740.546476
34.560000	742.671176
34.570000	730.433262
34.580000	707.943743
34.590000	684.701145
34.600000	666.572346
34.610000	657.997491
34.620000	651.533725
34.630000	647.346510
34.640000	640.512598
34.650000	634.081919
34.660000	631.189211
34.670000	635.850270
34.680000	645.210484
34.690000	653.975120
34.700000	662.944702
34.710000	668.115978
34.720000	677.072941
34.730000	684.249235
34.740000	693.923053
34.750000	702.722630
34.760000	713.818593
34.770000	724.874664
34.780000	736.081139
34.790000	747.385728
34.800000	759.037166
34.810000	772.926912
34.820000	784.333588
34.830000	796.514848
34.840000	806.971977
34.850000	817.806129
34.860000	831.969679
34.870000	843.429297
34.880000	853.343286
34.890000	851.042381
34.900000	837.103092
34.910000	818.026620
34.920000	799.882828
34.930000	792.374846
34.940000	784.292019
34.950000	775.439776
34.960000	763.715296
34.970000	755.881256
34.980000	750.801949
34.990000	751.017433
35.000000	757.568610
35.010000	767.492928
35.020000	777.350458
35.030000	779.974196
35.040000	779.512236
35.050000	775.457700
35.060000	767.689590
35.070000	752.612337
35.080000	725.209875
35.090000	690.139859
35.100000	652.075998
35.110000	613.005270
35.120000	574.619380
35.130000	538.548047
35.140000	507.509417
35.150000	485.771538
35.160000	474.399904
35.170000	473.668217
35.180000	476.611989
35.190000	479.247341
35.200000	479.837279
35.210000	477.501960
35.220000	469.396416
35.230000	448.082641
35.240000	416.655925
35.250000	385.688060
35.260000	364.916771
35.270000	353.935334
35.280000	344.491874
35.290000	332.529351
35.300000	322.424780
35.310000	315.114637
35.320000	313.362834
35.330000	316.690555
35.340000	323.964705
35.350000	333.596908
35.360000	335.875352
35.370000	335.205858
35.380000	326.422933
35.390000	312.499782
35.400000	289.948115
35.410000	252.781586
35.420000	192.794668
35.430000	100.017560
35.440000	-36.936167
35.450000	-256.406968
35.460000	-525.507793
35.470000	-820.972907
35.480000	-1120.772841
35.490000	-1396.866754
35.500000	-1677.404922
35.510000	-1863.142951
35.520000	-1965.229162
35.530000	-2044.091459
35.540000	-2118.409069
35.550000	-2194.576314
35.560000	-2269.243047
35.570000	-2330.385374
35.580000	-2377.122838
35.590000	-2409.880394
35.600000	-2419.659607
35.610000	-2404.745415
35.620000	-2365.552679
35.630000	-2308.310632
35.640000	-2231.442295
35.650000	-2141.249218
35.660000	-2045.358316
35.670000	-1945.353598
35.680000	-1836.981001
35.690000	-1721.605326
35.700000	-1593.277852
35.710000	-1439.970783
35.720000	-1274.232561
35.730000	-1115.691321
35.740000	-984.183453
35.750000	-893.503075
35.760000	-828.571669
35.770000	-783.185759
35.780000	-753.961447
35.790000	-734.215652
35.800000	-717.374728
35.810000	-699.609882
35.820000	-681.824729
35.830000	-669.039394
35.840000	-657.274236
35.850000	-643.161721
35.860000	-621.075580
35.870000	-587.982782
35.880000	-546.250265
35.890000	-492.480080
35.900000	-433.812857
35.910000	-382.684438
35.920000	-356.749183
35.930000	-356.200455
35.940000	-369.011777
35.950000	-383.410543
35.960000	-395.990932
35.970000	-408.328099
35.980000	-415.646636
35.990000	-410.599451
36.000000	-390.676684
36.010000	-365.264731
36.020000	-330.030498
36.030000	-282.630447
36.040000	-221.414711
36.050000	-156.055943
36.060000	-93.152681
36.070000	-29.149266
36.080000	32.393905
36.090000	90.067236
36.100000	143.580634
36.110000	192.252884
36.120000	240.083591
36.130000	286.395540
36.140000	332.561847
36.150000	379.172193
36.160000	426.007176
36.170000	470.578385
36.180000	511.089984
36.190000	545.953863
36.200000	580.159376
36.210000	614.954048
36.220000	649.524552
36.230000	681.919008
36.240000	706.848253
36.250000	720.187975
36.260000	718.474356
36.270000	708.452011
36.280000	697.402067
36.290000	691.680071
36.300000	690.275875
36.310000	691.873377
36.320000	692.107148
36.330000	692.381451
36.340000	698.582730
36.350000	717.189558
36.360000	744.328022
36.370000	770.613737
36.380000	792.386636
36.390000	808.675959
36.400000	828.436218
36.410000	847.666017
36.420000	864.788922
36.430000	873.271958
36.440000	877.801635
36.450000	882.170998
36.460000	885.429892
36.470000	892.046506
36.480000	899.667342
36.490000	910.562312
36.500000	920.514238
36.510000	932.056914
36.520000	946.317178
36.530000	955.820782
36.540000	956.756040
36.550000	947.549629
36.560000	933.839838
36.570000	916.556965
36.580000	889.194247
36.590000	851.538904
36.600000	809.522453
36.610000	775.494994
36.620000	748.102472
36.630000	725.070934
36.640000	701.965184
36.650000	678.613460
36.660000	654.447926
36.670000	633.121602
36.680000	618.885904
36.690000	609.899500
36.700000	604.610726
36.710000	594.945087
36.720000	589.332703
36.730000	588.587795
36.740000	597.015185
36.750000	609.822642
36.760000	622.648844
36.770000	639.697207
36.780000	657.878197
36.790000	677.195518
36.800000	692.708743
36.810000	704.321424
36.820000	708.476922
36.830000	705.738624
36.840000	697.192686
36.850000	678.419687
36.860000	640.507926
36.870000	572.707004
36.880000	476.920211
36.890000	351.366688
36.900000	206.125333
36.910000	41.701360
36.920000	-133.949827
36.930000	-320.415513
36.940000	-520.152864
36.950000	-724.006259
36.960000	-913.205677
36.970000	-1088.404632
36.980000	-1259.921513
36.990000	-1410.617221
37.000000	-1539.005331
37.010000	-1640.691381
37.020000	-1730.342742
37.030000	-1807.202886
37.040000	-1873.893316
37.050000	-1924.756138
37.060000	-1964.203144
37.070000	-1994.368499
37.080000	-2009.223004
37.090000	-2002.713657
37.100000	-1972.987659
37.110000	-1937.512187
37.120000	-1902.789546
37.130000	-1867.022297
37.140000	-1826.320408
37.150000	-1783.953796
37.160000	-1744.590492
37.170000	-1703.261188
37.180000	-1661.280500
37.190000	-1624.985328
37.200000	-1596.027540
37.210000	-1575.110368
37.220000	-1562.844759
37.230000	-1567.326645
37.240000	-1585.034321
37.250000	-1608.603519
37.260000	-1633.970988
37.270000	-1659.959902
37.280000	-1688.320809
37.290000	-1716.041841
37.300000	-1744.755536
37.310000	-1772.519615
37.320000	-1793.919872
37.330000	-1810.087994
37.340000	-1828.507750
37.350000	-1850.378666
37.360000	-1876.166615
37.370000	-1895.379011
37.380000	-1905.587491
37.390000	-1903.450122
37.400000	-1892.767995
37.410000	-1880.603589
37.420000	-1868.339675
37.430000	-1852.818058
37.440000	-1827.976875
37.450000	-1789.444006
37.460000	-1733.689890
37.470000	-1661.488595
37.480000	-1577.152754
37.490000	-1492.961825
37.500000	-1410.660062
37.510000	-1326.827530
37.520000	-1240.915182
37.530000	-1167.808812
37.540000	-1120.571732
37.550000	-1095.149426
37.560000	-1074.933384
37.570000	-1048.243053
37.580000	-1010.386932
37.590000	-967.438828
37.600000	-924.577145
37.610000	-880.021150
37.620000	-827.493863
37.630000	-762.680909
37.640000	-690.842111
37.650000	-623.095169
37.660000	-564.913108
37.670000	-517.235068
37.680000	-470.693725
37.690000	-419.455763
37.700000	-368.240909
37.710000	-317.401871
37.720000	-268.862972
37.730000	-216.061717
37.740000	-164.254361
37.750000	-114.112318
37.760000	-73.401731
37.770000	-41.542972
37.780000	-23.299899
37.790000	-15.688278
37.800000	-18.274148
37.810000	-24.552465
37.820000	-31.660435
37.830000	-50.523032
37.840000	-81.084886
37.850000	-123.562480
37.860000	-159.191816
37.870000	-188.054775
37.880000	-209.029669
37.890000	-225.292913
37.900000	-239.600211
37.910000	-251.923722
37.920000	-264.577305
37.930000	-270.595635
37.940000	-264.959470
37.950000	-251.691909
37.960000	-236.746258
37.970000	-226.521859
37.980000	-215.900325
37.990000	-204.764252
38.000000	-192.117144
38.010000	-176.737651
38.020000	-159.738452
38.030000	-141.440073
38.040000	-124.430307
38.050000	-106.526834
38.060000	-86.856316
38.070000	-68.020148
38.080000	-46.328505
38.090000	-25.931571
38.100000	-4.846876
38.110000	15.083694
38.120000	28.896923
38.130000	38.722734
38.140000	29.531436
38.150000	11.368709
38.160000	-13.584036
38.170000	-28.673738
38.180000	-36.480286
38.190000	-40.446290
38.200000	-42.098792
38.210000	-42.946090
38.220000	-41.770226
38.230000	-43.523034
38.240000	-37.792775
38.250000	-25.858515
38.260000	-9.208775
38.270000	1.387860
38.280000	7.015342
38.290000	10.914608
38.300000	16.180393
38.310000	21.036197
38.320000	29.302590
38.330000	40.086834
38.340000	56.043407
38.350000	71.724314
38.360000	86.072267
38.370000	96.299908
38.380000	106.396155
38.390000	116.809079
38.400000	127.996923
38.410000	138.924549
38.420000	149.878603
38.430000	162.654995
38.440000	176.698203
38.450000	188.989933
38.460000	190.111691
38.470000	176.619625
38.480000	153.159286
38.490000	134.890291
38.500000	127.459723
38.510000	127.080889
38.520000	127.365729
38.530000	126.229558
38.540000	124.225437
38.550000	123.997295
38.560000	126.026064
38.570000	138.399655
38.580000	153.397200
38.590000	168.764491
38.600000	178.037769
38.610000	184.771368
38.620000	191.289681
38.630000	197.051961
38.640000	206.503736
38.650000	218.933696
38.660000	230.324207
38.670000	239.773010
38.680000	248.098616
38.690000	259.571204
38.700000	272.807083
38.710000	286.987387
38.720000	302.468734
38.730000	316.678997
38.740000	328.083550
38.750000	339.666846
38.760000	350.638670
38.770000	362.946391
38.780000	373.129954
38.790000	382.857876
38.800000	389.560952
38.810000	383.701740
38.820000	361.292206
38.830000	327.856906
38.840000	298.000399
38.850000	276.269938
38.860000	260.977108
38.870000	249.298981
38.880000	239.576290
38.890000	230.615397
38.900000	223.133628
38.910000	221.895981
38.920000	224.290568
38.930000	226.459817
38.940000	227.074599
38.950000	224.977744
38.960000	224.828362
38.970000	219.416968
38.980000	204.878676
38.990000	165.778579
39.000000	110.615690
39.010000	49.766443
39.020000	-0.008535
39.030000	-34.324997
39.040000	-52.688624
39.050000	-53.458337
39.060000	-42.099820
39.070000	-23.635250
39.080000	-4.559722
39.090000	11.818727
39.100000	25.946288
39.110000	39.899580
39.120000	52.064690
39.130000	64.613490
39.140000	74.123851
39.150000	78.955212
39.160000	70.119212
39.170000	47.277203
39.180000	16.756187
39.190000	-8.759912
39.200000	-27.346158
39.210000	-39.179108
39.220000	-47.165517
39.230000	-55.310708
39.240000	-63.014819
39.250000	-71.489748
39.260000	-74.552812
39.270000	-69.386902
39.280000	-60.486295
39.290000	-53.997206
39.300000	-54.791425
39.310000	-55.281639
39.320000	-51.147079
39.330000	-42.619998
39.340000	-31.882711
39.350000	-20.664937
39.360000	-7.985253
39.370000	2.904272
39.380000	14.219799
39.390000	24.088292
39.400000	34.060429
39.410000	43.893695
39.420000	51.522492
39.430000	56.329648
39.440000	63.961798
39.450000	72.037054
39.460000	73.682403
39.470000	64.378022
39.480000	48.721948
39.490000	35.357461
39.500000	22.694209
39.510000	4.284513
39.520000	-22.027326
39.530000	-51.474878
39.540000	-70.764098
39.550000	-77.302190
39.560000	-75.558666
39.570000	-71.505231
39.580000	-66.378367
39.590000	-57.067673
39.600000	-44.246337
39.610000	-26.996825
39.620000	-6.490991
39.630000	17.373376
39.640000	38.877686
39.650000	58.055494
39.660000	74.207268
39.670000	92.383121
39.680000	106.135119
39.690000	121.374674
39.700000	136.004416
39.710000	151.673425
39.720000	162.817607
39.730000	171.623963
39.740000	180.929877
39.750000	192.869993
39.760000	205.662270
39.770000	216.076381
39.780000	224.702950
39.790000	230.576411
39.800000	238.056293
39.810000	246.694727
39.820000	259.718001
39.830000	271.085981
39.840000	278.689009
39.850000	281.445343
39.860000	280.631892
39.870000	267.409093
39.880000	245.575099
39.890000	218.336939
39.900000	199.847528
39.910000	184.844053
39.920000	174.102573
39.930000	161.966296
39.940000	150.678882
39.950000	140.716681
39.960000	133.891951
39.970000	131.766232
39.980000	136.406360
39.990000	142.762951
40.000000	148.561863
40.010000	150.055855
40.020000	151.372653
40.030000	154.309440
40.040000	154.466930
40.050000	156.555307
40.060000	156.504440
40.070000	160.797596
40.080000	164.143802
40.090000	171.368613
40.100000	180.398574
40.110000	188.238207
40.120000	192.623213
40.130000	196.423175
40.140000	198.805704
40.150000	201.583506
40.160000	203.280672
40.170000	208.729414
40.180000	213.030572
40.190000	216.524782
40.200000	222.757748
40.210000	232.280468
40.220000	240.104992
40.230000	234.319153
40.240000	214.118160
40.250000	185.679162
40.260000	162.119267
40.270000	145.310562
40.280000	134.081017
40.290000	122.564800
40.300000	110.025981
40.310000	99.130898
40.320000	88.930254
40.330000	85.017598
40.340000	84.447095
40.350000	87.215124
40.360000	85.578812
40.370000	80.405820
40.380000	77.359945
40.390000	77.887897
40.400000	82.107110
40.410000	86.663509
40.420000	96.179305
40.430000	105.047534
40.440000	112.233952
40.450000	116.066417
40.460000	119.604924
40.470000	123.715985
40.480000	126.939597
40.490000	131.011136
40.500000	136.574793
40.510000	140.599760
40.520000	145.528635
40.530000	150.148668
40.540000	155.124669
40.550000	158.995481
40.560000	161.360736
40.570000	168.163545
40.580000	174.537648
40.590000	175.301316
40.600000	161.006789
40.610000	135.780351
40.620000	108.125302
40.630000	86.229239
40.640000	69.189602
40.650000	54.979158
40.660000	42.226524
40.670000	30.034565
40.680000	19.239090
40.690000	9.056441
40.700000	3.569304
40.710000	4.041555
40.720000	6.857125
40.730000	8.999357
40.740000	7.449348
40.750000	5.278326
40.760000	2.337196
40.770000	1.202616
40.780000	3.192787
40.790000	8.093928
40.800000	13.012279
40.810000	16.627522
40.820000	22.148869
40.830000	28.119655
40.840000	34.260077
40.850000	38.578504
40.860000	41.683207
40.870000	46.013860
40.880000	48.061506
40.890000	51.440318
40.900000	55.399383
40.910000	60.842919
40.920000	64.363711
40.930000	59.876485
40.940000	41.968235
40.950000	12.234344
40.960000	-20.101218
40.970000	-47.774748
40.980000	-64.534991
40.990000	-77.515450
41.000000	-86.978044
41.010000	-95.958561
41.020000	-102.101050
41.030000	-104.433539
41.040000	-103.255585
41.050000	-98.602465
41.060000	-91.440653
41.070000	-88.481781
41.080000	-86.292436
41.090000	-85.399855
41.100000	-84.166118
41.110000	-83.352329
41.120000	-80.726022
41.130000	-76.004569
41.140000	-69.983261
41.150000	-63.685106
41.160000	-56.597250
41.170000	-49.062257
41.180000	-44.580808
41.190000	-38.778637
41.200000	-34.277734
41.210000	-26.502696
41.220000	-17.687439
41.230000	-6.577879
41.240000	7.206459
41.250000	20.309382
41.260000	35.423047
41.270000	44.473189
41.280000	41.284340
41.290000	22.283673
41.300000	-2.176553
41.310000	-24.941687
41.320000	-41.337952
41.330000	-52.877691
41.340000	-63.198803
41.350000	-71.829316
41.360000	-84.102470
41.370000	-90.767718
41.380000	-96.069995
41.390000	-94.038146
41.400000	-89.092774
41.410000	-83.328858
41.420000	-79.143011
41.430000	-79.648124
41.440000	-77.858722
41.450000	-75.684989
41.460000	-71.591426
41.470000	-66.755719
41.480000	-60.010725
41.490000	-53.528610
41.500000	-47.784974
41.510000	-41.990926
41.520000	-34.917533
41.530000	-28.822290
41.540000	-25.742244
41.550000	-21.663077
41.560000	-18.275288
41.570000	-12.516760
41.580000	-7.517909
41.590000	-1.048240
41.600000	6.874154
41.610000	14.055211
41.620000	22.919859
41.630000	30.117134
41.640000	37.286990
41.650000	29.775404
41.660000	6.332081
41.670000	-31.918611
41.680000	-66.600872
41.690000	-92.006131
41.700000	-110.581558
41.710000	-125.119884
41.720000	-138.587959
41.730000	-146.906138
41.740000	-155.980257
41.750000	-162.024193
41.760000	-165.409009
41.770000	-157.475764
41.780000	-147.244582
41.790000	-137.602031
41.800000	-132.106822
41.810000	-127.400732
41.820000	-120.327658
41.830000	-113.239209
41.840000	-104.228054
41.850000	-93.441194
41.860000	-81.153272
41.870000	-66.664915
41.880000	-47.431103
41.890000	-23.921202
41.900000	5.940498
41.910000	33.769619
41.920000	58.641821
41.930000	78.433108
41.940000	91.319995
41.950000	99.416833
41.960000	100.295174
41.970000	103.409405
41.980000	108.887675
41.990000	117.713991
42.000000	127.781408
42.010000	136.660806
42.020000	137.639884
42.030000	125.588530
42.040000	102.494528
42.050000	74.504350
42.060000	52.672715
42.070000	34.693590
42.080000	22.506065
42.090000	9.502913
42.100000	-0.989694
42.110000	-10.390467
42.120000	-16.164211
42.130000	-18.982221
42.140000	-18.358396
42.150000	-14.598944
42.160000	-11.919393
42.170000	-10.895023
42.180000	-10.498622
42.190000	-11.217845
42.200000	-10.090906
42.210000	-6.569770
42.220000	-0.038758
42.230000	7.047504
42.240000	10.653400
42.250000	13.995770
42.260000	17.649427
42.270000	23.926655
42.280000	33.284927
42.290000	42.157773
42.300000	48.569468
42.310000	51.034965
42.320000	52.176736
42.330000	55.893826
42.340000	62.084564
42.350000	72.068191
42.360000	79.950899
42.370000	82.895989
42.380000	72.446886
42.390000	53.405338
42.400000	30.588100
42.410000	13.907250
42.420000	1.341823
42.430000	-9.947753
42.440000	-20.252071
42.450000	-32.163650
42.460000	-42.518009
42.470000	-52.412391
42.480000	-59.462142
42.490000	-59.343515
42.500000	-54.445705
42.510000	-47.630213
42.520000	-46.128830
42.530000	-44.904055
42.540000	-40.503768
42.550000	-37.219906
42.560000	-35.221405
42.570000	-31.547800
42.580000	-21.287601
42.590000	-10.593283
42.600000	-2.699600
42.610000	6.694838
42.620000	18.191196
42.630000	28.618941
42.640000	37.736430
42.650000	47.194689
42.660000	58.594693
42.670000	69.071388
42.680000	81.114264
42.690000	94.921782
42.700000	107.939645
42.710000	115.412886
42.720000	112.411350
42.730000	99.566117
42.740000	78.198518
42.750000	60.061615
42.760000	46.938632
42.770000	38.531773
42.780000	28.977215
42.790000	17.997743
42.800000	7.669441
42.810000	-3.565709
42.820000	-12.310786
42.830000	-14.814203
42.840000	-6.641777
42.850000	2.880248
42.860000	10.023393
42.870000	12.893903
42.880000	18.694424
42.890000	20.182138
42.900000	16.697837
42.910000	11.462042
42.920000	12.361792
42.930000	19.033720
42.940000	24.655821
42.950000	30.274870
42.960000	34.925561
42.970000	41.173667
42.980000	47.832989
42.990000	53.720508
43.000000	60.061778
43.010000	64.906752
43.020000	70.617245
43.030000	79.741718
43.040000	87.801664
43.050000	97.244000
43.060000	104.283969
43.070000	112.748899
43.080000	120.398025
43.090000	120.890996
43.100000	110.166838
43.110000	87.691313
43.120000	61.942309
43.130000	40.136775
43.140000	24.352309
43.150000	14.892713
43.160000	9.737976
43.170000	3.956073
43.180000	-0.207856
43.190000	-5.345028
43.200000	-3.810047
43.210000	4.314874
43.220000	19.905990
43.230000	35.266861
43.240000	48.954870
43.250000	61.540078
43.260000	74.989992
43.270000	87.117656
43.280000	93.000072
43.290000	100.713443
43.300000	107.295706
43.310000	118.983735
43.320000	131.545190
43.330000	148.925790
43.340000	171.768268
43.350000	198.176903
43.360000	226.976049
43.370000	256.074921
43.380000	286.842779
43.390000	316.277069
43.400000	347.041232
43.410000	373.439106
43.420000	388.886781
43.430000	395.273969
43.440000	394.047350
43.450000	393.109479
43.460000	389.494325
43.470000	382.601085
43.480000	373.930011
43.490000	356.051105
43.500000	328.367406
43.510000	292.490132
43.520000	260.483115
43.530000	236.891441
43.540000	219.897606
43.550000	203.932025
43.560000	187.305661
43.570000	173.636746
43.580000	162.017497
43.590000	155.334754
43.600000	152.701818
43.610000	151.009491
43.620000	142.690041
43.630000	132.032924
43.640000	126.335971
43.650000	133.373756
43.660000	145.254942
43.670000	159.044247
43.680000	172.491819
43.690000	184.366870
43.700000	199.394363
43.710000	213.314098
43.720000	230.302668
43.730000	242.544281
43.740000	253.892220
43.750000	261.739220
43.760000	269.480727
43.770000	278.912198
43.780000	288.041227
43.790000	298.076327
43.800000	305.571264
43.810000	312.905404
43.820000	319.408496
43.830000	325.386019
43.840000	331.896608
43.850000	337.174307
43.860000	345.048802
43.870000	350.587188
43.880000	344.504315
43.890000	320.991499
43.900000	281.962861
43.910000	240.407991
43.920000	203.721071
43.930000	179.473269
43.940000	164.765424
43.950000	155.182550
43.960000	150.135047
43.970000	148.204248
43.980000	155.506655
43.990000	166.508498
44.000000	175.525662
44.010000	178.799107
44.020000	170.854287
44.030000	148.409993
44.040000	103.149925
44.050000	47.391650
44.060000	-4.234063
44.070000	-41.992867
44.080000	-69.006167
44.090000	-84.051674
44.100000	-84.126345
44.110000	-71.477947
44.120000	-42.583798
44.130000	-3.283135
44.140000	40.271276
44.150000	76.877787
44.160000	108.475674
44.170000	137.687071
44.180000	163.315994
44.190000	181.468609
44.200000	189.472586
44.210000	189.910749
44.220000	176.250228
44.230000	151.023794
44.240000	112.328274
44.250000	70.817161
44.260000	32.706548
44.270000	5.593317
44.280000	-10.624082
44.290000	-21.667143
44.300000	-29.966941
44.310000	-39.620199
44.320000	-44.971122
44.330000	-49.285955
44.340000	-52.320612
44.350000	-56.982070
44.360000	-64.019297
44.370000	-69.353466
44.380000	-75.758765
44.390000	-79.061158
44.400000	-84.546347
44.410000	-94.115102
44.420000	-106.347107
44.430000	-117.184185
44.440000	-122.169237
44.450000	-124.630532
44.460000	-123.669052
44.470000	-123.112571
44.480000	-123.850254
44.490000	-129.959570
44.500000	-137.031093
44.510000	-144.172588
44.520000	-152.574086
44.530000	-161.737480
44.540000	-175.151282
44.550000	-195.991507
44.560000	-227.418501
44.570000	-264.580334
44.580000	-299.366980
44.590000	-326.533975
44.600000	-346.688545
44.610000	-364.522581
44.620000	-380.689492
44.630000	-395.199958
44.640000	-407.379153
44.650000	-418.573539
44.660000	-426.081736
44.670000	-432.318599
44.680000	-437.803255
44.690000	-446.764703
44.700000	-455.861548
44.710000	-465.578925
44.720000	-472.934630
44.730000	-478.761306
44.740000	-483.698228
44.750000	-487.298447
44.760000	-491.158543
44.770000	-493.517495
44.780000	-497.657190
44.790000	-500.075743
44.800000	-503.196627
44.810000	-506.985099
44.820000	-508.419059
44.830000	-508.262727
44.840000	-508.669850
44.850000	-514.572527
44.860000	-528.605534
44.870000	-550.565728
44.880000	-577.558343
44.890000	-600.900870
44.900000	-621.896399
44.910000	-639.253352
44.920000	-656.940010
44.930000	-672.612910
44.940000	-686.013727
44.950000	-698.668379
44.960000	-704.089738
44.970000	-704.438523
44.980000	-702.190823
44.990000	-700.233951
45.000000	-702.652625
45.010000	-704.695810
45.020000	-708.490618
45.030000	-711.836345
45.040000	-713.688941
45.050000	-714.337613
45.060000	-714.578978
45.070000	-717.201249
45.080000	-718.140332
45.090000	-716.764353
45.100000	-713.728493
45.110000	-712.357954
45.120000	-711.326932
45.130000	-709.307820
45.140000	-707.622131
45.150000	-709.285031
45.160000	-719.612880
45.170000	-739.606150
45.180000	-764.944639
45.190000	-787.271665
45.200000	-806.654872
45.210000	-822.624220
45.220000	-837.394171
45.230000	-849.989545
45.240000	-860.491068
45.250000	-873.053919
45.260000	-881.580820
45.270000	-882.813590
45.280000	-875.697267
45.290000	-870.290903
45.300000	-869.815182
45.310000	-870.769802
45.320000	-869.619504
45.330000	-866.612044
45.340000	-863.112962
45.350000	-857.799409
45.360000	-854.974145
45.370000	-851.986380
45.380000	-849.195391
45.390000	-845.855196
45.400000	-843.106446
45.410000	-841.072252
45.420000	-837.361367
45.430000	-834.987991
45.440000	-829.278735
45.450000	-824.277622
45.460000	-819.867673
45.470000	-822.267362
45.480000	-832.792224
45.490000	-849.931453
45.500000	-868.053933
45.510000	-879.939343
45.520000	-885.015083
45.530000	-891.652659
45.540000	-900.635926
45.550000	-910.038734
45.560000	-914.259873
45.570000	-921.141252
45.580000	-925.193042
45.590000	-924.265093
45.600000	-910.121285
45.610000	-895.123600
45.620000	-880.697209
45.630000	-868.994779
45.640000	-856.601466
45.650000	-848.565773
45.660000	-841.157787
45.670000	-837.832276
45.680000	-829.354629
45.690000	-824.155594
45.700000	-815.517744
45.710000	-810.858527
45.720000	-798.301568
45.730000	-791.972815
45.740000	-781.022964
45.750000	-779.828781
45.760000	-767.318947
45.770000	-763.468985
45.780000	-750.849906
45.790000	-753.226245
45.800000	-742.575412
45.810000	-750.149290
45.820000	-746.469961
45.830000	-772.935697
45.840000	-777.776829
45.850000	-801.643666
45.860000	-793.499102
45.870000	-816.665800
45.880000	-814.892520
45.890000	-807.203764
45.900000	296.941601
45.910000	333.204298
45.920000	364.991692
45.930000	368.450339
45.940000	403.353180
45.950000	409.036305
45.960000	434.687612
45.970000	431.023552
45.980000	445.292760
45.990000	443.460302
46.000000	461.429925
46.010000	467.384814
46.020000	483.723590
46.030000	487.192024
46.040000	488.786574
46.050000	471.264075
46.060000	447.608802
46.070000	413.966584
46.080000	386.496519
46.090000	358.283384
46.100000	341.113743
46.110000	322.211333
46.120000	310.135317
46.130000	294.767536
46.140000	284.888817
46.150000	270.285387
46.160000	263.719703
46.170000	260.102279
46.180000	260.248674
46.190000	255.241430
46.200000	248.828545
46.210000	241.722143
46.220000	236.764621
46.230000	231.539217
46.240000	231.406646
46.250000	231.011896
46.260000	233.423958
46.270000	235.486738
46.280000	243.152660
46.290000	249.947597
46.300000	257.925372
46.310000	262.745255
46.320000	269.411885
46.330000	277.550038
46.340000	288.592366
46.350000	301.704698
46.360000	314.792587
46.370000	325.549072
46.380000	336.028844
46.390000	345.075775
46.400000	351.289337
46.410000	352.626041
46.420000	343.900280
46.430000	325.551254
46.440000	301.881747
46.450000	280.512571
46.460000	265.881875
46.470000	256.819630
46.480000	246.561523
46.490000	235.842577
46.500000	221.258832
46.510000	207.584082
46.520000	198.650051
46.530000	200.695763
46.540000	208.039157
46.550000	215.840785
46.560000	219.460231
46.570000	223.041750
46.580000	223.894741
46.590000	221.280677
46.600000	219.041490
46.610000	219.548945
46.620000	227.896146
46.630000	242.165445
46.640000	260.117791
46.650000	274.469677
46.660000	289.406239
46.670000	304.797741
46.680000	320.062840
46.690000	333.492480
46.700000	343.757298
46.710000	353.903087
46.720000	361.474201
46.730000	368.363562
46.740000	375.560246
46.750000	382.190910
46.760000	386.014886
46.770000	387.732379
46.780000	385.502279
46.790000	373.302451
46.800000	352.049168
46.810000	328.596289
46.820000	308.634000
46.830000	294.923565
46.840000	285.246982
46.850000	278.295507
46.860000	269.226098
46.870000	255.717219
46.880000	246.278142
46.890000	241.828267
46.900000	246.716789
46.910000	255.623605
46.920000	265.873877
46.930000	274.797125
46.940000	280.411353
46.950000	285.362177
46.960000	286.980043
46.970000	289.993683
46.980000	294.916943
46.990000	300.667576
47.000000	306.902961
47.010000	311.717911
47.020000	319.955226
47.030000	327.458219
47.040000	338.746320
47.050000	347.216618
47.060000	355.946278
47.070000	361.005016
47.080000	367.219833
47.090000	374.162156
47.100000	380.541160
47.110000	385.370564
47.120000	389.585153
47.130000	393.962888
47.140000	401.018549
47.150000	410.599468
47.160000	418.492657
47.170000	424.298665
47.180000	414.984485
47.190000	398.775610
47.200000	378.514492
47.210000	362.988783
47.220000	351.739267
47.230000	338.907556
47.240000	328.712410
47.250000	316.857224
47.260000	306.427035
47.270000	300.528414
47.280000	300.859507
47.290000	310.926536
47.300000	322.314786
47.310000	333.733354
47.320000	344.160179
47.330000	354.936281
47.340000	363.718647
47.350000	371.538576
47.360000	379.333861
47.370000	391.206800
47.380000	402.315312
47.390000	414.618069
47.400000	428.015706
47.410000	441.418103
47.420000	454.108834
47.430000	464.273718
47.440000	475.943495
47.450000	487.840446
47.460000	498.503557
47.470000	507.803611
47.480000	513.116418
47.490000	520.182939
47.500000	524.761915
47.510000	527.302064
47.520000	528.468448
47.530000	526.809340
47.540000	527.587574
47.550000	525.682430
47.560000	523.789346
47.570000	516.594878
47.580000	499.387635
47.590000	475.591369
47.600000	453.394208
47.610000	435.635197
47.620000	422.121308
47.630000	408.396329
47.640000	397.932687
47.650000	387.535136
47.660000	377.817332
47.670000	369.403589
47.680000	363.098902
47.690000	359.000003
47.700000	358.113015
47.710000	357.315259
47.720000	351.518715
47.730000	343.047994
47.740000	331.647914
47.750000	322.192195
47.760000	312.822796
47.770000	305.076685
47.780000	299.058164
47.790000	294.357638
47.800000	291.026123
47.810000	289.370738
47.820000	289.057214
47.830000	288.445258
47.840000	289.162397
47.850000	287.904793
47.860000	287.683594
47.870000	287.084282
47.880000	283.934923
47.890000	282.346676
47.900000	280.903488
47.910000	282.687273
47.920000	283.250652
47.930000	282.104784
47.940000	280.000690
47.950000	269.900463
47.960000	250.499458
47.970000	223.771552
47.980000	201.090538
47.990000	187.358110
48.000000	180.395499
48.010000	175.337368
48.020000	167.434272
48.030000	156.061528
48.040000	145.219401
48.050000	133.504578
48.060000	124.084225
48.070000	120.683044
48.080000	122.671048
48.090000	127.256274
48.100000	128.316165
48.110000	129.590774
48.120000	130.684178
48.130000	130.658111
48.140000	131.461183
48.150000	132.118551
48.160000	134.647609
48.170000	138.974519
48.180000	143.898946
48.190000	147.897672
48.200000	148.883538
48.210000	153.579893
48.220000	157.572473
48.230000	165.020658
48.240000	170.637188
48.250000	176.215991
48.260000	178.757248
48.270000	182.499778
48.280000	186.264391
48.290000	190.189202
48.300000	195.175706
48.310000	200.944179
48.320000	208.492714
48.330000	212.082889
48.340000	211.226428
48.350000	197.602422
48.360000	176.065380
48.370000	150.521782
48.380000	126.310743
48.390000	102.158835
48.400000	78.630386
48.410000	54.526988
48.420000	30.691620
48.430000	7.964492
48.440000	-10.504736
48.450000	-23.868217
48.460000	-29.292822
48.470000	-31.318318
48.480000	-29.999024
48.490000	-33.053195
48.500000	-34.263968
48.510000	-38.081011
48.520000	-40.101532
48.530000	-41.387393
48.540000	-40.863409
48.550000	-37.958632
48.560000	-37.904651
48.570000	-37.770839
48.580000	-44.569879
48.590000	-47.463983
48.600000	-50.873602
48.610000	-45.716584
48.620000	-41.491524
48.630000	-36.200731
48.640000	-30.045227
48.650000	-25.955403
48.660000	-21.513892
48.670000	-18.985874
48.680000	-13.893596
48.690000	-10.302656
48.700000	-4.180523
48.710000	-0.573794
48.720000	5.631081
48.730000	2.178035
48.740000	-10.451610
48.750000	-33.002738
48.760000	-57.439371
48.770000	-74.442461
48.780000	-88.393856
48.790000	-100.803342
48.800000	-114.614612
48.810000	-126.409033
48.820000	-137.778031
48.830000	-148.605553
48.840000	-159.539015
48.850000	-165.715690
48.860000	-168.245101
48.870000	-167.084642
48.880000	-168.229697
48.890000	-169.693541
48.900000	-172.818583
48.910000	-172.546616
48.920000	-173.027793
48.930000	-172.979744
48.940000	-173.170880
48.950000	-170.998462
48.960000	-169.256913
48.970000	-166.266283
48.980000	-161.273484
48.990000	-157.472873
49.000000	-154.207338
49.010000	-153.614932
49.020000	-151.718787
49.030000	-148.361804
49.040000	-142.822938
49.050000	-137.377751
49.060000	-132.850541
49.070000	-129.987517
49.080000	-123.121154
49.090000	-120.228642
49.100000	-115.948940
49.110000	-113.420174
49.120000	-111.692484
49.130000	-118.896890
49.140000	-135.675622
49.150000	-155.948558
49.160000	-174.588046
49.170000	-189.602093
49.180000	-200.430909
49.190000	-211.529156
49.200000	-221.851671
49.210000	-232.053809
49.220000	-244.870977
49.230000	-254.815286
49.240000	-263.168196
49.250000	-259.470412
49.260000	-255.786415
49.270000	-254.023348
49.280000	-255.662408
49.290000	-255.483391
49.300000	-251.138372
49.310000	-249.226656
49.320000	-248.183791
49.330000	-246.896266
49.340000	-241.814186
49.350000	-236.176082
49.360000	-230.695765
49.370000	-225.378626
49.380000	-220.836907
49.390000	-218.507887
49.400000	-218.565582
49.410000	-219.222647
49.420000	-219.554061
49.430000	-218.527764
49.440000	-214.130374
49.450000	-208.768762
49.460000	-201.955692
49.470000	-193.601013
49.480000	-185.710134
49.490000	-175.677176
49.500000	-167.071319
49.510000	-157.994642
49.520000	-152.371351
49.530000	-157.243395
49.540000	-171.906031
49.550000	-192.071434
49.560000	-209.686028
49.570000	-220.498774
49.580000	-232.755736
49.590000	-247.160648
49.600000	-260.737113
49.610000	-271.747560
49.620000	-279.977501
49.630000	-289.935461
49.640000	-295.777326
49.650000	-295.387996
49.660000	-292.514160
49.670000	-288.421140
49.680000	-288.182058
49.690000	-288.351338
49.700000	-289.447805
49.710000	-285.182976
49.720000	-280.664832
49.730000	-276.588978
49.740000	-275.138930
49.750000	-271.562082
49.760000	-265.544539
49.770000	-260.464478
49.780000	-253.184568
49.790000	-249.978198
49.800000	-244.374897
49.810000	-239.102307
49.820000	-231.802876
49.830000	-226.829621
49.840000	-223.802448
49.850000	-216.458522
49.860000	-210.084638
49.870000	-203.319876
49.880000	-199.296361
49.890000	-192.073317
49.900000	-181.440643
49.910000	-176.435453
49.920000	-177.811947
49.930000	-190.391674
49.940000	-207.735044
49.950000	-225.937385
49.960000	-245.920397
49.970000	-260.710214
49.980000	-270.373693
49.990000	-278.407537
50.000000	-283.395033
50.010000	-290.704834
50.020000	-293.965261
50.030000	-295.272983
50.040000	-291.435012
50.050000	-284.770112
50.060000	-280.493015
50.070000	-278.165133
50.080000	-277.130291
50.090000	-275.803923
50.100000	-273.014802
50.110000	-267.354611
50.120000	-260.486743
50.130000	-253.816691
50.140000	-248.870894
50.150000	-242.845195
50.160000	-236.509616
50.170000	-229.448299
50.180000	-223.732796
50.190000	-216.615561
50.200000	-211.884419
50.210000	-206.006306
50.220000	-199.958449
50.230000	-192.968694
50.240000	-185.612389
50.250000	-179.175668
50.260000	-172.167759
50.270000	-165.966000
50.280000	-158.622566
50.290000	-153.345484
50.300000	-157.998238
50.310000	-174.616793
50.320000	-194.251318
50.330000	-210.134762
50.340000	-220.759258
50.350000	-227.901917
50.360000	-234.510321
50.370000	-239.898746
50.380000	-247.846380
50.390000	-254.112691
50.400000	-259.769244
50.410000	-258.879341
50.420000	-253.953670
50.430000	-248.553640
50.440000	-241.362527
50.450000	-237.483135
50.460000	-231.312610
50.470000	-226.675548
50.480000	-219.477697
50.490000	-212.122288
50.500000	-201.864852
50.510000	-191.152552
50.520000	-182.153562
50.530000	-175.413736
50.540000	-167.666899
50.550000	-156.244712
50.560000	-144.431119
50.570000	-131.632624
50.580000	-120.772299
50.590000	-112.581533
50.600000	-105.674395
50.610000	-96.089815
50.620000	-85.157181
50.630000	-72.158345
50.640000	-61.218854
50.650000	-49.439542
50.660000	-37.187839
50.670000	-27.960718
50.680000	-22.380019
50.690000	-28.733753
50.700000	-38.422999
50.710000	-52.429993
50.720000	-61.334004
50.730000	-66.719435
50.740000	-73.149208
50.750000	-79.890055
50.760000	-88.532895
50.770000	-91.931820
50.780000	-90.498856
50.790000	-87.208512
50.800000	-80.680451
50.810000	-72.721257
50.820000	-63.751911
50.830000	-56.466956
50.840000	-52.045623
50.850000	-45.755870
50.860000	-37.912350
50.870000	-30.274274
50.880000	-22.999906
50.890000	-15.348471
50.900000	-5.642853
50.910000	6.349031
50.920000	15.809628
50.930000	28.184317
50.940000	38.342958
50.950000	49.486009
50.960000	60.307735
50.970000	70.568083
50.980000	83.058589
50.990000	93.742785
51.000000	106.275580
51.010000	116.675152
51.020000	125.617633
51.030000	134.388423
51.040000	144.740495
51.050000	157.545758
51.060000	169.298108
51.070000	183.502751
51.080000	193.274540
51.090000	194.247644
51.100000	184.037684
51.110000	167.460534
51.120000	157.271141
51.130000	151.749127
51.140000	152.629832
51.150000	152.127595
51.160000	149.791643
51.170000	149.969162
51.180000	150.719718
51.190000	154.272662
51.200000	158.085446
51.210000	165.710604
51.220000	178.563280
51.230000	188.574081
51.240000	199.191274
51.250000	206.870485
51.260000	215.625766
51.270000	223.937699
51.280000	232.185081
51.290000	242.462837
51.300000	252.853521
51.310000	265.118489
51.320000	276.630579
51.330000	287.569451
51.340000	295.187459
51.350000	302.156752
51.360000	309.528263
51.370000	320.538688
51.380000	330.970812
51.390000	341.723812
51.400000	351.530127
51.410000	362.374165
51.420000	372.535809
51.430000	381.818822
51.440000	392.338199
51.450000	403.045388
51.460000	413.600033
51.470000	423.729873
51.480000	433.988767
51.490000	443.201132
51.500000	450.169189
51.510000	448.449959
51.520000	438.159820
51.530000	423.836673
51.540000	415.290891
51.550000	413.324815
51.560000	414.202542
51.570000	412.267601
51.580000	407.255794
51.590000	402.681089
51.600000	400.766021
51.610000	403.554806
51.620000	408.390916
51.630000	417.235643
51.640000	426.461756
51.650000	436.723051
51.660000	443.981370
51.670000	450.690132
51.680000	455.953808
51.690000	458.117323
51.700000	460.402009
51.710000	465.672741
51.720000	478.651349
51.730000	493.328221
51.740000	508.710834
51.750000	522.108894
51.760000	536.582790
51.770000	550.673984
51.780000	562.584124
51.790000	571.371884
51.800000	578.723273
51.810000	587.202934
51.820000	598.323737
51.830000	610.824033
51.840000	626.396780
51.850000	643.233435
51.860000	658.264399
51.870000	670.112307
51.880000	678.600250
51.890000	687.466977
51.900000	699.398356
51.910000	718.624467
51.920000	730.944514
51.930000	733.946435
51.940000	727.295230
51.950000	724.104274
51.960000	723.406282
51.970000	723.057966
51.980000	723.991600
51.990000	722.798952
52.000000	721.725054
52.010000	719.997647
52.020000	724.946807
52.030000	732.965729
52.040000	745.314729
52.050000	755.378349
52.060000	761.830046
52.070000	765.930973
52.080000	770.148261
52.090000	780.292384
52.100000	791.570303
52.110000	807.810433
52.120000	823.767051
52.130000	841.147205
52.140000	858.755448
52.150000	877.288785
52.160000	896.875208
52.170000	915.223290
52.180000	936.144607
52.190000	957.942174
52.200000	982.222549
52.210000	1007.786110
52.220000	1031.427691
52.230000	1052.770466
52.240000	1071.766324
52.250000	1090.560029
52.260000	1108.563226
52.270000	1124.480009
52.280000	1138.830719
52.290000	1151.864751
52.300000	1164.899883
52.310000	1179.716054
52.320000	1192.418636
52.330000	1196.023922
52.340000	1191.758188
52.350000	1182.133432
52.360000	1173.238862
52.370000	1166.695144
52.380000	1164.184016
52.390000	1164.379405
52.400000	1166.594895
52.410000	1165.848986
52.420000	1164.489496
52.430000	1163.778980
52.440000	1171.531946
52.450000	1183.137821
52.460000	1195.040046
52.470000	1204.962707
52.480000	1213.685498
52.490000	1222.250363
52.500000	1229.453246
52.510000	1236.339072
52.520000	1244.684281
52.530000	1254.216490
52.540000	1265.043751
52.550000	1276.218110
52.560000	1287.197809
52.570000	1301.356988
52.580000	1314.791401
52.590000	1326.630067
52.600000	1339.520197
52.610000	1351.682862
52.620000	1364.047962
52.630000	1376.189776
52.640000	1389.705429
52.650000	1405.485192
52.660000	1417.467201
52.670000	1428.260770
52.680000	1439.014244
52.690000	1451.493589
52.700000	1464.675423
52.710000	1477.848641
52.720000	1485.109952
52.730000	1487.342836
52.740000	1484.996675
52.750000	1480.629083
52.760000	1473.994826
52.770000	1466.037242
52.780000	1462.123288
52.790000	1460.877883
52.800000	1463.375638
52.810000	1463.482035
52.820000	1463.099518
52.830000	1463.199219
52.840000	1463.267702
52.850000	1468.379582
52.860000	1474.190621
52.870000	1485.364721
52.880000	1496.532104
52.890000	1506.807714
52.900000	1515.318560
52.910000	1523.033432
52.920000	1534.558724
52.930000	1547.349268
52.940000	1562.919163
52.950000	1575.420030
52.960000	1587.744772
52.970000	1597.583666
52.980000	1609.362037
52.990000	1623.843053
53.000000	1638.742714
53.010000	1653.879292
53.020000	1668.224766
53.030000	1682.356249
53.040000	1695.806190
53.050000	1708.602732
53.060000	1720.821822
53.070000	1734.621578
53.080000	1748.593528
53.090000	1765.082482
53.100000	1781.783413
53.110000	1799.983395
53.120000	1817.058548
53.130000	1828.641347
53.140000	1830.093926
53.150000	1823.076729
53.160000	1815.572604
53.170000	1814.266941
53.180000	1815.781145
53.190000	1814.875315
53.200000	1811.426105
53.210000	1806.909524
53.220000	1804.496229
53.230000	1801.681046
53.240000	1800.998809
53.250000	1806.206905
53.260000	1817.575147
53.270000	1833.810820
53.280000	1848.217991
53.290000	1861.181184
53.300000	1872.939750
53.310000	1882.626790
53.320000	1893.750760
53.330000	1906.472712
53.340000	1920.301753
53.350000	1934.057432
53.360000	1945.589683
53.370000	1957.059153
53.380000	1962.258675
53.390000	1962.484399
53.400000	1957.324751
53.410000	1951.992380
53.420000	1942.765744
53.430000	1929.909588
53.440000	1914.606346
53.450000	1895.883428
53.460000	1871.839067
53.470000	1828.551033
53.480000	1766.169313
53.490000	1684.274699
53.500000	1598.934538
53.510000	1515.691218
53.520000	1435.073136
53.530000	1350.808243
53.540000	1259.938720
53.550000	1166.323825
53.560000	1077.863954
53.570000	997.880983
53.580000	928.498453
53.590000	866.798807
53.600000	809.842799
53.610000	754.424452
53.620000	700.904134
53.630000	652.096001
53.640000	605.990017
53.650000	556.459334
53.660000	500.452728
53.670000	440.538435
53.680000	376.607035
53.690000	305.974696
53.700000	219.543057
53.710000	119.579075
53.720000	12.908243
53.730000	-97.485102
53.740000	-219.987548
53.750000	-339.116209
53.760000	-449.728600
53.770000	-551.436573
53.780000	-651.884385
53.790000	-740.732457
53.800000	-815.642834
53.810000	-863.082552
53.820000	-896.122415
53.830000	-928.757068
53.840000	-968.574316
53.850000	-1016.404300
53.860000	-1064.662404
53.870000	-1111.728563
53.880000	-1152.068399
53.890000	-1192.750770
53.900000	-1233.452080
53.910000	-1281.125608
53.920000	-1344.173702
53.930000	-1421.141974
53.940000	-1502.208908
53.950000	-1567.802751
53.960000	-1621.647235
53.970000	-1670.144628
53.980000	-1712.072962
53.990000	-1745.828381
54.000000	-1771.514211
54.010000	-1793.870268
54.020000	-1811.284635
54.030000	-1823.597305
54.040000	-1830.737664
54.050000	-1837.019933
54.060000	-1841.193467
54.070000	-1844.802793
54.080000	-1845.993642
54.090000	-1847.620102
54.100000	-1857.831006
54.110000	-1879.446539
54.120000	-1912.017595
54.130000	-1947.611722
54.140000	-1973.885787
54.150000	-1988.164915
54.160000	-1991.459950
54.170000	-1987.088004
54.180000	-1985.083826
54.190000	-1984.011875
54.200000	-2000.791412
54.210000	-2010.187594
54.220000	-2008.593680
54.230000	-2040.197503
54.240000	-2110.105432
54.250000	-2163.466883
54.260000	-2190.114469
54.270000	-2202.892137
54.280000	-2230.320435
54.290000	-2261.584507
54.300000	-2305.957608
54.310000	-2371.316608
54.320000	-2439.902122
54.330000	-2498.773872
54.340000	-2544.585738
54.350000	-2569.933547
54.360000	-2544.587678
54.370000	-2476.169695
54.380000	-2360.143872
54.390000	-2216.668599
54.400000	-2110.899228
54.410000	-2016.970492
54.420000	-1939.897486
54.430000	-1898.957847
54.440000	-1920.969937
54.450000	-1977.848550
54.460000	-2016.361450
54.470000	-2011.204730
54.480000	-1989.620013
54.490000	-1963.575640
54.500000	-1926.217494
54.510000	-1857.969479
54.520000	-1776.642778
54.530000	-1702.763123
54.540000	-1633.730782
54.550000	-1571.963996
54.560000	-1508.849132
54.570000	-1452.271352
54.580000	-1395.656116
54.590000	-1347.682788
54.600000	-1330.228694
54.610000	-1346.439274
54.620000	-1397.526269
54.630000	-1442.477230
54.640000	-1470.304212
54.650000	-1472.921512
54.660000	-1485.934285
54.670000	-1502.648848
54.680000	-1514.625884
54.690000	-1542.188584
54.700000	-1565.607951
54.710000	-1570.142890
54.720000	-1529.292309
54.730000	-1471.315900
54.740000	-1417.024875
54.750000	-1362.824235
54.760000	-1308.502776
54.770000	-1260.086080
54.780000	-1226.725973
54.790000	-1198.365533
54.800000	-1173.710587
54.810000	-1139.349360
54.820000	-1103.492544
54.830000	-1067.385638
54.840000	-1022.653278
54.850000	-975.868452
54.860000	-937.898223
54.870000	-920.426192
54.880000	-917.501008
54.890000	-921.719809
54.900000	-936.206149
54.910000	-960.076105
54.920000	-985.633168
54.930000	-1005.507451
54.940000	-1020.156062
54.950000	-1036.364106
54.960000	-1054.402538
54.970000	-1076.969105
54.980000	-1099.370593
54.990000	-1115.311776
55.000000	-1124.430534
55.010000	-1132.079245
55.020000	-1144.903301
55.030000	-1165.578585
55.040000	-1183.415624
55.050000	-1193.837796
55.060000	-1194.343538
55.070000	-1188.858020
55.080000	-1180.011386
55.090000	-1171.959380
55.100000	-1167.419008
55.110000	-1164.458471
55.120000	-1161.905983
55.130000	-1155.693632
55.140000	-1147.820398
55.150000	-1138.000036
55.160000	-1129.823050
55.170000	-1119.029197
55.180000	-1110.261197
55.190000	-1103.790778
55.200000	-1099.776835
55.210000	-1096.959632
55.220000	-1095.708144
55.230000	-1096.540114
55.240000	-1093.365872
55.250000	-1081.535792
55.260000	-1067.799484
55.270000	-1059.611308
55.280000	-1064.310671
55.290000	-1080.407110
55.300000	-1101.553029
55.310000	-1121.280394
55.320000	-1134.543734
55.330000	-1145.256009
55.340000	-1152.599118
55.350000	-1165.001300
55.360000	-1174.019041
55.370000	-1178.845035
55.380000	-1183.529696
55.390000	-1187.085567
55.400000	-1190.790443
55.410000	-1186.711234
55.420000	-1181.167324
55.430000	-1173.394314
55.440000	-1164.960689
55.450000	-1148.462695
55.460000	-1125.856231
55.470000	-1099.943054
55.480000	-1078.508293
55.490000	-1061.812083
55.500000	-1045.891258
55.510000	-1037.452744
55.520000	-1032.654059
55.530000	-1030.844126
55.540000	-1017.787977
55.550000	-996.023133
55.560000	-970.001837
55.570000	-944.945387
55.580000	-920.942515
55.590000	-904.626304
55.600000	-881.565794
55.610000	-863.786770
55.620000	-857.245709
55.630000	-867.017872
55.640000	-876.940092
55.650000	-872.659821
55.660000	-867.449291
55.670000	-865.014166
55.680000	-863.682113
55.690000	-860.770515
55.700000	-849.976149
55.710000	-823.593878
55.720000	-784.369456
55.730000	-732.480451
55.740000	-675.185500
55.750000	-608.405525
55.760000	-540.438194
55.770000	-461.683779
55.780000	-371.618931
55.790000	-280.394879
55.800000	-212.568010
55.810000	-157.411934
55.820000	-101.076959
55.830000	-41.194197
55.840000	14.987675
55.850000	63.299002
55.860000	109.012252
55.870000	144.691645
55.880000	181.021285
55.890000	219.995447
55.900000	260.958403
55.910000	292.204601
55.920000	313.864064
55.930000	329.024913
55.940000	334.689709
55.950000	328.450541
55.960000	304.777470
55.970000	268.508996
55.980000	230.820642
55.990000	200.833469
56.000000	185.463071
56.010000	178.393901
56.020000	175.383812
56.030000	169.887607
56.040000	164.603187
56.050000	163.658804
56.060000	167.753686
56.070000	173.359242
56.080000	173.502555
56.090000	168.019855
56.100000	160.536948
56.110000	151.279886
56.120000	143.522106
56.130000	141.819475
56.140000	151.452261
56.150000	168.276489
56.160000	170.611194
56.170000	170.436537
56.180000	160.661964
56.190000	149.917611
56.200000	138.635028
56.210000	127.009814
56.220000	117.225628
56.230000	104.027290
56.240000	99.142203
56.250000	104.296925
56.260000	110.642987
56.270000	114.193458
56.280000	114.433814
56.290000	106.692705
56.300000	90.851567
56.310000	74.494487
56.320000	68.560202
56.330000	73.215306
56.340000	80.863094
56.350000	89.233288
56.360000	109.485694
56.370000	140.500653
56.380000	175.710059
56.390000	197.688545
56.400000	201.252011
56.410000	197.873104
56.420000	188.716852
56.430000	188.379366
56.440000	193.082990
56.450000	197.500078
56.460000	209.771772
56.470000	221.193784
56.480000	233.441934
56.490000	234.803863
56.500000	229.776701
56.510000	224.706041
56.520000	218.377996
56.530000	211.902161
56.540000	219.971093
56.550000	240.339854
56.560000	264.836267
56.570000	282.391545
56.580000	300.040044
56.590000	328.074660
56.600000	350.126659
56.610000	366.426355
56.620000	373.158740
