Time(s)	GREEN_denoised_wiener
0.000000	303.323824
0.010000	482.926533
0.020000	537.569526
0.030000	594.808963
0.040000	652.123181
0.050000	713.063078
0.060000	775.015058
0.070000	839.015846
0.080000	904.257299
0.090000	967.651249
0.100000	1016.829743
0.110000	1023.598998
0.120000	975.467912
0.130000	876.615237
0.140000	749.846716
0.150000	617.653518
0.160000	497.902484
0.170000	404.370318
0.180000	334.603511
0.190000	284.104755
0.200000	246.656475
0.210000	224.552640
0.220000	216.723678
0.230000	216.675844
0.240000	217.479973
0.250000	212.824435
0.260000	206.287189
0.270000	198.990104
0.280000	194.458229
0.290000	194.508370
0.300000	203.326460
0.310000	221.708070
0.320000	249.215444
0.330000	283.593643
0.340000	323.798676
0.350000	369.505504
0.360000	418.066562
0.370000	470.117468
0.380000	524.353588
0.390000	579.754729
0.400000	634.663424
0.410000	691.093341
0.420000	749.660728
0.430000	809.452425
0.440000	869.348833
0.450000	928.837904
0.460000	990.403244
0.470000	1051.567850
0.480000	1113.826666
0.490000	1176.316089
0.500000	1239.612140
0.510000	1304.088526
0.520000	1364.072409
0.530000	1397.841591
0.540000	1380.548769
0.550000	1301.324344
0.560000	1175.789132
0.570000	1028.188639
0.580000	880.046472
0.590000	750.403826
0.600000	646.295130
0.610000	567.623635
0.620000	505.878128
0.630000	457.882118
0.640000	425.498889
0.650000	406.820729
0.660000	394.795902
0.670000	379.107310
0.680000	356.469055
0.690000	330.770313
0.700000	304.494946
0.710000	280.791622
0.720000	261.540380
0.730000	250.841936
0.740000	249.265563
0.750000	256.245121
0.760000	270.009968
0.770000	290.007386
0.780000	315.108395
0.790000	343.790710
0.800000	374.227993
0.810000	407.604172
0.820000	443.030295
0.830000	479.772987
0.840000	516.519122
0.850000	552.965881
0.860000	590.366712
0.870000	628.174834
0.880000	667.238983
0.890000	706.398959
0.900000	747.139045
0.910000	789.639864
0.920000	836.398992
0.930000	882.212963
0.940000	905.634156
0.950000	880.459314
0.960000	793.257187
0.970000	660.807899
0.980000	508.589831
0.990000	360.504335
1.000000	232.586172
1.010000	131.861118
1.020000	59.584873
1.030000	7.877464
1.040000	-25.717092
1.050000	-41.750074
1.060000	-44.010619
1.070000	-42.377225
1.080000	-47.957296
1.090000	-61.960519
1.100000	-80.206046
1.110000	-98.527616
1.120000	-114.777656
1.130000	-125.074148
1.140000	-127.338635
1.150000	-120.608378
1.160000	-104.218614
1.170000	-79.466391
1.180000	-47.082314
1.190000	-9.648313
1.200000	32.407533
1.210000	79.185301
1.220000	128.571839
1.230000	178.365665
1.240000	227.419153
1.250000	276.230447
1.260000	327.619192
1.270000	381.767451
1.280000	438.163240
1.290000	495.982625
1.300000	554.720300
1.310000	615.881902
1.320000	673.602133
1.330000	709.090464
1.340000	692.464717
1.350000	611.358109
1.360000	476.735448
1.370000	316.683262
1.380000	155.673148
1.390000	13.672688
1.400000	-100.744058
1.410000	-187.017101
1.420000	-250.835892
1.430000	-295.357656
1.440000	-320.911268
1.450000	-327.689402
1.460000	-319.655484
1.470000	-300.679626
1.480000	-284.418899
1.490000	-270.624222
1.500000	-265.860507
1.510000	-258.846189
1.520000	-253.336712
1.530000	-238.688813
1.540000	-221.186517
1.550000	-191.148265
1.560000	-159.754537
1.570000	-119.885269
1.580000	-80.026803
1.590000	-30.567513
1.600000	17.649572
1.610000	72.138585
1.620000	119.272239
1.630000	175.264105
1.640000	224.812243
1.650000	285.817818
1.660000	334.240483
1.670000	393.839346
1.680000	438.200547
1.690000	297.135373
1.700000	81.936201
1.710000	-167.094673
1.720000	-271.279426
1.730000	-340.448714
1.740000	-406.947393
1.750000	-449.320393
1.760000	-486.057383
1.770000	-501.764892
1.780000	-520.274559
1.790000	-533.120367
1.800000	-554.219793
1.810000	-569.398827
1.820000	-587.227858
1.830000	-592.947123
1.840000	-593.295769
1.850000	-577.782437
1.860000	-554.749961
1.870000	-518.915082
1.880000	-477.907911
1.890000	-428.018403
1.900000	-374.759877
1.910000	-317.774472
1.920000	-261.293511
1.930000	-202.179554
1.940000	-142.845158
1.950000	-81.910506
1.960000	-21.743566
1.970000	40.034933
1.980000	101.676526
1.990000	164.986457
2.000000	227.414132
2.010000	291.949159
2.020000	357.469558
2.030000	427.252874
2.040000	495.495452
2.050000	540.508182
2.060000	531.157104
2.070000	453.806388
2.080000	322.221993
2.090000	164.137400
2.100000	5.944104
2.110000	-134.226906
2.120000	-246.362250
2.130000	-331.294041
2.140000	-397.362469
2.150000	-449.692459
2.160000	-490.695552
2.170000	-516.079646
2.180000	-530.059376
2.190000	-538.478878
2.200000	-550.774158
2.210000	-562.514636
2.220000	-573.508711
2.230000	-580.216173
2.240000	-581.926187
2.250000	-576.255106
2.260000	-560.685455
2.270000	-536.312954
2.280000	-504.120232
2.290000	-465.715166
2.300000	-422.229837
2.310000	-374.459404
2.320000	-322.346869
2.330000	-267.551604
2.340000	-210.804744
2.350000	-156.330266
2.360000	-102.590469
2.370000	-48.788108
2.380000	7.283725
2.390000	63.397780
2.400000	119.486290
2.410000	176.575642
2.420000	235.343395
2.430000	297.411458
2.440000	360.177450
2.450000	423.910238
2.460000	486.660347
2.470000	536.035125
2.480000	542.751497
2.490000	487.508587
2.500000	375.230186
2.510000	231.025003
2.520000	80.363890
2.530000	-56.485680
2.540000	-165.866866
2.550000	-248.381995
2.560000	-310.794510
2.570000	-360.292939
2.580000	-396.381338
2.590000	-417.548211
2.600000	-426.326548
2.610000	-428.827404
2.620000	-432.957603
2.630000	-439.100330
2.640000	-446.600350
2.650000	-452.381294
2.660000	-451.586371
2.670000	-442.017864
2.680000	-422.590552
2.690000	-395.010673
2.700000	-360.274819
2.710000	-318.683733
2.720000	-273.649922
2.730000	-225.363689
2.740000	-175.043716
2.750000	-121.051785
2.760000	-64.795313
2.770000	-8.424810
2.780000	47.440958
2.790000	103.522723
2.800000	162.666496
2.810000	223.441823
2.820000	285.879243
2.830000	348.339415
2.840000	412.082914
2.850000	476.882425
2.860000	543.605640
2.870000	613.074565
2.880000	685.108071
2.890000	758.579770
2.900000	823.902789
2.910000	852.347782
2.920000	822.365802
2.930000	730.480522
2.940000	600.886414
2.950000	460.268208
2.960000	331.377501
2.970000	228.346663
2.980000	154.152218
2.990000	103.048593
3.000000	65.229705
3.010000	37.749779
3.020000	22.300167
3.030000	17.422375
3.040000	16.001643
3.050000	10.406591
3.060000	0.703790
3.070000	-9.954701
3.080000	-20.286692
3.090000	-25.661133
3.100000	-23.971957
3.110000	-14.058187
3.120000	3.984456
3.130000	29.855818
3.140000	62.249548
3.150000	98.410441
3.160000	136.494897
3.170000	177.617432
3.180000	221.380157
3.190000	266.465782
3.200000	313.247097
3.210000	360.954518
3.220000	408.422957
3.230000	455.422309
3.240000	501.240459
3.250000	547.539397
3.260000	594.028514
3.270000	641.969801
3.280000	691.121291
3.290000	740.038888
3.300000	789.194440
3.310000	840.419941
3.320000	891.898917
3.330000	934.756067
3.340000	943.532077
3.350000	894.404022
3.360000	782.858705
3.370000	630.764624
3.380000	466.175592
3.390000	311.081591
3.400000	177.771932
3.410000	72.019828
3.420000	-10.353489
3.430000	-78.082470
3.440000	-134.492342
3.450000	-179.871646
3.460000	-214.660425
3.470000	-245.707502
3.480000	-280.860591
3.490000	-320.886843
3.500000	-362.078324
3.510000	-400.763065
3.520000	-433.660836
3.530000	-458.673156
3.540000	-472.938793
3.550000	-476.956930
3.560000	-471.248175
3.570000	-457.943401
3.580000	-439.590548
3.590000	-416.288561
3.600000	-389.636023
3.610000	-358.993454
3.620000	-325.719760
3.630000	-289.727373
3.640000	-252.841974
3.650000	-214.153890
3.660000	-175.672536
3.670000	-134.601088
3.680000	-92.883551
3.690000	-47.402029
3.700000	1.193893
3.710000	52.095183
3.720000	106.241182
3.730000	161.214673
3.740000	207.567109
3.750000	214.573460
3.760000	162.219975
3.770000	47.944148
3.780000	-99.076231
3.790000	-251.727302
3.800000	-389.092813
3.810000	-503.806204
3.820000	-594.162066
3.830000	-663.937500
3.840000	-717.269854
3.850000	-754.763515
3.860000	-776.413929
3.870000	-786.974087
3.880000	-795.608473
3.890000	-808.214228
3.900000	-822.820133
3.910000	-837.159130
3.920000	-849.071169
3.930000	-855.139834
3.940000	-854.034015
3.950000	-843.156636
3.960000	-825.050709
3.970000	-797.533670
3.980000	-763.454577
3.990000	-722.609146
4.000000	-678.241545
4.010000	-631.719891
4.020000	-583.399611
4.030000	-533.871951
4.040000	-481.926846
4.050000	-429.740875
4.060000	-376.152585
4.070000	-322.323957
4.080000	-267.748288
4.090000	-212.616940
4.100000	-156.717630
4.110000	-96.943484
4.120000	-35.409589
4.130000	28.362058
4.140000	93.185416
4.150000	156.288017
4.160000	202.704947
4.170000	200.792751
4.180000	135.227122
4.190000	8.972107
4.200000	-151.562013
4.210000	-319.556553
4.220000	-471.402533
4.230000	-594.157177
4.240000	-690.996756
4.250000	-767.808101
4.260000	-833.308364
4.270000	-887.478060
4.280000	-928.658581
4.290000	-954.856953
4.300000	-971.071255
4.310000	-985.955874
4.320000	-1002.511778
4.330000	-1018.416937
4.340000	-1031.663305
4.350000	-1037.915122
4.360000	-1035.866702
4.370000	-1022.786297
4.380000	-999.122429
4.390000	-967.039127
4.400000	-927.083999
4.410000	-883.345300
4.420000	-835.410154
4.430000	-787.374124
4.440000	-737.764603
4.450000	-687.118702
4.460000	-633.823353
4.470000	-576.574305
4.480000	-517.267702
4.490000	-456.737093
4.500000	-397.092284
4.510000	-336.933591
4.520000	-277.300198
4.530000	-218.504676
4.540000	-159.213455
4.550000	-98.118974
4.560000	-33.502001
4.570000	33.883572
4.580000	101.494902
4.590000	150.799287
4.600000	150.079403
4.610000	82.379413
4.620000	-46.650083
4.630000	-207.684793
4.640000	-374.764774
4.650000	-526.470712
4.660000	-649.945500
4.670000	-746.671810
4.680000	-824.185248
4.690000	-892.923208
4.700000	-953.774361
4.710000	-1000.864881
4.720000	-1029.742814
4.730000	-1045.541560
4.740000	-1057.765191
4.750000	-1070.244477
4.760000	-1080.812808
4.770000	-1086.988127
4.780000	-1088.574851
4.790000	-1082.765957
4.800000	-1068.716837
4.810000	-1045.584871
4.820000	-1014.237786
4.830000	-974.441539
4.840000	-927.804413
4.850000	-877.008274
4.860000	-823.407676
4.870000	-766.610314
4.880000	-708.390141
4.890000	-650.919846
4.900000	-594.740996
4.910000	-537.260106
4.920000	-477.134423
4.930000	-414.309503
4.940000	-348.900372
4.950000	-281.064193
4.960000	-213.377929
4.970000	-146.518411
4.980000	-78.552848
4.990000	-7.343039
5.000000	67.229265
5.010000	141.117026
5.020000	206.631062
5.030000	236.820762
5.040000	208.005301
5.050000	110.860946
5.060000	-34.910173
5.070000	-201.779928
5.080000	-363.531585
5.090000	-504.150944
5.100000	-618.885831
5.110000	-710.577832
5.120000	-788.960466
5.130000	-858.692013
5.140000	-919.723172
5.150000	-965.489065
5.160000	-997.876283
5.170000	-1024.000758
5.180000	-1050.060231
5.190000	-1076.195582
5.200000	-1098.599503
5.210000	-1113.422853
5.220000	-1116.503532
5.230000	-1111.035660
5.240000	-1098.100131
5.250000	-1078.345354
5.260000	-1052.728678
5.270000	-1023.021404
5.280000	-993.728536
5.290000	-959.366831
5.300000	-916.430301
5.310000	-865.085147
5.320000	-808.837032
5.330000	-747.822988
5.340000	-681.938186
5.350000	-609.584788
5.360000	-534.414786
5.370000	-453.689694
5.380000	-362.245008
5.390000	-268.190969
5.400000	-178.431446
5.410000	-102.057398
5.420000	-36.945848
5.430000	22.393709
5.440000	75.832990
5.450000	129.838655
5.460000	187.913131
5.470000	238.552212
5.480000	249.914292
5.490000	195.925539
5.500000	79.305513
5.510000	-69.647362
5.520000	-221.326763
5.530000	-355.266585
5.540000	-459.001853
5.550000	-533.610128
5.560000	-584.709488
5.570000	-623.990036
5.580000	-653.409693
5.590000	-669.039349
5.600000	-668.800157
5.610000	-656.456154
5.620000	-641.557553
5.630000	-627.540129
5.640000	-614.990675
5.650000	-603.638217
5.660000	-590.432212
5.670000	-572.084610
5.680000	-544.219288
5.690000	-505.888516
5.700000	-459.028615
5.710000	-405.706672
5.720000	-346.848254
5.730000	-283.872519
5.740000	-218.347526
5.750000	-150.714045
5.760000	-80.856926
5.770000	-5.892503
5.780000	73.279197
5.790000	161.601457
5.800000	264.072294
5.810000	376.728080
5.820000	484.492599
5.830000	570.842241
5.840000	638.290485
5.850000	695.632728
5.860000	754.422126
5.870000	816.055273
5.880000	881.212186
5.890000	947.463425
5.900000	1013.667020
5.910000	1075.858816
5.920000	1109.059537
5.930000	1086.912900
5.940000	999.159139
5.950000	866.715882
5.960000	718.611337
5.970000	572.150699
5.980000	436.706155
5.990000	322.251950
6.000000	229.774768
6.010000	155.338523
6.020000	90.496864
6.030000	38.790919
6.040000	4.220145
6.050000	-18.114174
6.060000	-27.707760
6.070000	-24.018162
6.080000	-15.325204
6.090000	-16.271241
6.100000	-31.914247
6.110000	-52.815403
6.120000	-67.494892
6.130000	-76.054889
6.140000	-73.725309
6.150000	-62.977058
6.160000	-38.597055
6.170000	2.766922
6.180000	53.840298
6.190000	103.839914
6.200000	147.966430
6.210000	189.608097
6.220000	230.093301
6.230000	266.371008
6.240000	299.572106
6.250000	333.816267
6.260000	371.387027
6.270000	421.288162
6.280000	478.839562
6.290000	534.422037
6.300000	584.651781
6.310000	631.914661
6.320000	681.816084
6.330000	723.371965
6.340000	731.953488
6.350000	686.182434
6.360000	579.810340
6.370000	440.764985
6.380000	295.006985
6.390000	159.334544
6.400000	43.864430
6.410000	-46.764819
6.420000	-111.608509
6.430000	-160.547180
6.440000	-197.050130
6.450000	-216.961248
6.460000	-223.163429
6.470000	-219.697198
6.480000	-212.266355
6.490000	-205.748962
6.500000	-199.672354
6.510000	-200.136232
6.520000	-202.365624
6.530000	-201.172525
6.540000	-191.041166
6.550000	-169.533456
6.560000	-138.711602
6.570000	-94.192229
6.580000	-29.692042
6.590000	45.792130
6.600000	124.015007
6.610000	192.784732
6.620000	253.779557
6.630000	308.463138
6.640000	359.901891
6.650000	413.835924
6.660000	469.025742
6.670000	532.251741
6.680000	602.148537
6.690000	683.038139
6.700000	760.241078
6.710000	829.542182
6.720000	888.026392
6.730000	945.102905
6.740000	998.469325
6.750000	1020.283550
6.760000	983.939334
6.770000	888.558814
6.780000	755.494618
6.790000	601.846875
6.800000	448.418137
6.810000	304.795781
6.820000	188.388365
6.830000	91.367510
6.840000	14.073407
6.850000	-50.388013
6.860000	-104.202428
6.870000	-144.436379
6.880000	-174.134681
6.890000	-198.129412
6.900000	-225.384466
6.910000	-253.764568
6.920000	-281.273665
6.930000	-304.367593
6.940000	-322.810492
6.950000	-334.269821
6.960000	-336.986940
6.970000	-331.148517
6.980000	-317.469043
6.990000	-299.004261
7.000000	-272.571037
7.010000	-217.114351
7.020000	-115.654060
7.030000	19.726159
7.040000	136.850155
7.050000	230.392970
7.060000	311.764888
7.070000	399.778261
7.080000	475.607992
7.090000	534.567724
7.100000	584.517822
7.110000	632.052898
7.120000	677.777304
7.130000	719.897840
7.140000	787.488162
7.150000	901.086177
7.160000	1033.100570
7.170000	1096.812753
7.180000	1063.573332
7.190000	949.028740
7.200000	807.186082
7.210000	646.821998
7.220000	483.184974
7.230000	328.976823
7.240000	190.200888
7.250000	71.831095
7.260000	-33.113571
7.270000	-127.600964
7.280000	-210.380281
7.290000	-272.308331
7.300000	-308.288237
7.310000	-323.340099
7.320000	-330.848927
7.330000	-340.658376
7.340000	-349.001612
7.350000	-355.281207
7.360000	-356.108952
7.370000	-357.224565
7.380000	-355.152904
7.390000	-357.159141
7.400000	-353.444839
7.410000	-319.013282
7.420000	-227.694649
7.430000	-96.613888
7.440000	39.379519
7.450000	132.456062
7.460000	150.536701
7.470000	164.181221
7.480000	198.609539
7.490000	289.308309
7.500000	373.787219
7.510000	453.652264
7.520000	532.010050
7.530000	578.946762
7.540000	632.126597
7.550000	735.968119
7.560000	936.957327
7.570000	1189.445118
7.580000	1431.786342
7.590000	1601.294992
7.600000	1676.103375
7.610000	1667.278065
7.620000	1597.160942
7.630000	1479.948475
7.640000	1321.238070
7.650000	1149.057130
7.660000	985.007640
7.670000	838.843443
7.680000	775.305204
7.690000	822.238819
7.700000	957.175060
7.710000	1056.065772
7.720000	1035.868191
7.730000	962.679741
7.740000	891.240923
7.750000	863.970721
7.760000	832.742538
7.770000	796.769347
7.780000	767.655857
7.790000	728.534145
7.800000	713.085756
7.810000	770.719911
7.820000	921.145207
7.830000	1068.633101
7.840000	1122.930861
7.850000	1113.252253
7.860000	1102.854525
7.870000	1125.835820
7.880000	1147.968351
7.890000	1167.887455
7.900000	1189.474368
7.910000	1205.619987
7.920000	1215.040761
7.930000	1217.399448
7.940000	1220.674269
7.950000	1226.873392
7.960000	1236.013116
7.970000	1244.046909
7.980000	1253.079506
7.990000	1260.919182
8.000000	1269.200193
8.010000	1275.156382
8.020000	1284.721673
8.030000	1301.430431
8.040000	1311.572431
8.050000	1273.002885
8.060000	1159.509970
8.070000	985.061894
8.080000	798.251978
8.090000	632.789220
8.100000	500.643298
8.110000	396.511277
8.120000	315.745069
8.130000	245.251937
8.140000	173.559563
8.150000	101.066615
8.160000	41.117498
8.170000	2.242424
8.180000	-25.334021
8.190000	-52.544318
8.200000	-86.066760
8.210000	-121.593988
8.220000	-160.107322
8.230000	-197.924343
8.240000	-232.778797
8.250000	-251.184432
8.260000	-244.424114
8.270000	-209.755200
8.280000	-154.391237
8.290000	-80.607052
8.300000	12.689384
8.310000	120.897103
8.320000	233.124184
8.330000	337.436331
8.340000	428.949429
8.350000	506.356277
8.360000	573.827088
8.370000	633.307288
8.380000	687.075976
8.390000	736.960504
8.400000	789.374033
8.410000	851.318369
8.420000	923.022977
8.430000	994.350363
8.440000	1064.399668
8.450000	1129.409984
8.460000	1168.765313
8.470000	1138.774568
8.480000	1009.202673
8.490000	787.945047
8.500000	509.748021
8.510000	200.124136
8.520000	-115.005144
8.530000	-413.005715
8.540000	-669.052480
8.550000	-880.162690
8.560000	-1057.104992
8.570000	-1202.932817
8.580000	-1304.748299
8.590000	-1349.671193
8.600000	-1352.770154
8.610000	-1333.055755
8.620000	-1298.062752
8.630000	-1236.357374
8.640000	-1156.045057
8.650000	-1075.322962
8.660000	-1006.648049
8.670000	-944.542607
8.680000	-881.883360
8.690000	-815.075632
8.700000	-744.767522
8.710000	-668.571020
8.720000	-587.298008
8.730000	-501.035446
8.740000	-415.816011
8.750000	-335.465152
8.760000	-259.293105
8.770000	-183.524689
8.780000	-107.082728
8.790000	-33.903260
8.800000	39.175069
8.810000	113.073134
8.820000	187.791314
8.830000	257.394058
8.840000	324.124043
8.850000	388.738112
8.860000	455.159202
8.870000	522.763263
8.880000	588.547929
8.890000	630.763537
8.900000	614.928144
8.910000	526.845827
8.920000	379.743145
8.930000	207.677965
8.940000	38.232824
8.950000	-111.827317
8.960000	-231.935736
8.970000	-324.008274
8.980000	-392.419279
8.990000	-443.837267
9.000000	-478.861392
9.010000	-496.303426
9.020000	-502.967697
9.030000	-507.416815
9.040000	-519.052200
9.050000	-538.147853
9.060000	-562.105016
9.070000	-583.842933
9.080000	-597.470934
9.090000	-603.532328
9.100000	-601.143046
9.110000	-590.200787
9.120000	-567.450214
9.130000	-538.203288
9.140000	-503.723565
9.150000	-464.514456
9.160000	-418.968659
9.170000	-367.475430
9.180000	-315.538901
9.190000	-262.062818
9.200000	-207.758758
9.210000	-151.623584
9.220000	-95.631650
9.230000	-40.826753
9.240000	16.530201
9.250000	77.985561
9.260000	143.709679
9.270000	202.454487
9.280000	225.194869
9.290000	185.952885
9.300000	81.430018
9.310000	-64.453061
9.320000	-220.961994
9.330000	-364.524657
9.340000	-480.691814
9.350000	-562.930852
9.360000	-616.099205
9.370000	-646.988746
9.380000	-662.486673
9.390000	-662.340269
9.400000	-648.192676
9.410000	-627.688352
9.420000	-605.871692
9.430000	-585.677538
9.440000	-559.836316
9.450000	-528.333687
9.460000	-493.788605
9.470000	-458.970743
9.480000	-425.384636
9.490000	-386.900768
9.500000	-341.973914
9.510000	-289.145067
9.520000	-233.896338
9.530000	-182.371978
9.540000	-138.794319
9.550000	-99.558267
9.560000	-62.677663
9.570000	-24.053039
9.580000	16.781355
9.590000	63.145666
9.600000	116.253519
9.610000	171.346864
9.620000	217.059724
9.630000	223.181790
9.640000	167.907794
9.650000	48.086689
9.660000	-109.476498
9.670000	-272.976025
9.680000	-421.538875
9.690000	-542.709959
9.700000	-629.932257
9.710000	-684.112569
9.720000	-716.000887
9.730000	-733.154656
9.740000	-735.363118
9.750000	-721.843463
9.760000	-700.731489
9.770000	-680.849147
9.780000	-665.065176
9.790000	-651.490100
9.800000	-635.706927
9.810000	-616.454724
9.820000	-593.666951
9.830000	-569.072594
9.840000	-541.935171
9.850000	-511.003999
9.860000	-475.853916
9.870000	-436.585079
9.880000	-392.752700
9.890000	-345.819567
9.900000	-295.962754
9.910000	-243.034595
9.920000	-187.489185
9.930000	-127.892454
9.940000	-66.339951
9.950000	-3.059780
9.960000	62.162613
9.970000	126.115645
9.980000	168.303244
9.990000	156.611410
10.000000	77.179637
10.010000	-61.144785
10.020000	-232.210730
10.030000	-413.558695
10.040000	-585.255569
10.050000	-731.297554
10.060000	-846.310378
10.070000	-931.702433
10.080000	-998.037671
10.090000	-1050.071970
10.100000	-1084.389730
10.110000	-1095.750299
10.120000	-1082.398422
10.130000	-1041.071463
10.140000	-961.033471
10.150000	-842.736807
10.160000	-707.706411
10.170000	-589.080618
10.180000	-503.313312
10.190000	-446.347761
10.200000	-406.545598
10.210000	-376.606233
10.220000	-353.101138
10.230000	-324.153987
10.240000	-279.974757
10.250000	-218.368147
10.260000	-148.859308
10.270000	-79.891267
10.280000	-12.702527
10.290000	52.276185
10.300000	115.144206
10.310000	178.138148
10.320000	243.680234
10.330000	313.687650
10.340000	387.899347
10.350000	445.202424
10.360000	454.446907
10.370000	394.768264
10.380000	276.770514
10.390000	131.413091
10.400000	-16.232175
10.410000	-143.592275
10.420000	-243.587288
10.430000	-315.591781
10.440000	-366.940549
10.450000	-401.223826
10.460000	-414.916962
10.470000	-405.835446
10.480000	-376.883110
10.490000	-339.780236
10.500000	-303.483817
10.510000	-269.011895
10.520000	-233.716318
10.530000	-198.561860
10.540000	-161.582337
10.550000	-122.090090
10.560000	-75.077762
10.570000	-22.277950
10.580000	37.460435
10.590000	106.563546
10.600000	186.020691
10.610000	274.758869
10.620000	368.932977
10.630000	466.318437
10.640000	562.866864
10.650000	656.577051
10.660000	745.494444
10.670000	833.545523
10.680000	920.471037
10.690000	1007.545515
10.700000	1094.136492
10.710000	1180.909960
10.720000	1267.159177
10.730000	1338.932467
10.740000	1364.828477
10.750000	1318.998192
10.760000	1195.246475
10.770000	1018.510885
10.780000	817.369333
10.790000	617.376864
10.800000	432.488640
10.810000	268.916601
10.820000	120.602652
10.830000	-14.838460
10.840000	-145.269894
10.850000	-268.871731
10.860000	-399.824485
10.870000	-541.513409
10.880000	-715.734322
10.890000	-920.059859
10.900000	-1106.824496
10.910000	-1179.443147
10.920000	-1075.312479
10.930000	-880.539288
10.940000	-717.203601
10.950000	-626.718128
10.960000	-567.170038
10.970000	-495.197074
10.980000	-460.362361
10.990000	-430.087642
11.000000	-320.718197
11.010000	-63.322343
11.020000	310.011585
11.030000	560.906216
11.040000	681.069937
11.050000	702.274873
11.060000	773.146061
11.070000	852.485760
11.080000	877.860880
11.090000	904.049015
11.100000	1013.014226
11.110000	1257.228537
11.120000	1471.934943
11.130000	1506.811778
11.140000	1352.941499
11.150000	1131.783956
11.160000	940.913337
11.170000	776.508560
11.180000	585.113122
11.190000	436.602867
11.200000	414.046785
11.210000	582.344924
11.220000	780.056446
11.230000	880.546909
11.240000	868.736830
11.250000	820.362652
11.260000	773.678582
11.270000	715.735396
11.280000	627.969194
11.290000	606.453924
11.300000	704.840851
11.310000	872.918046
11.320000	977.849731
11.330000	988.692804
11.340000	975.500072
11.350000	981.424361
11.360000	977.984286
11.370000	928.163032
11.380000	951.595910
11.390000	1128.156235
11.400000	1447.322916
11.410000	1688.268718
11.420000	1783.835456
11.430000	1790.417244
11.440000	1795.797458
11.450000	1775.620894
11.460000	1691.082756
11.470000	1707.414445
11.480000	1914.189595
11.490000	2206.369316
11.500000	2311.866611
11.510000	2173.275951
11.520000	1917.077267
11.530000	1670.546470
11.540000	1430.290495
11.550000	1167.775823
11.560000	998.593868
11.570000	1003.269559
11.580000	1124.211650
11.590000	1192.150038
11.600000	1132.783461
11.610000	1055.895683
11.620000	982.470640
11.630000	817.682202
11.640000	720.881243
11.650000	822.414046
11.660000	1142.012700
11.670000	1373.608721
11.680000	1398.683272
11.690000	1301.717939
11.700000	1215.844100
11.710000	1155.189915
11.720000	1033.752487
11.730000	982.279414
11.740000	1058.147843
11.750000	1266.246179
11.760000	1404.662909
11.770000	1420.308996
11.780000	1378.189217
11.790000	1357.096154
11.800000	1319.080932
11.810000	1218.882169
11.820000	1228.922362
11.830000	1389.657107
11.840000	1617.106274
11.850000	1689.069531
11.860000	1565.473719
11.870000	1372.621740
11.880000	1149.283071
11.890000	923.158700
11.900000	706.731931
11.910000	518.392667
11.920000	360.483639
11.930000	221.267686
11.940000	83.232007
11.950000	-54.466191
11.960000	-188.663843
11.970000	-311.843868
11.980000	-420.226256
11.990000	-506.869698
12.000000	-571.798505
12.010000	-616.891862
12.020000	-642.692185
12.030000	-658.263059
12.040000	-674.249695
12.050000	-687.255694
12.060000	-694.803582
12.070000	-699.924490
12.080000	-711.368046
12.090000	-722.546534
12.100000	-721.580514
12.110000	-703.851552
12.120000	-670.137991
12.130000	-620.150977
12.140000	-559.710063
12.150000	-493.111178
12.160000	-428.959405
12.170000	-371.391676
12.180000	-339.583084
12.190000	-356.014752
12.200000	-428.166186
12.210000	-545.255422
12.220000	-683.715713
12.230000	-822.839270
12.240000	-946.613912
12.250000	-1043.772371
12.260000	-1115.215526
12.270000	-1162.377365
12.280000	-1189.161446
12.290000	-1194.974619
12.300000	-1182.120347
12.310000	-1161.601197
12.320000	-1142.747151
12.330000	-1129.218426
12.340000	-1118.028975
12.350000	-1107.847183
12.360000	-1096.315336
12.370000	-1077.808019
12.380000	-1048.949285
12.390000	-1008.783929
12.400000	-959.935164
12.410000	-905.102487
12.420000	-846.596077
12.430000	-783.421731
12.440000	-714.934696
12.450000	-642.089092
12.460000	-565.282489
12.470000	-485.435562
12.480000	-401.970806
12.490000	-315.797721
12.500000	-228.004845
12.510000	-140.841923
12.520000	-72.094031
12.530000	-55.943929
12.540000	-111.488168
12.550000	-230.985562
12.560000	-379.487870
12.570000	-530.397373
12.580000	-662.516596
12.590000	-763.514677
12.600000	-834.931503
12.610000	-883.661711
12.620000	-918.366555
12.630000	-933.786066
12.640000	-929.831625
12.650000	-911.607417
12.660000	-890.998299
12.670000	-875.433084
12.680000	-863.490790
12.690000	-852.940214
12.700000	-838.659254
12.710000	-818.472903
12.720000	-789.175899
12.730000	-750.030254
12.740000	-700.377520
12.750000	-642.614285
12.760000	-580.935897
12.770000	-514.870838
12.780000	-443.511935
12.790000	-367.818223
12.800000	-292.784945
12.810000	-218.438021
12.820000	-142.738520
12.830000	-61.738986
12.840000	21.602360
12.850000	106.947164
12.860000	192.920141
12.870000	277.277174
12.880000	339.166222
12.890000	348.226972
12.900000	290.101989
12.910000	177.563507
12.920000	42.067785
12.930000	-91.138478
12.940000	-204.342089
12.950000	-290.892673
12.960000	-353.466248
12.970000	-399.014125
12.980000	-431.604848
12.990000	-448.472672
13.000000	-447.768670
13.010000	-436.311230
13.020000	-424.966649
13.030000	-420.495047
13.040000	-420.830417
13.050000	-424.036075
13.060000	-428.385106
13.070000	-431.933672
13.080000	-429.956136
13.090000	-419.192757
13.100000	-400.228666
13.110000	-374.144285
13.120000	-343.864152
13.130000	-309.445966
13.140000	-269.520546
13.150000	-223.775512
13.160000	-171.534366
13.170000	-115.807070
13.180000	-57.567945
13.190000	3.472699
13.200000	63.695470
13.210000	121.064423
13.220000	175.605359
13.230000	231.641970
13.240000	288.141095
13.250000	335.503086
13.260000	354.290110
13.270000	316.647922
13.280000	207.113195
13.290000	32.828081
13.300000	-174.021839
13.310000	-379.012653
13.320000	-555.204606
13.330000	-693.930889
13.340000	-802.124335
13.350000	-891.890915
13.360000	-966.380507
13.370000	-1017.848849
13.380000	-1045.349963
13.390000	-1060.870360
13.400000	-1080.358464
13.410000	-1108.221767
13.420000	-1141.708987
13.430000	-1175.594814
13.440000	-1205.423471
13.450000	-1224.323144
13.460000	-1227.505660
13.470000	-1216.764923
13.480000	-1194.952840
13.490000	-1168.578874
13.500000	-1137.076076
13.510000	-1098.083416
13.520000	-1052.570665
13.530000	-1003.288397
13.540000	-953.428686
13.550000	-900.506670
13.560000	-842.984852
13.570000	-777.415225
13.580000	-704.915735
13.590000	-627.354659
13.600000	-552.558437
13.610000	-497.347549
13.620000	-488.256535
13.630000	-536.660811
13.640000	-631.254299
13.650000	-740.279817
13.660000	-836.626688
13.670000	-904.959639
13.680000	-941.058017
13.690000	-954.372023
13.700000	-948.501556
13.710000	-928.148969
13.720000	-883.934534
13.730000	-820.325310
13.740000	-748.079394
13.750000	-680.202326
13.760000	-619.223212
13.770000	-561.088886
13.780000	-508.747100
13.790000	-460.657176
13.800000	-414.629810
13.810000	-364.240983
13.820000	-308.888865
13.830000	-248.854103
13.840000	-182.837005
13.850000	-110.496481
13.860000	-33.818024
13.870000	46.170752
13.880000	130.513763
13.890000	223.821702
13.900000	322.129386
13.910000	421.446777
13.920000	522.398680
13.930000	631.395537
13.940000	750.630982
13.950000	874.631289
13.960000	996.500886
13.970000	1096.473314
13.980000	1144.317117
13.990000	1121.990663
14.000000	1038.182040
14.010000	923.209457
14.020000	804.681644
14.030000	702.048043
14.040000	627.470174
14.050000	576.149059
14.060000	540.226044
14.070000	515.235197
14.080000	510.662763
14.090000	531.284312
14.100000	562.689418
14.110000	590.977506
14.120000	614.392150
14.130000	640.338625
14.140000	665.374553
14.150000	681.998092
14.160000	694.365168
14.170000	711.313302
14.180000	738.991303
14.190000	775.582889
14.200000	817.589081
14.210000	861.495372
14.220000	909.512190
14.230000	959.706077
14.240000	1010.412299
14.250000	1059.892828
14.260000	1113.307580
14.270000	1173.382427
14.280000	1237.497681
14.290000	1301.510637
14.300000	1361.330670
14.310000	1420.301959
14.320000	1483.143397
14.330000	1553.733529
14.340000	1618.550808
14.350000	1650.436695
14.360000	1613.910983
14.370000	1498.517435
14.380000	1321.656391
14.390000	1124.304858
14.400000	940.691721
14.410000	788.688998
14.420000	670.659275
14.430000	580.691744
14.440000	511.263568
14.450000	457.342327
14.460000	420.192645
14.470000	402.637838
14.480000	398.403873
14.490000	396.226599
14.500000	388.598855
14.510000	376.144274
14.520000	363.444437
14.530000	352.360682
14.540000	348.606608
14.550000	351.866342
14.560000	362.743588
14.570000	379.337204
14.580000	403.195252
14.590000	433.439743
14.600000	468.282550
14.610000	505.512376
14.620000	544.679061
14.630000	586.559206
14.640000	630.375247
14.650000	675.577049
14.660000	718.366006
14.670000	759.243299
14.680000	801.667919
14.690000	847.875649
14.700000	896.261833
14.710000	943.472162
14.720000	992.174336
14.730000	1039.354859
14.740000	1068.016621
14.750000	1046.164282
14.760000	955.530922
14.770000	799.333402
14.780000	606.081759
14.790000	407.812314
14.800000	231.919653
14.810000	90.548842
14.820000	-18.649738
14.830000	-103.764842
14.840000	-175.260410
14.850000	-229.742198
14.860000	-263.572456
14.870000	-282.113289
14.880000	-299.945813
14.890000	-323.164031
14.900000	-346.658330
14.910000	-369.262504
14.920000	-397.428970
14.930000	-422.022325
14.940000	-426.550529
14.950000	-406.854101
14.960000	-379.433870
14.970000	-362.729862
14.980000	-346.611016
14.990000	-311.284980
15.000000	-254.542629
15.010000	-197.610917
15.020000	-147.809436
15.030000	-89.915274
15.040000	-12.794749
15.050000	68.333778
15.060000	133.164814
15.070000	186.276419
15.080000	242.444023
15.090000	307.151571
15.100000	366.293854
15.110000	406.319059
15.120000	405.411525
15.130000	345.453629
15.140000	221.187827
15.150000	50.942672
15.160000	-135.047097
15.170000	-311.626452
15.180000	-463.018949
15.190000	-593.963379
15.200000	-723.073985
15.210000	-863.330185
15.220000	-1005.781089
15.230000	-1121.020049
15.240000	-1193.238385
15.250000	-1232.494065
15.260000	-1260.440892
15.270000	-1292.665025
15.280000	-1322.629820
15.290000	-1339.538368
15.300000	-1333.869895
15.310000	-1312.838866
15.320000	-1292.849945
15.330000	-1282.165266
15.340000	-1273.836676
15.350000	-1260.539274
15.360000	-1237.880278
15.370000	-1203.300637
15.380000	-1156.646298
15.390000	-1099.783513
15.400000	-1039.140958
15.410000	-975.299910
15.420000	-909.687653
15.430000	-843.866513
15.440000	-779.952490
15.450000	-716.139076
15.460000	-655.948804
15.470000	-624.855541
15.480000	-656.685099
15.490000	-762.225867
15.500000	-920.718638
15.510000	-1096.271941
15.520000	-1266.506681
15.530000	-1413.714977
15.540000	-1531.710568
15.550000	-1620.893696
15.560000	-1691.993802
15.570000	-1762.809516
15.580000	-1835.284539
15.590000	-1906.763777
15.600000	-1967.941425
15.610000	-2015.786352
15.620000	-2048.653184
15.630000	-2066.531125
15.640000	-2078.440753
15.650000	-2090.986884
15.660000	-2103.258570
15.670000	-2114.828117
15.680000	-2124.123969
15.690000	-2129.051870
15.700000	-2126.370056
15.710000	-2112.324594
15.720000	-2088.681540
15.730000	-2055.308851
15.740000	-2014.048357
15.750000	-1964.670483
15.760000	-1906.129134
15.770000	-1842.094397
15.780000	-1777.596090
15.790000	-1715.895668
15.800000	-1654.763267
15.810000	-1594.752969
15.820000	-1553.692675
15.830000	-1564.365858
15.840000	-1642.288886
15.850000	-1780.297053
15.860000	-1947.199402
15.870000	-2117.624212
15.880000	-2272.172645
15.890000	-2396.678391
15.900000	-2489.893667
15.910000	-2554.455173
15.920000	-2600.012170
15.930000	-2626.917579
15.940000	-2634.505286
15.950000	-2629.109530
15.960000	-2618.378552
15.970000	-2608.674028
15.980000	-2601.280142
15.990000	-2596.945498
16.000000	-2595.553959
16.010000	-2590.907675
16.020000	-2578.205146
16.030000	-2555.584235
16.040000	-2523.568622
16.050000	-2481.295466
16.060000	-2427.970159
16.070000	-2363.713129
16.080000	-2292.752928
16.090000	-2214.486819
16.100000	-2126.566198
16.110000	-2029.302430
16.120000	-1928.762531
16.130000	-1831.820136
16.140000	-1739.642348
16.150000	-1646.684500
16.160000	-1547.887849
16.170000	-1445.265214
16.180000	-1351.525556
16.190000	-1297.591340
16.200000	-1304.163125
16.210000	-1373.560792
16.220000	-1480.083408
16.230000	-1592.206450
16.240000	-1686.717905
16.250000	-1748.899325
16.260000	-1780.086214
16.270000	-1782.617159
16.280000	-1762.485907
16.290000	-1720.340788
16.300000	-1659.913667
16.310000	-1587.757538
16.320000	-1512.364556
16.330000	-1441.522578
16.340000	-1376.480120
16.350000	-1318.636404
16.360000	-1263.593862
16.370000	-1206.428600
16.380000	-1141.384175
16.390000	-1069.584252
16.400000	-992.184831
16.410000	-911.418804
16.420000	-827.655324
16.430000	-741.929147
16.440000	-655.465971
16.450000	-566.102141
16.460000	-473.619583
16.470000	-377.611224
16.480000	-280.115503
16.490000	-180.781652
16.500000	-77.272855
16.510000	28.035781
16.520000	132.905326
16.530000	235.189652
16.540000	335.762343
16.550000	426.991727
16.560000	481.236988
16.570000	473.474596
16.580000	401.448789
16.590000	290.709472
16.600000	170.346963
16.610000	58.592180
16.620000	-29.083777
16.630000	-84.532218
16.640000	-111.533270
16.650000	-119.323251
16.660000	-113.289500
16.670000	-92.747242
16.680000	-63.044260
16.690000	-34.164920
16.700000	-15.109595
16.710000	-3.864615
16.720000	1.847872
16.730000	7.467460
16.740000	16.490763
16.750000	32.157266
16.760000	57.158264
16.770000	87.856815
16.780000	126.202575
16.790000	168.235942
16.800000	216.628583
16.810000	272.976607
16.820000	338.084582
16.830000	410.410664
16.840000	483.561428
16.850000	560.906711
16.860000	642.064142
16.870000	729.781859
16.880000	820.587933
16.890000	914.372054
16.900000	999.453411
16.910000	1048.293138
16.920000	1039.711772
16.930000	972.980108
16.940000	875.424533
16.950000	773.041723
16.960000	685.833409
16.970000	624.123614
16.980000	592.942204
16.990000	588.229265
17.000000	601.421621
17.010000	631.071710
17.020000	675.618898
17.030000	728.285582
17.040000	776.854571
17.050000	815.905702
17.060000	849.170533
17.070000	880.916680
17.080000	914.206799
17.090000	951.985170
17.100000	995.630822
17.110000	1045.777884
17.120000	1101.778465
17.130000	1162.630967
17.140000	1227.321610
17.150000	1297.554570
17.160000	1372.922857
17.170000	1452.541600
17.180000	1535.589850
17.190000	1619.256221
17.200000	1703.331192
17.210000	1785.700284
17.220000	1868.486307
17.230000	1953.546534
17.240000	2040.371942
17.250000	2124.118657
17.260000	2179.941168
17.270000	2182.094237
17.280000	2117.284578
17.290000	2002.560511
17.300000	1869.074781
17.310000	1742.420250
17.320000	1638.915582
17.330000	1563.659234
17.340000	1514.814711
17.350000	1486.632149
17.360000	1470.451153
17.370000	1470.386074
17.380000	1484.818380
17.390000	1510.215203
17.400000	1532.236977
17.410000	1547.489360
17.420000	1555.077977
17.430000	1562.536095
17.440000	1570.316177
17.450000	1586.019655
17.460000	1606.609548
17.470000	1638.280148
17.480000	1674.620387
17.490000	1722.329240
17.500000	1773.009515
17.510000	1807.769743
17.520000	2025.083021
17.530000	2412.050861
17.540000	2860.650205
17.550000	3188.549931
17.560000	3366.393342
17.570000	3483.798641
17.580000	3514.574983
17.590000	3515.699388
17.600000	3533.150366
17.610000	3431.526230
17.620000	3206.844601
17.630000	3128.194591
17.640000	3370.037363
17.650000	3840.556931
17.660000	4065.271312
17.670000	3988.161009
17.680000	3713.705317
17.690000	3462.844334
17.700000	3135.015790
17.710000	2858.248429
17.720000	2913.505980
17.730000	3357.797140
17.740000	3998.069119
17.750000	4304.179788
17.760000	4327.990547
17.770000	4137.031884
17.780000	3954.766612
17.790000	3805.429727
17.800000	3660.824841
17.810000	3538.378918
17.820000	3423.888745
17.830000	3332.501094
17.840000	3250.966831
17.850000	3188.443430
17.860000	3133.413175
17.870000	3090.521607
17.880000	3052.584860
17.890000	3026.395702
17.900000	3005.811560
17.910000	2994.052381
17.920000	2986.105491
17.930000	2980.809102
17.940000	2971.807558
17.950000	2961.010510
17.960000	2947.590326
17.970000	2933.975294
17.980000	2913.435236
17.990000	2876.686539
18.000000	2788.628872
18.010000	2626.517494
18.020000	2383.952631
18.030000	2096.214262
18.040000	1800.365381
18.050000	1526.976703
18.060000	1288.143621
18.070000	1084.790746
18.080000	913.992946
18.090000	769.677169
18.100000	645.923077
18.110000	539.651135
18.120000	440.244929
18.130000	335.365471
18.140000	214.315735
18.150000	78.857809
18.160000	-55.499250
18.170000	-178.254486
18.180000	-280.577031
18.190000	-365.992928
18.200000	-433.903021
18.210000	-479.647083
18.220000	-501.497925
18.230000	-504.247326
18.240000	-498.036359
18.250000	-485.088644
18.260000	-461.822317
18.270000	-426.532565
18.280000	-383.556292
18.290000	-337.910416
18.300000	-288.873873
18.310000	-235.888714
18.320000	-176.453413
18.330000	-111.811895
18.340000	-46.644281
18.350000	-0.378098
18.360000	-8.482353
18.370000	-85.490571
18.380000	-223.529949
18.390000	-385.461019
18.400000	-541.871082
18.410000	-673.732930
18.420000	-772.848854
18.430000	-843.647032
18.440000	-891.102922
18.450000	-921.506814
18.460000	-932.609542
18.470000	-926.321291
18.480000	-912.080704
18.490000	-900.416548
18.500000	-895.813633
18.510000	-893.766054
18.520000	-891.831743
18.530000	-887.060909
18.540000	-877.132216
18.550000	-859.970965
18.560000	-833.046507
18.570000	-795.835482
18.580000	-749.247552
18.590000	-695.988280
18.600000	-637.729636
18.610000	-573.752244
18.620000	-506.505340
18.630000	-437.131384
18.640000	-364.560911
18.650000	-289.468431
18.660000	-211.233214
18.670000	-132.100808
18.680000	-51.519124
18.690000	32.983630
18.700000	119.226563
18.710000	205.780677
18.720000	276.308015
18.730000	297.574198
18.740000	246.459628
18.750000	123.474498
18.760000	-36.920805
18.770000	-201.253712
18.780000	-344.617735
18.790000	-454.643163
18.800000	-532.980483
18.810000	-588.012251
18.820000	-628.639635
18.830000	-653.983285
18.840000	-661.256182
18.850000	-658.948416
18.860000	-658.176884
18.870000	-665.197617
18.880000	-677.036801
18.890000	-689.742501
18.900000	-700.866353
18.910000	-705.580152
18.920000	-702.338014
18.930000	-691.055366
18.940000	-672.780121
18.950000	-647.829688
18.960000	-616.858042
18.970000	-579.570065
18.980000	-535.571452
18.990000	-487.956216
19.000000	-438.919012
19.010000	-388.640544
19.020000	-337.237191
19.030000	-283.960376
19.040000	-231.202292
19.050000	-175.903946
19.060000	-118.148476
19.070000	-57.819831
19.080000	4.262832
19.090000	63.948117
19.100000	97.646665
19.110000	73.050959
19.120000	-24.228526
19.130000	-175.062784
19.140000	-344.368953
19.150000	-506.846188
19.160000	-644.171747
19.170000	-751.309693
19.180000	-830.304664
19.190000	-890.437479
19.200000	-935.400365
19.210000	-960.520812
19.220000	-970.500717
19.230000	-976.267190
19.240000	-990.585770
19.250000	-1012.622902
19.260000	-1035.969219
19.270000	-1056.966899
19.280000	-1074.674537
19.290000	-1083.278931
19.300000	-1075.022931
19.310000	-1052.267495
19.320000	-1025.041447
19.330000	-999.895883
19.340000	-973.014504
19.350000	-940.507384
19.360000	-906.994544
19.370000	-870.752026
19.380000	-829.289995
19.390000	-780.314999
19.400000	-727.921052
19.410000	-673.522272
19.420000	-616.531870
19.430000	-558.053034
19.440000	-501.133795
19.450000	-447.566361
19.460000	-407.745607
19.470000	-407.441753
19.480000	-469.335676
19.490000	-591.904310
19.500000	-745.836634
19.510000	-899.347515
19.520000	-1031.020405
19.530000	-1128.135831
19.540000	-1190.894436
19.550000	-1221.250614
19.560000	-1237.802702
19.570000	-1242.976361
19.580000	-1241.372515
19.590000	-1225.324167
19.600000	-1210.997045
19.610000	-1204.299893
19.620000	-1211.946704
19.630000	-1215.529686
19.640000	-1215.604991
19.650000	-1198.376738
19.660000	-1178.331096
19.670000	-1133.447113
19.680000	-1076.810662
19.690000	-997.107615
19.700000	-923.057426
19.710000	-842.312658
19.720000	-773.379684
19.730000	-693.060656
19.740000	-627.829276
19.750000	-577.058530
19.760000	-425.956348
19.770000	-80.103463
19.780000	422.561889
19.790000	807.209745
19.800000	966.549008
19.810000	981.715815
19.820000	977.999334
19.830000	1012.041876
19.840000	1022.133057
19.850000	891.892830
19.860000	840.195875
19.870000	975.448576
19.880000	1368.162716
19.890000	1609.362037
19.900000	1574.251302
19.910000	1356.215849
19.920000	1124.556034
19.930000	856.215506
19.940000	653.880149
19.950000	753.254380
19.960000	1194.006214
19.970000	1776.977515
19.980000	2100.917261
19.990000	2162.800943
20.000000	2036.713108
20.010000	1884.538334
20.020000	1660.277253
20.030000	1509.139939
20.040000	1556.458942
20.050000	1901.675658
20.060000	2258.586397
20.070000	2423.108294
20.080000	2381.908849
20.090000	2283.322421
20.100000	2190.668285
20.110000	2129.101891
20.120000	2131.451957
20.130000	2173.728112
20.140000	2206.501539
20.150000	2193.726493
20.160000	2166.069361
20.170000	2156.064611
20.180000	2144.830152
20.190000	1973.351601
20.200000	1720.912091
20.210000	1416.834225
20.220000	1225.697908
20.230000	1073.994826
20.240000	937.951740
20.250000	829.584641
20.260000	726.441317
20.270000	648.286981
20.280000	582.838926
20.290000	538.374658
20.300000	492.814835
20.310000	448.189704
20.320000	395.420852
20.330000	345.052062
20.340000	295.653531
20.350000	257.271616
20.360000	228.513258
20.370000	214.500320
20.380000	209.333425
20.390000	215.074388
20.400000	226.790667
20.410000	246.991297
20.420000	270.214533
20.430000	298.583670
20.440000	328.944649
20.450000	362.842473
20.460000	398.986610
20.470000	438.426776
20.480000	478.002184
20.490000	518.673681
20.500000	558.326692
20.510000	601.254997
20.520000	647.622762
20.530000	701.830276
20.540000	763.554273
20.550000	832.386484
20.560000	903.788347
20.570000	962.225807
20.580000	973.951779
20.590000	910.391447
20.600000	770.502333
20.610000	579.941303
20.620000	375.393440
20.630000	184.108216
20.640000	23.900978
20.650000	-100.452308
20.660000	-195.648585
20.670000	-265.364091
20.680000	-312.222111
20.690000	-333.622348
20.700000	-334.845400
20.710000	-326.256649
20.720000	-317.830319
20.730000	-309.894452
20.740000	-299.837784
20.750000	-284.227905
20.760000	-263.220293
20.770000	-235.255789
20.780000	-199.304010
20.790000	-155.988584
20.800000	-104.752129
20.810000	-47.095288
20.820000	15.096494
20.830000	78.424375
20.840000	146.260297
20.850000	216.892716
20.860000	293.399284
20.870000	365.619452
20.880000	428.847396
20.890000	478.306188
20.900000	515.605963
20.910000	541.950770
20.920000	554.979746
20.930000	554.224935
20.940000	545.661649
20.950000	536.458835
20.960000	525.944505
20.970000	514.651229
20.980000	496.831322
20.990000	455.433142
21.000000	360.636321
21.010000	198.210475
21.020000	-10.174796
21.030000	-232.365437
21.040000	-433.360793
21.050000	-599.382991
21.060000	-719.939821
21.070000	-802.501206
21.080000	-843.540622
21.090000	-831.984647
21.100000	-803.322570
21.110000	-775.139472
21.120000	-765.493675
21.130000	-744.551238
21.140000	-705.450307
21.150000	-658.065354
21.160000	-614.469972
21.170000	-595.661578
21.180000	-603.161009
21.190000	-621.603555
21.200000	-624.881932
21.210000	-600.309039
21.220000	-556.054039
21.230000	-502.749106
21.240000	-447.946083
21.250000	-391.898097
21.260000	-330.890104
21.270000	-264.787035
21.280000	-195.236369
21.290000	-132.430688
21.300000	-83.973999
21.310000	-79.199727
21.320000	-140.425293
21.330000	-273.991713
21.340000	-448.841255
21.350000	-626.497936
21.360000	-782.698087
21.370000	-902.431964
21.380000	-990.345177
21.390000	-1057.119389
21.400000	-1114.064683
21.410000	-1161.848809
21.420000	-1194.838637
21.430000	-1210.325200
21.440000	-1214.041897
21.450000	-1212.878057
21.460000	-1216.326096
21.470000	-1224.145129
21.480000	-1235.015431
21.490000	-1248.489837
21.500000	-1263.445283
21.510000	-1280.582389
21.520000	-1290.256675
21.530000	-1282.751808
21.540000	-1252.490269
21.550000	-1205.029741
21.560000	-1149.144383
21.570000	-1087.703553
21.580000	-1021.872987
21.590000	-958.806715
21.600000	-904.678859
21.610000	-856.966334
21.620000	-806.881584
21.630000	-750.219637
21.640000	-691.857385
21.650000	-635.885945
21.660000	-578.226268
21.670000	-515.302846
21.680000	-450.029200
21.690000	-387.141324
21.700000	-327.237684
21.710000	-265.047607
21.720000	-204.890102
21.730000	-171.761947
21.740000	-196.309637
21.750000	-287.167763
21.760000	-424.068721
21.770000	-573.289217
21.780000	-712.946583
21.790000	-829.185969
21.800000	-914.929965
21.810000	-972.194920
21.820000	-1005.340651
21.830000	-1026.646799
21.840000	-1038.478917
21.850000	-1047.532341
21.860000	-1062.043477
21.870000	-1092.847363
21.880000	-1136.992789
21.890000	-1183.897647
21.900000	-1222.697810
21.910000	-1248.387425
21.920000	-1261.842637
21.930000	-1265.639096
21.940000	-1262.077500
21.950000	-1246.295441
21.960000	-1220.422799
21.970000	-1189.384236
21.980000	-1159.530324
21.990000	-1125.532790
22.000000	-1083.065956
22.010000	-1034.458487
22.020000	-983.030016
22.030000	-931.475005
22.040000	-877.740400
22.050000	-823.594869
22.060000	-768.203294
22.070000	-707.465568
22.080000	-649.459577
22.090000	-597.416360
22.100000	-549.796288
22.110000	-500.448141
22.120000	-467.627140
22.130000	-486.620591
22.140000	-584.863762
22.150000	-757.799283
22.160000	-964.093593
22.170000	-1156.723335
22.180000	-1299.781707
22.190000	-1389.831073
22.200000	-1436.266327
22.210000	-1453.714518
22.220000	-1454.506041
22.230000	-1446.346724
22.240000	-1437.843076
22.250000	-1435.735359
22.260000	-1444.602427
22.270000	-1463.871453
22.280000	-1490.115563
22.290000	-1512.081011
22.300000	-1523.069501
22.310000	-1516.385521
22.320000	-1495.813812
22.330000	-1466.789454
22.340000	-1431.978700
22.350000	-1392.951839
22.360000	-1346.224441
22.370000	-1294.559385
22.380000	-1238.224586
22.390000	-1178.263565
22.400000	-1113.981033
22.410000	-1047.402861
22.420000	-982.169448
22.430000	-919.629949
22.440000	-858.110187
22.450000	-795.950910
22.460000	-731.812169
22.470000	-668.042227
22.480000	-603.263999
22.490000	-536.227158
22.500000	-470.154561
22.510000	-424.215508
22.520000	-430.172506
22.530000	-500.911309
22.540000	-622.542708
22.550000	-762.648514
22.560000	-895.690597
22.570000	-1006.506162
22.580000	-1087.952277
22.590000	-1141.813239
22.600000	-1173.314794
22.610000	-1190.552718
22.620000	-1194.749411
22.630000	-1186.380912
22.640000	-1169.618053
22.650000	-1152.978024
22.660000	-1145.244171
22.670000	-1144.635957
22.680000	-1146.618976
22.690000	-1146.716709
22.700000	-1141.753082
22.710000	-1130.224177
22.720000	-1109.973907
22.730000	-1082.830813
22.740000	-1049.278971
22.750000	-1009.190066
22.760000	-961.669254
22.770000	-906.972824
22.780000	-847.819659
22.790000	-786.507459
22.800000	-725.055334
22.810000	-662.787055
22.820000	-599.711580
22.830000	-536.486778
22.840000	-474.120115
22.850000	-411.598592
22.860000	-347.611782
22.870000	-279.791090
22.880000	-212.204356
22.890000	-167.116430
22.900000	-173.564693
22.910000	-246.150916
22.920000	-367.920116
22.930000	-507.226441
22.940000	-635.698883
22.950000	-738.419557
22.960000	-809.248690
22.970000	-851.050619
22.980000	-870.221025
22.990000	-874.096703
23.000000	-862.250744
23.010000	-834.889499
23.020000	-800.715030
23.030000	-770.097699
23.040000	-749.913455
23.050000	-735.684695
23.060000	-724.191554
23.070000	-709.673835
23.080000	-688.216740
23.090000	-657.074430
23.100000	-617.661150
23.110000	-571.883725
23.120000	-520.509323
23.130000	-465.101645
23.140000	-404.756694
23.150000	-341.065261
23.160000	-273.403025
23.170000	-204.108254
23.180000	-133.447769
23.190000	-61.888760
23.200000	12.778353
23.210000	90.588751
23.220000	169.931084
23.230000	238.969789
23.240000	268.969482
23.250000	236.631650
23.260000	142.005035
23.270000	12.970122
23.280000	-120.686871
23.290000	-240.454597
23.300000	-335.130607
23.310000	-401.298653
23.320000	-443.660785
23.330000	-473.557947
23.340000	-487.881137
23.350000	-487.891963
23.360000	-471.487818
23.370000	-453.333782
23.380000	-439.465393
23.390000	-433.496389
23.400000	-430.145482
23.410000	-430.402668
23.420000	-427.864547
23.430000	-423.053418
23.440000	-407.951768
23.450000	-389.135353
23.460000	-362.399976
23.470000	-332.966591
23.480000	-299.553223
23.490000	-264.530244
23.500000	-220.401236
23.510000	-157.475882
23.520000	-90.370164
23.530000	-30.132020
23.540000	23.973497
23.550000	76.837341
23.560000	141.286898
23.570000	190.980924
23.580000	130.024925
23.590000	131.479395
23.600000	282.811236
23.610000	601.736853
23.620000	756.254768
23.630000	693.378914
23.640000	508.056727
23.650000	365.834172
23.660000	248.306585
23.670000	64.376746
23.680000	-43.848906
23.690000	62.531826
23.700000	429.696066
23.710000	756.020619
23.720000	871.224584
23.730000	823.399152
23.740000	735.248488
23.750000	590.018930
23.760000	536.017167
23.770000	661.766410
23.780000	930.734748
23.790000	1123.638124
23.800000	1155.447712
23.810000	1131.660232
23.820000	1075.562433
23.830000	1004.961956
23.840000	1014.850917
23.850000	1194.209369
23.860000	1415.507368
23.870000	1564.790448
23.880000	1567.569002
23.890000	1579.968789
23.900000	1582.779983
23.910000	1519.007985
23.920000	1549.554440
23.930000	1766.824424
23.940000	2253.601532
23.950000	2584.210411
23.960000	2622.409977
23.970000	2384.649159
23.980000	2100.437298
23.990000	1858.334757
24.000000	1636.127954
24.010000	1462.461217
24.020000	1303.949668
24.030000	1175.020661
24.040000	1050.297281
24.050000	951.010228
24.060000	862.849606
24.070000	796.370623
24.080000	727.275605
24.090000	660.781677
24.100000	586.963131
24.110000	521.566545
24.120000	457.558242
24.130000	404.366960
24.140000	357.752983
24.150000	326.507173
24.160000	303.875874
24.170000	293.981604
24.180000	289.939711
24.190000	296.793468
24.200000	309.280075
24.210000	330.934489
24.220000	357.236799
24.230000	391.402060
24.240000	429.145048
24.250000	472.191751
24.260000	515.674277
24.270000	562.308173
24.280000	611.166213
24.290000	663.737417
24.300000	717.620453
24.310000	773.147289
24.320000	819.350238
24.330000	828.484452
24.340000	772.719948
24.350000	650.868394
24.360000	491.144127
24.370000	326.906952
24.380000	180.512000
24.390000	62.219641
24.400000	-25.500748
24.410000	-90.856122
24.420000	-142.540534
24.430000	-181.603161
24.440000	-205.261978
24.450000	-216.056902
24.460000	-224.363598
24.470000	-237.861796
24.480000	-257.806030
24.490000	-280.678609
24.500000	-302.605741
24.510000	-320.188213
24.520000	-330.097028
24.530000	-330.392909
24.540000	-320.282630
24.550000	-301.629292
24.560000	-276.827302
24.570000	-246.886033
24.580000	-213.397620
24.590000	-176.161778
24.600000	-135.994538
24.610000	-91.789262
24.620000	-45.623765
24.630000	3.568449
24.640000	53.046566
24.650000	102.242266
24.660000	150.025617
24.670000	197.566119
24.680000	246.650207
24.690000	298.198225
24.700000	352.918300
24.710000	408.800404
24.720000	449.457895
24.730000	440.330438
24.740000	360.345753
24.750000	214.576943
24.760000	37.960400
24.770000	-136.537089
24.780000	-288.815314
24.790000	-408.699967
24.800000	-498.981449
24.810000	-565.225173
24.820000	-616.177584
24.830000	-651.078754
24.840000	-669.061127
24.850000	-674.300438
24.860000	-679.321730
24.870000	-691.194470
24.880000	-707.911269
24.890000	-725.102413
24.900000	-737.852904
24.910000	-743.369631
24.920000	-738.145877
24.930000	-722.667627
24.940000	-698.795612
24.950000	-666.981243
24.960000	-628.132591
24.970000	-582.980189
24.980000	-533.826196
24.990000	-479.321235
25.000000	-419.876584
25.010000	-357.685603
25.020000	-294.276715
25.030000	-229.730707
25.040000	-163.693503
25.050000	-97.798925
25.060000	-33.126225
25.070000	33.460509
25.080000	100.745375
25.090000	170.377619
25.100000	229.226386
25.110000	249.237278
25.120000	201.020798
25.130000	84.160446
25.140000	-75.796017
25.150000	-239.895247
25.160000	-387.344864
25.170000	-500.307680
25.180000	-587.648813
25.190000	-649.377355
25.200000	-698.336041
25.210000	-727.406697
25.220000	-769.146524
25.230000	-779.573222
25.240000	-715.640097
25.250000	-614.306454
25.260000	-538.217624
25.270000	-535.011642
25.280000	-551.531248
25.290000	-561.469946
25.300000	-570.612139
25.310000	-560.874910
25.320000	-558.159132
25.330000	-576.592585
25.340000	-514.064994
25.350000	-348.207139
25.360000	-134.863276
25.370000	3.985988
25.380000	55.962403
25.390000	102.426440
25.400000	134.530453
25.410000	177.283620
25.420000	439.928517
25.430000	905.176218
25.440000	1478.104559
25.450000	1896.601078
25.460000	2072.082263
25.470000	2111.555108
25.480000	2065.229504
25.490000	2064.725161
25.500000	2073.908634
25.510000	2057.557216
25.520000	1974.564623
25.530000	1812.461113
25.540000	1593.643057
25.550000	1357.404919
25.560000	1130.681177
25.570000	932.654528
25.580000	766.001172
25.590000	629.888490
25.600000	515.292765
25.610000	417.795962
25.620000	337.591313
25.630000	278.039851
25.640000	232.189341
25.650000	191.273319
25.660000	147.116975
25.670000	101.863190
25.680000	57.706233
25.690000	18.118135
25.700000	-13.710302
25.710000	-35.634732
25.720000	-46.467656
25.730000	-46.730403
25.740000	-37.230491
25.750000	-20.502095
25.760000	1.670871
25.770000	28.390866
25.780000	58.901589
25.790000	94.618842
25.800000	133.117556
25.810000	173.847849
25.820000	215.661173
25.830000	259.077480
25.840000	304.534017
25.850000	351.634354
25.860000	400.070044
25.870000	449.520877
25.880000	498.265310
25.890000	548.080167
25.900000	600.790600
25.910000	655.628956
25.920000	696.604093
25.930000	686.115131
25.940000	603.460792
25.950000	454.003064
25.960000	273.397579
25.970000	92.207267
25.980000	-68.361035
25.990000	-199.291682
26.000000	-303.154434
26.010000	-387.808085
26.020000	-458.610521
26.030000	-514.309185
26.040000	-553.067816
26.050000	-578.160419
26.060000	-598.877688
26.070000	-622.007447
26.080000	-647.671866
26.090000	-674.519650
26.100000	-703.140535
26.110000	-727.349004
26.120000	-745.290122
26.130000	-752.841079
26.140000	-751.791484
26.150000	-739.322616
26.160000	-712.628244
26.170000	-675.156602
26.180000	-629.464397
26.190000	-578.994762
26.200000	-525.631231
26.210000	-469.162022
26.220000	-413.811659
26.230000	-360.989509
26.240000	-316.338219
26.250000	-278.799641
26.260000	-248.201470
26.270000	-217.591950
26.280000	-188.087551
26.290000	-156.038375
26.300000	-121.651299
26.310000	-85.820295
26.320000	-72.277917
26.330000	-117.637602
26.340000	-231.496874
26.350000	-399.388550
26.360000	-579.974962
26.370000	-754.200159
26.380000	-901.448087
26.390000	-1017.054759
26.400000	-1099.261553
26.410000	-1159.611431
26.420000	-1210.409156
26.430000	-1251.131416
26.440000	-1281.890208
26.450000	-1306.660197
26.460000	-1332.043141
26.470000	-1358.837506
26.480000	-1382.846614
26.490000	-1402.352336
26.500000	-1412.973263
26.510000	-1401.840781
26.520000	-1368.798178
26.530000	-1318.004181
26.540000	-1258.967299
26.550000	-1195.146880
26.560000	-1123.781641
26.570000	-1051.310204
26.580000	-985.260709
26.590000	-931.797889
26.600000	-888.042740
26.610000	-842.255396
26.620000	-792.177992
26.630000	-733.367091
26.640000	-667.322766
26.650000	-594.468697
26.660000	-517.800470
26.670000	-439.226175
26.680000	-354.586693
26.690000	-262.984115
26.700000	-164.700646
26.710000	-63.408838
26.720000	24.827583
26.730000	67.464411
26.740000	41.726233
26.750000	-49.247218
26.760000	-173.952917
26.770000	-304.624458
26.780000	-419.303011
26.790000	-508.022607
26.800000	-569.330767
26.810000	-608.092026
26.820000	-630.014396
26.830000	-635.466637
26.840000	-622.678303
26.850000	-595.509157
26.860000	-562.340028
26.870000	-532.873660
26.880000	-508.296328
26.890000	-485.878319
26.900000	-462.903184
26.910000	-435.530013
26.920000	-402.500190
26.930000	-361.829036
26.940000	-315.089219
26.950000	-260.768097
26.960000	-199.666038
26.970000	-132.019970
26.980000	-60.897914
26.990000	11.751029
27.000000	86.564195
27.010000	162.872402
27.020000	240.047459
27.030000	314.339993
27.040000	387.233634
27.050000	459.160311
27.060000	529.773696
27.070000	598.670238
27.080000	666.673967
27.090000	737.545467
27.100000	809.917789
27.110000	882.111200
27.120000	954.191489
27.130000	1015.673420
27.140000	1037.439861
27.150000	995.275320
27.160000	886.440468
27.170000	737.985984
27.180000	579.475274
27.190000	435.376967
27.200000	320.177319
27.210000	235.427419
27.220000	176.223637
27.230000	134.832435
27.240000	108.646704
27.250000	98.275954
27.260000	100.422374
27.270000	105.733175
27.280000	104.895482
27.290000	95.908137
27.300000	83.752422
27.310000	72.111182
27.320000	65.978273
27.330000	68.006768
27.340000	79.900816
27.350000	98.923113
27.360000	122.523823
27.370000	149.877803
27.380000	184.191838
27.390000	224.856268
27.400000	269.556416
27.410000	316.203589
27.420000	363.959651
27.430000	414.927864
27.440000	467.722494
27.450000	523.361579
27.460000	579.512619
27.470000	637.174570
27.480000	694.331562
27.490000	753.036135
27.500000	813.850777
27.510000	876.600334
27.520000	937.732330
27.530000	984.176957
27.540000	987.276581
27.550000	926.815884
27.560000	806.258583
27.570000	656.904241
27.580000	508.275605
27.590000	377.331573
27.600000	273.980324
27.610000	203.119115
27.620000	165.046625
27.630000	152.259680
27.640000	164.173284
27.650000	197.768486
27.660000	249.339885
27.670000	306.294943
27.680000	358.221434
27.690000	402.552140
27.700000	439.486671
27.710000	471.191052
27.720000	502.469026
27.730000	534.864439
27.740000	571.165110
27.750000	611.574590
27.760000	657.909701
27.770000	711.327213
27.780000	770.023984
27.790000	830.787321
27.800000	891.519550
27.810000	950.961476
27.820000	1010.734960
27.830000	1070.509047
27.840000	1129.996109
27.850000	1189.102940
27.860000	1249.307524
27.870000	1310.739235
27.880000	1373.331321
27.890000	1438.091542
27.900000	1507.071175
27.910000	1580.819704
27.920000	1657.183700
27.930000	1725.905808
27.940000	1758.961053
27.950000	1729.709428
27.960000	1632.175616
27.970000	1488.637831
27.980000	1329.459621
27.990000	1180.935670
28.000000	1057.090569
28.010000	964.259726
28.020000	895.064538
28.030000	842.298285
28.040000	798.084037
28.050000	764.077062
28.060000	743.488505
28.070000	730.879432
28.080000	715.926895
28.090000	692.072791
28.100000	665.113173
28.110000	638.640693
28.120000	615.344196
28.130000	593.911460
28.140000	575.295252
28.150000	559.560222
28.160000	544.955039
28.170000	531.594441
28.180000	520.998961
28.190000	517.015263
28.200000	522.754347
28.210000	542.486019
28.220000	580.222373
28.230000	636.995196
28.240000	703.374864
28.250000	772.892289
28.260000	842.917598
28.270000	913.843962
28.280000	984.502225
28.290000	1053.842046
28.300000	1124.476226
28.310000	1196.880127
28.320000	1272.832893
28.330000	1348.949653
28.340000	1414.548346
28.350000	1437.004268
28.360000	1396.343754
28.370000	1291.154914
28.380000	1147.593095
28.390000	993.688755
28.400000	850.868830
28.410000	735.252359
28.420000	649.150786
28.430000	589.177591
28.440000	545.458664
28.450000	514.831454
28.460000	498.488488
28.470000	497.862410
28.480000	503.531379
28.490000	506.604149
28.500000	503.297399
28.510000	497.074661
28.520000	492.441584
28.530000	490.912023
28.540000	494.963244
28.550000	505.452858
28.560000	523.526705
28.570000	551.704895
28.580000	587.450119
28.590000	628.665062
28.600000	675.753734
28.610000	726.323952
28.620000	780.102639
28.630000	833.680095
28.640000	888.169560
28.650000	943.404703
28.660000	998.272243
28.670000	1053.505790
28.680000	1108.408775
28.690000	1162.645343
28.700000	1214.913151
28.710000	1266.495515
28.720000	1319.456199
28.730000	1373.709313
28.740000	1426.694978
28.750000	1457.909340
28.760000	1436.607454
28.770000	1345.848743
28.780000	1195.294081
28.790000	1016.549125
28.800000	838.339782
28.810000	682.597432
28.820000	559.051487
28.830000	464.977310
28.840000	392.113347
28.850000	334.060583
28.860000	291.893595
28.870000	266.841719
28.880000	252.683727
28.890000	237.971755
28.900000	216.183548
28.910000	189.822312
28.920000	163.384143
28.930000	139.696488
28.940000	118.938567
28.950000	101.598848
28.960000	89.523620
28.970000	84.193332
28.980000	85.797821
28.990000	93.477190
29.000000	107.433424
29.010000	127.451282
29.020000	152.758439
29.030000	184.120099
29.040000	220.435055
29.050000	260.812447
29.060000	303.130802
29.070000	348.870087
29.080000	401.186107
29.090000	460.942605
29.100000	526.588837
29.110000	584.669365
29.120000	605.299593
29.130000	563.428759
29.140000	455.087146
29.150000	304.617681
29.160000	143.244896
29.170000	-6.533208
29.180000	-128.932108
29.190000	-222.038985
29.200000	-288.438729
29.210000	-334.205416
29.220000	-361.920632
29.230000	-372.686462
29.240000	-374.072781
29.250000	-375.826434
29.260000	-385.873339
29.270000	-403.596816
29.280000	-424.651321
29.290000	-445.022898
29.300000	-457.743099
29.310000	-461.787667
29.320000	-454.486499
29.330000	-438.891409
29.340000	-413.875455
29.350000	-378.319312
29.360000	-332.258829
29.370000	-278.747182
29.380000	-222.639264
29.390000	-164.154865
29.400000	-103.345544
29.410000	-39.219750
29.420000	26.948126
29.430000	96.060422
29.440000	165.905229
29.450000	239.693717
29.460000	317.190667
29.470000	395.991761
29.480000	451.418537
29.490000	451.272330
29.500000	380.028283
29.510000	250.967659
29.520000	98.364224
29.530000	-48.683128
29.540000	-175.003769
29.550000	-278.034664
29.560000	-370.079159
29.570000	-462.383637
29.580000	-553.453667
29.590000	-634.380128
29.600000	-694.157402
29.610000	-739.092921
29.620000	-776.533168
29.630000	-817.485369
29.640000	-861.547618
29.650000	-906.543376
29.660000	-945.887468
29.670000	-977.284410
29.680000	-999.234479
29.690000	-1009.027488
29.700000	-1004.254740
29.710000	-987.456961
29.720000	-960.947550
29.730000	-924.887395
29.740000	-878.311169
29.750000	-823.668133
29.760000	-766.357496
29.770000	-708.448006
29.780000	-654.084817
29.790000	-607.570603
29.800000	-576.162873
29.810000	-561.019393
29.820000	-565.590494
29.830000	-578.437540
29.840000	-590.702435
29.850000	-601.889534
29.860000	-641.574822
29.870000	-739.018816
29.880000	-895.716069
29.890000	-1086.420068
29.900000	-1276.510611
29.910000	-1445.873822
29.920000	-1580.334401
29.930000	-1673.696031
29.940000	-1722.512546
29.950000	-1735.565545
29.960000	-1728.055617
29.970000	-1710.436214
29.980000	-1688.266324
29.990000	-1672.335871
30.000000	-1668.143987
30.010000	-1675.568432
30.020000	-1689.021827
30.030000	-1706.158584
30.040000	-1725.584457
30.050000	-1738.076224
30.060000	-1740.512974
30.070000	-1732.684443
30.080000	-1720.474261
30.090000	-1707.636281
30.100000	-1692.436703
30.110000	-1668.926184
30.120000	-1630.747739
30.130000	-1567.889155
30.140000	-1481.104839
30.150000	-1377.218662
30.160000	-1274.175714
30.170000	-1180.204734
30.180000	-1093.569149
30.190000	-1009.532502
30.200000	-922.309636
30.210000	-830.555722
30.220000	-732.398583
30.230000	-625.928726
30.240000	-521.872094
30.250000	-444.689282
30.260000	-425.714277
30.270000	-467.052649
30.280000	-547.174592
30.290000	-650.114302
30.300000	-763.995763
30.310000	-883.543656
30.320000	-1000.491568
30.330000	-1108.995788
30.340000	-1204.005610
30.350000	-1283.472152
30.360000	-1345.870333
30.370000	-1388.628130
30.380000	-1403.401598
30.390000	-1404.194448
30.400000	-1410.296231
30.410000	-1428.074004
30.420000	-1445.488914
30.430000	-1450.635726
30.440000	-1441.055864
30.450000	-1427.247868
30.460000	-1420.640035
30.470000	-1421.176297
30.480000	-1418.543683
30.490000	-1398.106979
30.500000	-1357.160688
30.510000	-1302.744811
30.520000	-1242.793650
30.530000	-1183.725085
30.540000	-1121.744938
30.550000	-1055.391233
30.560000	-990.060951
30.570000	-929.063946
30.580000	-872.714104
30.590000	-816.735821
30.600000	-763.396722
30.610000	-718.428424
30.620000	-676.058674
30.630000	-630.130612
30.640000	-578.742660
30.650000	-531.541233
30.660000	-505.790650
30.670000	-517.959109
30.680000	-576.492405
30.690000	-674.677505
30.700000	-790.493957
30.710000	-901.736913
30.720000	-988.509710
30.730000	-1035.483067
30.740000	-1040.234780
30.750000	-1007.923568
30.760000	-958.005632
30.770000	-899.675379
30.780000	-838.773074
30.790000	-780.096430
30.800000	-730.551372
30.810000	-694.180976
30.820000	-664.304528
30.830000	-634.938027
30.840000	-602.400880
30.850000	-566.708372
30.860000	-526.830438
30.870000	-481.146104
30.880000	-429.599568
30.890000	-369.244093
30.900000	-304.724000
30.910000	-237.667839
30.920000	-169.849120
30.930000	-101.754589
30.940000	-28.960205
30.950000	46.140905
30.960000	123.603489
30.970000	202.368483
30.980000	282.840099
30.990000	364.930694
31.000000	446.407220
31.010000	525.497658
31.020000	603.988015
31.030000	682.064541
31.040000	761.578104
31.050000	842.631752
31.060000	919.825272
31.070000	971.159295
31.080000	971.068962
31.090000	911.408047
31.100000	806.046868
31.110000	684.373539
31.120000	567.677017
31.130000	473.670727
31.140000	407.280586
31.150000	367.293284
31.160000	346.543724
31.170000	338.928357
31.180000	343.497632
31.190000	358.571715
31.200000	378.116881
31.210000	392.549630
31.220000	398.765238
31.230000	399.221138
31.240000	398.096973
31.250000	397.231863
31.260000	400.112542
31.270000	409.587136
31.280000	427.806152
31.290000	451.273845
31.300000	478.853505
31.310000	510.310612
31.320000	547.588065
31.330000	589.687503
31.340000	635.002797
31.350000	681.077538
31.360000	727.773007
31.370000	778.159126
31.380000	831.549265
31.390000	884.917608
31.400000	932.334481
31.410000	973.040836
31.420000	1009.145055
31.430000	1039.840473
31.440000	1064.306933
31.450000	1068.288132
31.460000	1035.481698
31.470000	961.788055
31.480000	859.721074
31.490000	749.996380
31.500000	644.622633
31.510000	556.226047
31.520000	494.536093
31.530000	459.448771
31.540000	442.446714
31.550000	438.702098
31.560000	447.054742
31.570000	465.306770
31.580000	485.334215
31.590000	500.269470
31.600000	507.647209
31.610000	510.602499
31.620000	513.652459
31.630000	521.290767
31.640000	534.002176
31.650000	552.669109
31.660000	578.040676
31.670000	611.404911
31.680000	650.759613
31.690000	692.826841
31.700000	736.173401
31.710000	781.945789
31.720000	832.614236
31.730000	887.746984
31.740000	943.402451
31.750000	996.908817
31.760000	1049.558830
31.770000	1106.438461
31.780000	1167.057398
31.790000	1227.984305
31.800000	1277.891989
31.810000	1292.184842
31.820000	1250.763482
31.830000	1151.125004
31.840000	1014.725478
31.850000	866.432627
31.860000	725.697408
31.870000	608.422030
31.880000	517.658947
31.890000	450.085530
31.900000	400.640683
31.910000	366.780947
31.920000	350.326102
31.930000	344.143499
31.940000	343.041930
31.950000	337.519308
31.960000	327.475365
31.970000	312.920554
31.980000	297.945151
31.990000	288.351660
32.000000	284.759202
32.010000	290.482012
32.020000	303.584015
32.030000	324.978711
32.040000	351.422600
32.050000	381.839886
32.060000	418.629249
32.070000	461.385210
32.080000	508.524509
32.090000	558.288557
32.100000	610.783382
32.110000	666.217328
32.120000	723.731114
32.130000	782.170392
32.140000	840.704813
32.150000	900.821534
32.160000	961.362925
32.170000	1001.777712
32.180000	990.014375
32.190000	911.139110
32.200000	779.437556
32.210000	626.572985
32.220000	476.196744
32.230000	343.006873
32.240000	235.964701
32.250000	154.773109
32.260000	95.079213
32.270000	50.892456
32.280000	22.902928
32.290000	12.370803
32.300000	13.397663
32.310000	16.195728
32.320000	13.590080
32.330000	5.062688
32.340000	-7.520627
32.350000	-19.037834
32.360000	-24.608509
32.370000	-21.454063
32.380000	-11.018010
32.390000	7.492407
32.400000	32.923612
32.410000	66.468369
32.420000	105.210242
32.430000	147.804855
32.440000	193.521342
32.450000	243.502516
32.460000	299.523449
32.470000	358.877047
32.480000	418.881380
32.490000	478.612064
32.500000	539.935874
32.510000	604.368247
32.520000	670.671500
32.530000	737.479332
32.540000	796.409669
32.550000	818.889994
32.560000	779.511440
32.570000	674.046956
32.580000	527.715416
32.590000	369.568976
32.600000	220.919190
32.610000	96.761234
32.620000	1.782097
32.630000	-69.052574
32.640000	-123.341550
32.650000	-164.835468
32.660000	-188.754902
32.670000	-196.949847
32.680000	-200.172789
32.690000	-208.709837
32.700000	-226.219507
32.710000	-247.091543
32.720000	-268.922342
32.730000	-287.448920
32.740000	-300.612144
32.750000	-305.785788
32.760000	-302.622718
32.770000	-291.104866
32.780000	-271.281578
32.790000	-245.411573
32.800000	-212.580072
32.810000	-176.044880
32.820000	-135.851672
32.830000	-92.996177
32.840000	-49.107175
32.850000	-2.253311
32.860000	46.312844
32.870000	98.181513
32.880000	147.730421
32.890000	194.982427
32.900000	242.839707
32.910000	295.136247
32.920000	343.599302
32.930000	355.573206
32.940000	305.729004
32.950000	189.082569
32.960000	31.292602
32.970000	-134.370892
32.980000	-285.490800
32.990000	-407.162308
33.000000	-499.633271
33.010000	-567.282649
33.020000	-616.097862
33.030000	-648.377348
33.040000	-661.533643
33.050000	-661.480120
33.060000	-658.299043
33.070000	-660.563688
33.080000	-668.693759
33.090000	-679.957075
33.100000	-690.069448
33.110000	-694.668908
33.120000	-687.425143
33.130000	-669.386501
33.140000	-640.429858
33.150000	-605.102565
33.160000	-563.742056
33.170000	-516.470482
33.180000	-463.373326
33.190000	-403.822335
33.200000	-341.001016
33.210000	-275.820617
33.220000	-210.952926
33.230000	-146.464509
33.240000	-82.223769
33.250000	-16.089068
33.260000	49.840843
33.270000	114.302394
33.280000	175.250326
33.290000	225.359662
33.300000	237.619337
33.310000	187.771379
33.320000	71.723910
33.330000	-85.389842
33.340000	-251.806560
33.350000	-404.227613
33.360000	-526.677159
33.370000	-618.427325
33.380000	-684.550461
33.390000	-733.623476
33.400000	-768.394603
33.410000	-786.124771
33.420000	-786.900082
33.430000	-778.634498
33.440000	-771.064183
33.450000	-769.786490
33.460000	-771.858468
33.470000	-773.590074
33.480000	-769.635182
33.490000	-758.056659
33.500000	-736.063176
33.510000	-703.851730
33.520000	-661.811959
33.530000	-612.640038
33.540000	-558.546279
33.550000	-499.074527
33.560000	-435.271529
33.570000	-367.828135
33.580000	-299.322014
33.590000	-230.229310
33.600000	-159.688784
33.610000	-87.619203
33.620000	-15.045114
33.630000	56.001668
33.640000	126.620739
33.650000	198.972421
33.660000	274.297756
33.670000	352.954489
33.680000	429.639684
33.690000	482.237553
33.700000	475.292192
33.710000	396.598408
33.720000	259.696051
33.730000	102.707460
33.740000	-50.257861
33.750000	-179.849141
33.760000	-280.569038
33.770000	-355.414920
33.780000	-411.209867
33.790000	-454.966995
33.800000	-484.477768
33.810000	-498.507436
33.820000	-498.070828
33.830000	-493.392103
33.840000	-490.972545
33.850000	-492.916857
33.860000	-494.841881
33.870000	-495.769675
33.880000	-491.688198
33.890000	-479.944808
33.900000	-458.521437
33.910000	-427.443995
33.920000	-389.012622
33.930000	-342.920978
33.940000	-290.158906
33.950000	-231.716083
33.960000	-168.957592
33.970000	-104.164990
33.980000	-36.064376
33.990000	33.727055
34.000000	105.182190
34.010000	177.298829
34.020000	251.116862
34.030000	324.210337
34.040000	396.407065
34.050000	467.471098
34.060000	538.717707
34.070000	612.417410
34.080000	688.705493
34.090000	770.387473
34.100000	849.012184
34.110000	904.007468
34.120000	902.301162
34.130000	830.030233
34.140000	700.347738
34.150000	544.452673
34.160000	389.065499
34.170000	252.535646
34.180000	145.445487
34.190000	65.934701
34.200000	6.493579
34.210000	-40.649981
34.220000	-74.082755
34.230000	-92.551394
34.240000	-97.984091
34.250000	-101.460844
34.260000	-109.522496
34.270000	-122.335626
34.280000	-137.035385
34.290000	-149.857382
34.300000	-157.198127
34.310000	-155.027343
34.320000	-144.357396
34.330000	-126.848392
34.340000	-103.497449
34.350000	-72.978963
34.360000	-35.958836
34.370000	7.576507
34.380000	53.920439
34.390000	103.159982
34.400000	154.481532
34.410000	207.094517
34.420000	260.059919
34.430000	312.379962
34.440000	367.000244
34.450000	421.668941
34.460000	474.960679
34.470000	525.977237
34.480000	576.947601
34.490000	629.635511
34.500000	683.947364
34.510000	739.644681
34.520000	798.303418
34.530000	856.658537
34.540000	892.291519
34.550000	872.996833
34.560000	783.677927
34.570000	639.770291
34.580000	475.132890
34.590000	315.539477
34.600000	175.240780
34.610000	60.304067
34.620000	-27.645679
34.630000	-92.929853
34.640000	-142.855882
34.650000	-177.459376
34.660000	-195.377852
34.670000	-200.652709
34.680000	-203.565959
34.690000	-210.484315
34.700000	-224.393833
34.710000	-242.950358
34.720000	-259.859960
34.730000	-265.723662
34.740000	-259.999558
34.750000	-248.162657
34.760000	-228.435083
34.770000	-197.580176
34.780000	-155.194269
34.790000	-106.997072
34.800000	-55.259888
34.810000	2.616827
34.820000	68.021908
34.830000	137.902591
34.840000	210.658412
34.850000	283.535896
34.860000	356.653502
34.870000	427.846950
34.880000	499.678912
34.890000	573.505343
34.900000	649.050473
34.910000	727.852663
34.920000	804.754228
34.930000	860.846101
34.940000	866.779830
34.950000	807.562781
34.960000	696.901357
34.970000	564.005762
34.980000	435.365742
34.990000	331.449141
35.000000	254.129265
35.010000	197.889031
35.020000	153.231932
35.030000	117.029751
35.040000	94.708029
35.050000	85.837588
35.060000	83.181887
35.070000	72.977216
35.080000	42.675394
35.090000	-9.838263
35.100000	-77.456272
35.110000	-144.280174
35.120000	-195.240869
35.130000	-222.726627
35.140000	-227.365563
35.150000	-209.824057
35.160000	-169.805221
35.170000	-111.919311
35.180000	-47.915567
35.190000	3.314672
35.200000	35.022890
35.210000	46.246600
35.220000	48.009589
35.230000	47.182374
35.240000	50.678260
35.250000	58.781729
35.260000	68.352578
35.270000	80.073235
35.280000	97.048467
35.290000	125.387845
35.300000	165.075647
35.310000	216.384625
35.320000	277.779168
35.330000	339.707290
35.340000	366.425248
35.350000	330.066012
35.360000	224.478653
35.370000	79.537949
35.380000	-75.121080
35.390000	-216.327094
35.400000	-329.062517
35.410000	-411.882138
35.420000	-468.337148
35.430000	-506.101389
35.440000	-529.254867
35.450000	-533.617651
35.460000	-521.844458
35.470000	-500.464388
35.480000	-482.438280
35.490000	-472.274536
35.500000	-465.995477
35.510000	-461.409660
35.520000	-453.866039
35.530000	-444.547644
35.540000	-434.389468
35.550000	-429.687274
35.560000	-427.875523
35.570000	-429.489088
35.580000	-432.675388
35.590000	-435.611383
35.600000	-430.445792
35.610000	-412.395894
35.620000	-383.221310
35.630000	-344.500408
35.640000	-296.981734
35.650000	-243.598122
35.660000	-189.736113
35.670000	-138.677282
35.680000	-92.140103
35.690000	-49.737907
35.700000	-4.513302
35.710000	53.890206
35.720000	124.762498
35.730000	197.169625
35.740000	241.332585
35.750000	213.757413
35.760000	85.956581
35.770000	-130.866437
35.780000	-385.964810
35.790000	-629.814320
35.800000	-833.931344
35.810000	-990.138671
35.820000	-1102.920019
35.830000	-1184.137321
35.840000	-1245.562475
35.850000	-1291.435967
35.860000	-1316.499504
35.870000	-1320.402060
35.880000	-1315.124336
35.890000	-1311.686069
35.900000	-1310.707775
35.910000	-1308.278074
35.920000	-1299.609183
35.930000	-1283.533655
35.940000	-1259.499162
35.950000	-1226.441285
35.960000	-1184.378803
35.970000	-1132.667005
35.980000	-1075.257533
35.990000	-1012.535938
36.000000	-944.454616
36.010000	-871.726365
36.020000	-797.310466
36.030000	-723.233345
36.040000	-649.145416
36.050000	-574.725870
36.060000	-499.298024
36.070000	-425.211842
36.080000	-349.755024
36.090000	-271.686643
36.100000	-190.532073
36.110000	-109.823546
36.120000	-30.619910
36.130000	51.069352
36.140000	134.294800
36.150000	199.260119
36.160000	211.519090
36.170000	154.850941
36.180000	39.833832
36.190000	-101.147983
36.200000	-244.190847
36.210000	-370.476824
36.220000	-470.222774
36.230000	-541.810343
36.240000	-590.254990
36.250000	-622.798525
36.260000	-639.582731
36.270000	-641.771013
36.280000	-634.569544
36.290000	-627.737105
36.300000	-625.187867
36.310000	-627.006699
36.320000	-632.116806
36.330000	-637.250533
36.340000	-638.022712
36.350000	-630.141100
36.360000	-612.918100
36.370000	-587.683222
36.380000	-554.789920
36.390000	-516.877162
36.400000	-473.632262
36.410000	-425.718831
36.420000	-374.120279
36.430000	-319.537601
36.440000	-263.922686
36.450000	-206.660015
36.460000	-149.709269
36.470000	-93.755769
36.480000	-38.135388
36.490000	17.838894
36.500000	77.803881
36.510000	140.444174
36.520000	206.105529
36.530000	258.361468
36.540000	269.400919
36.550000	217.988764
36.560000	109.127240
36.570000	-30.966543
36.580000	-173.112247
36.590000	-299.593694
36.600000	-398.674923
36.610000	-469.223140
36.620000	-518.232833
36.630000	-551.488576
36.640000	-572.089081
36.650000	-575.705725
36.660000	-567.944454
36.670000	-557.569779
36.680000	-554.106533
36.690000	-558.046691
36.700000	-565.226538
36.710000	-572.496812
36.720000	-575.647092
36.730000	-571.252257
36.740000	-553.697831
36.750000	-521.655368
36.760000	-477.728289
36.770000	-427.368243
36.780000	-376.728969
36.790000	-328.706815
36.800000	-284.024670
36.810000	-242.008886
36.820000	-199.614201
36.830000	-155.281723
36.840000	-105.832303
36.850000	-50.861542
36.860000	4.635734
36.870000	49.910803
36.880000	59.431465
36.890000	17.411879
36.900000	-81.040592
36.910000	-215.314373
36.920000	-359.127455
36.930000	-492.354248
36.940000	-603.200247
36.950000	-693.059727
36.960000	-765.909175
36.970000	-823.721738
36.980000	-866.240331
36.990000	-889.334447
37.000000	-900.564579
37.010000	-907.908925
37.020000	-917.844960
37.030000	-927.083125
37.040000	-933.421164
37.050000	-938.226251
37.060000	-939.948088
37.070000	-935.323007
37.080000	-915.083123
37.090000	-884.082747
37.100000	-845.504016
37.110000	-803.134182
37.120000	-753.527987
37.130000	-696.817956
37.140000	-637.519407
37.150000	-575.443784
37.160000	-507.791521
37.170000	-434.029924
37.180000	-358.029363
37.190000	-281.229234
37.200000	-202.546334
37.210000	-126.730164
37.220000	-77.066022
37.230000	-80.525898
37.240000	-146.822521
37.250000	-260.202106
37.260000	-397.174394
37.270000	-534.829398
37.280000	-656.826668
37.290000	-755.763125
37.300000	-836.460601
37.310000	-910.997724
37.320000	-980.010231
37.330000	-1040.168068
37.340000	-1083.827493
37.350000	-1110.971677
37.360000	-1124.263927
37.370000	-1124.046878
37.380000	-1116.995201
37.390000	-1118.756982
37.400000	-1137.649400
37.410000	-1169.374960
37.420000	-1198.882704
37.430000	-1217.284618
37.440000	-1220.737391
37.450000	-1207.807857
37.460000	-1181.209852
37.470000	-1143.603415
37.480000	-1095.949526
37.490000	-1041.008530
37.500000	-980.958275
37.510000	-919.354160
37.520000	-853.887029
37.530000	-783.639100
37.540000	-710.424814
37.550000	-637.194718
37.560000	-563.553661
37.570000	-493.361629
37.580000	-448.330498
37.590000	-455.140493
37.600000	-530.678087
37.610000	-660.095858
37.620000	-813.915156
37.630000	-959.304347
37.640000	-1079.457907
37.650000	-1172.481449
37.660000	-1242.611140
37.670000	-1295.588978
37.680000	-1331.006411
37.690000	-1344.276594
37.700000	-1334.669796
37.710000	-1315.258922
37.720000	-1299.924810
37.730000	-1291.800406
37.740000	-1282.736771
37.750000	-1270.946545
37.760000	-1262.824295
37.770000	-1263.006848
37.780000	-1263.796157
37.790000	-1247.624144
37.800000	-1210.054064
37.810000	-1164.874008
37.820000	-1127.564993
37.830000	-1096.323960
37.840000	-1059.629303
37.850000	-1014.710527
37.860000	-963.618601
37.870000	-907.338403
37.880000	-838.494993
37.890000	-758.232213
37.900000	-684.659661
37.910000	-635.031153
37.920000	-602.665201
37.930000	-563.354361
37.940000	-510.624307
37.950000	-467.328768
37.960000	-471.194024
37.970000	-534.468740
37.980000	-646.602439
37.990000	-776.786830
38.000000	-904.271338
38.010000	-1014.687740
38.020000	-1098.183691
38.030000	-1152.840580
38.040000	-1185.683162
38.050000	-1210.573830
38.060000	-1234.390815
38.070000	-1260.523923
38.080000	-1287.310067
38.090000	-1309.689209
38.100000	-1320.781215
38.110000	-1316.083617
38.120000	-1298.160049
38.130000	-1271.704500
38.140000	-1237.748453
38.150000	-1201.555635
38.160000	-1165.212413
38.170000	-1132.962626
38.180000	-1104.546242
38.190000	-1074.570057
38.200000	-1038.094815
38.210000	-989.387760
38.220000	-932.548457
38.230000	-865.398556
38.240000	-788.886624
38.250000	-703.616603
38.260000	-614.777838
38.270000	-528.710515
38.280000	-445.523555
38.290000	-369.686932
38.300000	-296.780955
38.310000	-229.551364
38.320000	-158.872987
38.330000	-83.637285
38.340000	-1.827559
38.350000	72.702610
38.360000	109.308927
38.370000	82.862598
38.380000	-8.016645
38.390000	-134.754657
38.400000	-264.856526
38.410000	-380.603137
38.420000	-476.252175
38.430000	-550.986910
38.440000	-607.177232
38.450000	-637.864609
38.460000	-638.961943
38.470000	-611.607308
38.480000	-574.644810
38.490000	-542.853909
38.500000	-522.819107
38.510000	-504.902092
38.520000	-483.850452
38.530000	-458.471955
38.540000	-435.746964
38.550000	-422.215516
38.560000	-414.456541
38.570000	-404.452392
38.580000	-380.995476
38.590000	-345.561065
38.600000	-301.375023
38.610000	-260.528731
38.620000	-222.219301
38.630000	-179.311317
38.640000	-127.235105
38.650000	-68.944545
38.660000	-13.763881
38.670000	42.297827
38.680000	97.531888
38.690000	155.061507
38.700000	215.663754
38.710000	283.344432
38.720000	355.956934
38.730000	412.755654
38.740000	434.434615
38.750000	413.380701
38.760000	363.821822
38.770000	301.193094
38.780000	239.055735
38.790000	188.184172
38.800000	152.123952
38.810000	131.021223
38.820000	117.026668
38.830000	112.410343
38.840000	118.117834
38.850000	133.989661
38.860000	154.388335
38.870000	168.750978
38.880000	176.883987
38.890000	181.050189
38.900000	186.252788
38.910000	193.872883
38.920000	206.158542
38.930000	225.899441
38.940000	254.263356
38.950000	288.787345
38.960000	325.570006
38.970000	362.219649
38.980000	400.095007
38.990000	438.187965
39.000000	475.162749
39.010000	514.046364
39.020000	559.113139
39.030000	619.130779
39.040000	680.216107
39.050000	724.754179
39.060000	744.896242
39.070000	749.976221
39.080000	767.512202
39.090000	806.701587
39.100000	861.307171
39.110000	894.231346
39.120000	876.013349
39.130000	801.385528
39.140000	691.350726
39.150000	565.094831
39.160000	436.902479
39.170000	321.032957
39.180000	232.352511
39.190000	170.827821
39.200000	123.331954
39.210000	83.541124
39.220000	57.245468
39.230000	50.490304
39.240000	54.688345
39.250000	54.658635
39.260000	45.063228
39.270000	28.086975
39.280000	7.683355
39.290000	-8.900877
39.300000	-19.133662
39.310000	-17.971653
39.320000	-8.729080
39.330000	13.559239
39.340000	52.251056
39.350000	102.649018
39.360000	158.475571
39.370000	219.338054
39.380000	290.299203
39.390000	370.596263
39.400000	452.356184
39.410000	532.454761
39.420000	609.673345
39.430000	683.237123
39.440000	750.910165
39.450000	807.268759
39.460000	861.111764
39.470000	916.881826
39.480000	977.570451
39.490000	1027.372011
39.500000	1036.587388
39.510000	989.832248
39.520000	887.913853
39.530000	756.292900
39.540000	619.839037
39.550000	502.351926
39.560000	417.338229
39.570000	362.637827
39.580000	327.417795
39.590000	304.873273
39.600000	292.448465
39.610000	289.053129
39.620000	291.414472
39.630000	295.506527
39.640000	294.983998
39.650000	290.255974
39.660000	280.495234
39.670000	267.959939
39.680000	253.950820
39.690000	242.619652
39.700000	239.358664
39.710000	246.554223
39.720000	262.372294
39.730000	279.759433
39.740000	293.677361
39.750000	308.610960
39.760000	335.621576
39.770000	376.392068
39.780000	428.176553
39.790000	482.113557
39.800000	540.720877
39.810000	605.792064
39.820000	675.548641
39.830000	745.089483
39.840000	811.343156
39.850000	877.700609
39.860000	946.765693
39.870000	1020.273756
39.880000	1085.781243
39.890000	1113.097660
39.900000	1081.456381
39.910000	992.952258
39.920000	877.175798
39.930000	758.762859
39.940000	654.845062
39.950000	578.533715
39.960000	532.457666
39.970000	514.598101
39.980000	513.016815
39.990000	527.335517
40.000000	557.552432
40.010000	599.036468
40.020000	640.714084
40.030000	677.732379
40.040000	711.872638
40.050000	745.074876
40.060000	779.010737
40.070000	817.069832
40.080000	864.134799
40.090000	921.036308
40.100000	989.578296
40.110000	1066.640125
40.120000	1150.009256
40.130000	1232.215232
40.140000	1313.781992
40.150000	1393.105060
40.160000	1470.213855
40.170000	1544.983168
40.180000	1618.638858
40.190000	1698.869169
40.200000	1782.023566
40.210000	1867.755787
40.220000	1952.725609
40.230000	2038.983442
40.240000	2127.752272
40.250000	2218.533912
40.260000	2309.102368
40.270000	2379.698358
40.280000	2405.100203
40.290000	2372.894655
40.300000	2293.491307
40.310000	2192.798002
40.320000	2093.204449
40.330000	2010.014123
40.340000	1949.893295
40.350000	1913.881392
40.360000	1898.904610
40.370000	1897.738179
40.380000	1908.933180
40.390000	1932.266852
40.400000	1963.620016
40.410000	1992.447280
40.420000	2013.324080
40.430000	2026.647274
40.440000	2037.712242
40.450000	2049.177723
40.460000	2065.443258
40.470000	2087.370224
40.480000	2116.180716
40.490000	2150.561550
40.500000	2189.257781
40.510000	2231.427099
40.520000	2276.007630
40.530000	2325.643164
40.540000	2379.087401
40.550000	2436.203137
40.560000	2493.499063
40.570000	2550.780159
40.580000	2607.919117
40.590000	2666.704177
40.600000	2728.680418
40.610000	2793.966355
40.620000	2854.427944
40.630000	2887.531337
40.640000	2870.183065
40.650000	2800.162875
40.660000	2696.004491
40.670000	2585.495859
40.680000	2485.471905
40.690000	2405.819188
40.700000	2349.596670
40.710000	2312.799212
40.720000	2293.068701
40.730000	2289.124902
40.740000	2301.555182
40.750000	2326.113237
40.760000	2353.704187
40.770000	2377.115824
40.780000	2391.869673
40.790000	2399.811295
40.800000	2406.052841
40.810000	2414.177791
40.820000	2428.245706
40.830000	2449.544882
40.840000	2481.118063
40.850000	2523.579764
40.860000	2574.990972
40.870000	2636.630805
40.880000	2702.183416
40.890000	2773.711645
40.900000	2848.368867
40.910000	2928.145286
40.920000	3011.550616
40.930000	3096.583033
40.940000	3175.388106
40.950000	3222.978491
40.960000	3223.254372
40.970000	3176.756935
40.980000	3106.185002
40.990000	3033.202247
41.000000	2975.774709
41.010000	2938.613220
41.020000	2924.026031
41.030000	2925.668103
41.040000	2941.623307
41.050000	2972.396183
41.060000	3016.882119
41.070000	3068.441073
41.080000	3115.792905
41.090000	3153.499412
41.100000	3183.387047
41.110000	3210.228559
41.120000	3238.308525
41.130000	3271.283934
41.140000	3311.553753
41.150000	3358.323644
41.160000	3411.459782
41.170000	3470.687815
41.180000	3535.021207
41.190000	3602.372130
41.200000	3672.576881
41.210000	3747.048849
41.220000	3827.787989
41.230000	3911.363535
41.240000	3996.657371
41.250000	4072.301005
41.260000	4111.467556
41.270000	4095.576683
41.280000	4022.303552
41.290000	3919.247963
41.300000	3810.776302
41.310000	3714.545315
41.320000	3639.869479
41.330000	3584.787184
41.340000	3549.609846
41.350000	3527.983798
41.360000	3522.011906
41.370000	3533.817659
41.380000	3565.717055
41.390000	3615.607292
41.400000	3665.678965
41.410000	3709.393085
41.420000	3743.614042
41.430000	3777.508410
41.440000	3811.151795
41.450000	3844.248907
41.460000	3880.993255
41.470000	3923.941450
41.480000	3972.113350
41.490000	4026.593129
41.500000	4090.190075
41.510000	4163.522414
41.520000	4244.875725
41.530000	4330.392830
41.540000	4418.847273
41.550000	4506.867657
41.560000	4589.422836
41.570000	4646.909276
41.580000	4653.920825
41.590000	4600.931059
41.600000	4506.096219
41.610000	4396.911326
41.620000	4292.847175
41.630000	4207.805303
41.640000	4145.162943
41.650000	4102.608725
41.660000	4073.389572
41.670000	4053.340280
41.680000	4046.892110
41.690000	4055.647612
41.700000	4080.306939
41.710000	4111.506603
41.720000	4141.302804
41.730000	4167.623336
41.740000	4191.880977
41.750000	4215.978582
41.760000	4244.033468
41.770000	4279.899046
41.780000	4324.742205
41.790000	4376.371569
41.800000	4433.345248
41.810000	4496.740861
41.820000	4564.828002
41.830000	4639.337966
41.840000	4716.511502
41.850000	4796.492441
41.860000	4877.400220
41.870000	4963.873033
41.880000	5054.812130
41.890000	5145.112274
41.900000	5218.393401
41.910000	5245.848357
41.920000	5213.878027
41.930000	5126.491631
41.940000	5017.299999
41.950000	4910.629296
41.960000	4822.215417
41.970000	4756.917912
41.980000	4713.291431
41.990000	4687.040336
42.000000	4672.201527
42.010000	4664.335941
42.020000	4671.645640
42.030000	4691.765423
42.040000	4721.915093
42.050000	4751.329670
42.060000	4780.034394
42.070000	4808.044256
42.080000	4836.637660
42.090000	4868.239247
42.100000	4908.055890
42.110000	4955.890088
42.120000	5011.274078
42.130000	5069.326146
42.140000	5132.974333
42.150000	5199.871580
42.160000	5274.814621
42.170000	5353.174721
42.180000	5438.123078
42.190000	5522.893765
42.200000	5611.233355
42.210000	5699.361466
42.220000	5792.133027
42.230000	5881.890124
42.240000	5973.826268
42.250000	6061.140352
42.260000	6155.654711
42.270000	6246.408223
42.280000	6332.253125
42.290000	6368.963553
42.300000	6353.700373
42.310000	6270.547476
42.320000	6171.728590
42.330000	6058.046588
42.340000	5973.928942
42.350000	5897.077272
42.360000	5855.645191
42.370000	5806.618933
42.380000	5767.897597
42.390000	5691.678036
42.400000	5571.624133
42.410000	5198.870083
42.420000	4486.432164
42.430000	3291.932228
42.440000	1478.462618
42.450000	-754.170010
42.460000	-5057.672383
42.470000	-7484.837601
42.480000	-7504.729116
42.490000	274.062554
42.500000	12111.593103
42.510000	15647.565189
42.520000	15108.298862
42.530000	11542.090144
42.540000	6218.648588
42.550000	1593.817196
42.560000	-848.140345
42.570000	-2675.124666
42.580000	-2529.064867
42.590000	-2017.385894
42.600000	-1661.081345
42.610000	-1872.170293
42.620000	-2514.465879
42.630000	-3757.851234
42.640000	-6177.247446
42.650000	-8019.417700
42.660000	-8721.876273
42.670000	-9103.216325
42.680000	-9326.089411
42.690000	-9562.865004
42.700000	-9709.320046
42.710000	-9810.037317
42.720000	-9822.764798
42.730000	-9848.727277
42.740000	-9851.960561
42.750000	-9882.451960
42.760000	-9896.368068
42.770000	-9879.397875
42.780000	-9735.361517
42.790000	-9503.196294
42.800000	-9224.514239
42.810000	-8999.310800
42.820000	-8811.173384
42.830000	-8655.286995
42.840000	-8506.610444
42.850000	-8373.859618
42.860000	-8244.162113
42.870000	-8120.987832
42.880000	-7983.828714
42.890000	-7840.377659
42.900000	-7688.990478
42.910000	-7538.988344
42.920000	-7383.969682
42.930000	-7219.802390
42.940000	-7043.819828
42.950000	-6860.171818
42.960000	-6667.193696
42.970000	-6472.442587
42.980000	-6273.753153
42.990000	-6085.306783
43.000000	-5902.479016
43.010000	-5728.413196
43.020000	-5557.404245
43.030000	-5390.431052
43.040000	-5230.898603
43.050000	-5087.361529
43.060000	-4983.669425
43.070000	-4936.509402
43.080000	-4945.299132
43.090000	-4989.511360
43.100000	-5042.824306
43.110000	-5091.795898
43.120000	-5128.280355
43.130000	-5151.352352
43.140000	-5162.998880
43.150000	-5164.162777
43.160000	-5154.640091
43.170000	-5134.903192
43.180000	-5108.887879
43.190000	-5083.250376
43.200000	-5060.392144
43.210000	-5041.197057
43.220000	-5023.828072
43.230000	-5006.752483
43.240000	-4987.203928
43.250000	-4965.261082
43.260000	-4939.857342
43.270000	-4909.718463
43.280000	-4871.122001
43.290000	-4825.810741
43.300000	-4773.669999
43.310000	-4719.206010
43.320000	-4662.163714
43.330000	-4603.565379
43.340000	-4544.286053
43.350000	-4484.553739
43.360000	-4425.376345
43.370000	-4363.497882
43.380000	-4297.774923
43.390000	-4229.419271
43.400000	-4160.147262
43.410000	-4089.976610
43.420000	-4021.502176
43.430000	-3965.867780
43.440000	-3945.533350
43.450000	-3971.373780
43.460000	-4035.160148
43.470000	-4113.821865
43.480000	-4188.783537
43.490000	-4249.945510
43.500000	-4294.079424
43.510000	-4320.731722
43.520000	-4333.709919
43.530000	-4334.168148
43.540000	-4320.658675
43.550000	-4297.279760
43.560000	-4271.945717
43.570000	-4251.717992
43.580000	-4236.877563
43.590000	-4221.470297
43.600000	-4205.825610
43.610000	-4188.216950
43.620000	-4166.774282
43.630000	-4137.626792
43.640000	-4099.399468
43.650000	-4054.383976
43.660000	-4003.692941
43.670000	-3949.817369
43.680000	-3892.318326
43.690000	-3832.930870
43.700000	-3770.276786
43.710000	-3704.724926
43.720000	-3635.909756
43.730000	-3565.201025
43.740000	-3492.884420
43.750000	-3417.684878
43.760000	-3336.867797
43.770000	-3252.528711
43.780000	-3168.202480
43.790000	-3086.384327
43.800000	-3005.541334
43.810000	-2921.582060
43.820000	-2835.577403
43.830000	-2758.824791
43.840000	-2712.992721
43.850000	-2712.064348
43.860000	-2752.377997
43.870000	-2815.615873
43.880000	-2884.117754
43.890000	-2944.866595
43.900000	-2990.560066
43.910000	-3019.152346
43.920000	-3032.367038
43.930000	-3032.126646
43.940000	-3016.852741
43.950000	-2989.468647
43.960000	-2960.715560
43.970000	-2937.155100
43.980000	-2922.259425
43.990000	-2912.512141
44.000000	-2906.499079
44.010000	-2900.887473
44.020000	-2888.084121
44.030000	-2866.636939
44.040000	-2836.363408
44.050000	-2801.422562
44.060000	-2763.326449
44.070000	-2720.891913
44.080000	-2673.315083
44.090000	-2622.058777
44.100000	-2568.996187
44.110000	-2516.251043
44.120000	-2464.030092
44.130000	-2411.799347
44.140000	-2359.088903
44.150000	-2304.703696
44.160000	-2249.177123
44.170000	-2191.628767
44.180000	-2132.627191
44.190000	-2072.243591
44.200000	-2008.094873
44.210000	-1939.554148
44.220000	-1863.914293
44.230000	-1786.243376
44.240000	-1716.771726
44.250000	-1671.304924
44.260000	-1660.973154
44.270000	-1678.673046
44.280000	-1706.167129
44.290000	-1720.718401
44.300000	-1710.079291
44.310000	-1677.495462
44.320000	-1633.032436
44.330000	-1588.967271
44.340000	-1545.306965
44.350000	-1501.793169
44.360000	-1467.628688
44.370000	-1457.321226
44.380000	-1480.624649
44.390000	-1528.818868
44.400000	-1589.965113
44.410000	-1652.336779
44.420000	-1710.007530
44.430000	-1755.870461
44.440000	-1785.743306
44.450000	-1799.767649
44.460000	-1799.166643
44.470000	-1783.009793
44.480000	-1751.276286
44.490000	-1710.286086
44.500000	-1667.070866
44.510000	-1623.230012
44.520000	-1576.537051
44.530000	-1526.192853
44.540000	-1473.690734
44.550000	-1420.837287
44.560000	-1366.182391
44.570000	-1308.495420
44.580000	-1248.692542
44.590000	-1188.501206
44.600000	-1125.536308
44.610000	-1060.192348
44.620000	-992.389297
44.630000	-936.265865
44.640000	-913.940314
44.650000	-942.334004
44.660000	-1018.444950
44.670000	-1118.352467
44.680000	-1221.967321
44.690000	-1314.726078
44.700000	-1387.844955
44.710000	-1438.120483
44.720000	-1468.410776
44.730000	-1483.524512
44.740000	-1484.636936
44.750000	-1472.931592
44.760000	-1454.211513
44.770000	-1436.011850
44.780000	-1423.781464
44.790000	-1416.742116
44.800000	-1411.677828
44.810000	-1405.806003
44.820000	-1396.238981
44.830000	-1379.866996
44.840000	-1355.134749
44.850000	-1322.931000
44.860000	-1285.362774
44.870000	-1244.322597
44.880000	-1201.250332
44.890000	-1155.702386
44.900000	-1106.127459
44.910000	-1051.408550
44.920000	-993.002736
44.930000	-931.101543
44.940000	-867.204464
44.950000	-800.109186
44.960000	-732.070295
44.970000	-662.763556
44.980000	-596.267893
44.990000	-530.051968
45.000000	-462.118342
45.010000	-391.326635
45.020000	-318.290022
45.030000	-247.594473
45.040000	-194.138126
45.050000	-186.213038
45.060000	-234.584536
45.070000	-328.417892
45.080000	-439.628351
45.090000	-548.957605
45.100000	-641.995261
45.110000	-711.826848
45.120000	-758.355666
45.130000	-786.015792
45.140000	-799.356126
45.150000	-798.832380
45.160000	-786.666129
45.170000	-769.966220
45.180000	-756.948800
45.190000	-750.721448
45.200000	-748.182291
45.210000	-745.441503
45.220000	-739.718263
45.230000	-726.455222
45.240000	-702.555894
45.250000	-672.453031
45.260000	-638.349905
45.270000	-604.083586
45.280000	-569.761016
45.290000	-536.342913
45.300000	-499.115377
45.310000	-451.889431
45.320000	-396.114364
45.330000	-335.732177
45.340000	-273.732515
45.350000	-208.182243
45.360000	-140.646842
45.370000	-72.918558
45.380000	-6.846007
45.390000	58.736334
45.400000	126.008152
45.410000	195.772260
45.420000	266.575207
45.430000	337.864029
45.440000	402.846104
45.450000	438.633511
45.460000	423.175491
45.470000	353.178304
45.480000	249.629629
45.490000	137.125331
45.500000	31.787078
45.510000	-55.547975
45.520000	-119.341586
45.530000	-159.841139
45.540000	-182.086452
45.550000	-190.401115
45.560000	-185.756631
45.570000	-171.568058
45.580000	-156.039288
45.590000	-144.993524
45.600000	-141.244474
45.610000	-142.668624
45.620000	-147.044986
45.630000	-148.929530
45.640000	-144.777772
45.650000	-132.453758
45.660000	-113.445693
45.670000	-86.561533
45.680000	-55.049111
45.690000	-19.584607
45.700000	19.092543
45.710000	59.469715
45.720000	102.655189
45.730000	147.599513
45.740000	195.305816
45.750000	244.807183
45.760000	295.708902
45.770000	348.435596
45.780000	402.528994
45.790000	457.149993
45.800000	512.439741
45.810000	567.951670
45.820000	623.775112
45.830000	680.846417
45.840000	732.514643
45.850000	754.117608
45.860000	725.693910
45.870000	645.199076
45.880000	534.367123
45.890000	418.720485
45.900000	316.450632
45.910000	239.656483
45.920000	187.597755
45.930000	154.344660
45.940000	131.171182
45.950000	117.155807
45.960000	113.185328
45.970000	114.722022
45.980000	112.624343
45.990000	100.066326
46.000000	79.193943
46.010000	55.526718
46.020000	34.203532
46.030000	18.757947
46.040000	12.321474
46.050000	16.428456
46.060000	31.881953
46.070000	54.865034
46.080000	81.555384
46.090000	110.421748
46.100000	143.018679
46.110000	179.089084
46.120000	218.264808
46.130000	258.201673
46.140000	299.971874
46.150000	341.758753
46.160000	383.136056
46.170000	424.104505
46.180000	465.089769
46.190000	508.578480
46.200000	553.824695
46.210000	598.505739
46.220000	622.301995
46.230000	604.223815
46.240000	536.609406
46.250000	436.804927
46.260000	327.727307
46.270000	227.167988
46.280000	145.622032
46.290000	87.645768
46.300000	52.300190
46.310000	30.901635
46.320000	23.803358
46.330000	28.617659
46.340000	43.108790
46.350000	58.117342
46.360000	66.556754
46.370000	68.775112
46.380000	67.483035
46.390000	69.583720
46.400000	76.868761
46.410000	92.537171
46.420000	114.381440
46.430000	142.974221
46.440000	176.698227
46.450000	215.225759
46.460000	259.162682
46.470000	308.287619
46.480000	362.440720
46.490000	419.825885
46.500000	479.870503
46.510000	541.177754
46.520000	602.450574
46.530000	665.021001
46.540000	730.182167
46.550000	799.350351
46.560000	870.056318
46.570000	940.167985
46.580000	1003.741480
46.590000	1039.432249
46.600000	1026.250658
46.610000	961.570764
46.620000	862.973246
46.630000	750.541489
46.640000	637.837345
46.650000	537.336068
46.660000	455.846798
46.670000	390.599325
46.680000	335.676664
46.690000	287.030837
46.700000	251.032332
46.710000	227.943488
46.720000	211.869730
46.730000	192.677196
46.740000	166.892178
46.750000	140.604649
46.760000	114.401043
46.770000	89.703315
46.780000	66.742942
46.790000	51.989472
46.800000	49.582851
46.810000	59.435810
46.820000	80.592883
46.830000	110.049745
46.840000	147.785049
46.850000	189.827487
46.860000	234.826450
46.870000	278.774016
46.880000	320.051211
46.890000	357.566168
46.900000	391.791821
46.910000	424.540926
46.920000	457.378047
46.930000	494.035304
46.940000	533.131263
46.950000	573.712590
46.960000	612.727808
46.970000	635.206924
46.980000	620.826788
46.990000	558.912245
47.000000	459.835411
47.010000	346.504507
47.020000	236.348834
47.030000	142.605776
47.040000	67.352794
47.050000	8.885178
47.060000	-35.790934
47.070000	-69.311253
47.080000	-88.728813
47.090000	-94.993873
47.100000	-88.807495
47.110000	-77.167944
47.120000	-64.352192
47.130000	-52.809818
47.140000	-43.030326
47.150000	-29.239308
47.160000	-7.851960
47.170000	23.858696
47.180000	63.509556
47.190000	108.153002
47.200000	158.078484
47.210000	210.304179
47.220000	263.852774
47.230000	317.989880
47.240000	371.159327
47.250000	425.220144
47.260000	479.661884
47.270000	536.326707
47.280000	594.026613
47.290000	651.637927
47.300000	709.935017
47.310000	768.484940
47.320000	826.047623
47.330000	882.542193
47.340000	938.703491
47.350000	993.135243
47.360000	1041.894638
47.370000	1059.545482
47.380000	999.571385
47.390000	852.267595
47.400000	658.932917
47.410000	476.912407
47.420000	325.736468
47.430000	198.364033
47.440000	97.112764
47.450000	22.023691
47.460000	-33.982301
47.470000	-80.107044
47.480000	-119.845682
47.490000	-150.002818
47.500000	-170.500463
47.510000	-186.695781
47.520000	-204.939657
47.530000	-227.157696
47.540000	-255.159059
47.550000	-288.727328
47.560000	-339.858032
47.570000	-420.074442
47.580000	-508.245512
47.590000	-578.185278
47.600000	-614.105231
47.610000	-636.839791
47.620000	-661.391425
47.630000	-684.887099
47.640000	-701.443971
47.650000	-705.375623
47.660000	-694.278932
47.670000	-664.633859
47.680000	-618.902481
47.690000	-569.022986
47.700000	-529.637691
47.710000	-507.828282
47.720000	-493.094241
47.730000	-468.384575
47.740000	-427.348524
47.750000	-372.733554
47.760000	-314.723612
47.770000	-254.825094
47.780000	-192.859814
47.790000	-130.687314
47.800000	-84.466380
47.810000	-77.666711
47.820000	-121.803215
47.830000	-203.673998
47.840000	-303.216320
47.850000	-412.475659
47.860000	-524.726588
47.870000	-632.702286
47.880000	-728.327085
47.890000	-812.044090
47.900000	-885.354927
47.910000	-946.133018
47.920000	-994.812873
47.930000	-1033.649326
47.940000	-1069.037207
47.950000	-1097.893917
47.960000	-1117.683313
47.970000	-1120.209184
47.980000	-1102.429072
47.990000	-1070.300606
48.000000	-1031.931436
48.010000	-1002.160472
48.020000	-984.485188
48.030000	-976.084766
48.040000	-967.769134
48.050000	-955.102369
48.060000	-938.479155
48.070000	-919.201157
48.080000	-895.926491
48.090000	-868.045738
48.100000	-837.791281
48.110000	-804.290637
48.120000	-772.413211
48.130000	-744.268511
48.140000	-724.782611
48.150000	-711.297798
48.160000	-692.198823
48.170000	-651.051095
48.180000	-579.039037
48.190000	-484.253059
48.200000	-382.635536
48.210000	-286.178042
48.220000	-205.962555
48.230000	-160.856570
48.240000	-158.657139
48.250000	-185.873743
48.260000	-212.368920
48.270000	-217.980373
48.280000	-203.532875
48.290000	-179.507190
48.300000	-157.425826
48.310000	-149.427637
48.320000	-165.704500
48.330000	-207.714298
48.340000	-261.663952
48.350000	-312.719896
48.360000	-357.375439
48.370000	-398.462957
48.380000	-436.800570
48.390000	-468.912523
48.400000	-492.279079
48.410000	-504.077795
48.420000	-501.473204
48.430000	-482.627237
48.440000	-450.059838
48.450000	-410.902321
48.460000	-371.690249
48.470000	-333.206118
48.480000	-288.008349
48.490000	-227.215333
48.500000	-154.402462
48.510000	-84.630315
48.520000	-28.156697
48.530000	12.603843
48.540000	43.072432
48.550000	64.790099
48.560000	86.284418
48.570000	120.285811
48.580000	173.445196
48.590000	246.063817
48.600000	327.209097
48.610000	406.812415
48.620000	474.273999
48.630000	523.209289
48.640000	551.989564
48.650000	557.239867
48.660000	535.343863
48.670000	484.248363
48.680000	418.050367
48.690000	359.923856
48.700000	323.707515
48.710000	304.859365
48.720000	300.346853
48.730000	323.485361
48.740000	379.610737
48.750000	452.365777
48.760000	518.169652
48.770000	571.611839
48.780000	619.411822
48.790000	663.829788
48.800000	704.632136
48.810000	741.032065
48.820000	765.487259
48.830000	771.892499
48.840000	761.016315
48.850000	735.413730
48.860000	701.546155
48.870000	665.591733
48.880000	636.074143
48.890000	611.066891
48.900000	587.258332
48.910000	563.208005
48.920000	531.086597
48.930000	502.063727
48.940000	499.277626
48.950000	560.289751
48.960000	679.682091
48.970000	825.441668
48.980000	961.742473
48.990000	1072.314469
49.000000	1163.532999
49.010000	1245.867231
49.020000	1333.001840
49.030000	1434.077753
49.040000	1548.113867
49.050000	1676.967800
49.060000	1812.537666
49.070000	1925.138415
49.080000	1992.321902
49.090000	1999.338099
49.100000	1965.541756
49.110000	1908.542281
49.120000	1852.456104
49.130000	1810.727758
49.140000	1785.015994
49.150000	1768.568675
49.160000	1754.588251
49.170000	1745.113625
49.180000	1746.185189
49.190000	1758.992862
49.200000	1774.101125
49.210000	1781.886993
49.220000	1782.392902
49.230000	1780.811771
49.240000	1780.028703
49.250000	1782.085113
49.260000	1786.676114
49.270000	1797.721941
49.280000	1814.997839
49.290000	1841.721062
49.300000	1878.331906
49.310000	1922.733634
49.320000	1973.354940
49.330000	2027.765131
49.340000	2087.744574
49.350000	2151.141264
49.360000	2214.152167
49.370000	2275.213083
49.380000	2333.251010
49.390000	2388.980062
49.400000	2442.371734
49.410000	2493.438061
49.420000	2545.526166
49.430000	2600.583723
49.440000	2660.371867
49.450000	2723.078277
49.460000	2785.572902
49.470000	2835.907792
49.480000	2844.752248
49.490000	2793.125314
49.500000	2681.344356
49.510000	2538.448304
49.520000	2392.627521
49.530000	2264.443853
49.540000	2167.919679
49.550000	2103.428963
49.560000	2066.224898
49.570000	2043.084652
49.580000	2026.573258
49.590000	2015.117054
49.600000	2013.967673
49.610000	2021.156949
49.620000	2029.708990
49.630000	2035.231252
49.640000	2040.163026
49.650000	2048.670883
49.660000	2061.969490
49.670000	2080.134526
49.680000	2103.136062
49.690000	2129.287261
49.700000	2158.667694
49.710000	2193.138317
49.720000	2232.219532
49.730000	2277.354482
49.740000	2326.454677
49.750000	2378.934278
49.760000	2433.714455
49.770000	2489.539379
49.780000	2546.002145
49.790000	2603.839640
49.800000	2661.976634
49.810000	2719.498526
49.820000	2776.645537
49.830000	2833.514638
49.840000	2872.957718
49.850000	2864.852098
49.860000	2790.324104
49.870000	2657.954577
49.880000	2494.429451
49.890000	2324.741244
49.900000	2165.867879
49.910000	2025.189550
49.920000	1904.979840
49.930000	1801.976420
49.940000	1715.452063
49.950000	1642.109050
49.960000	1583.623610
49.970000	1542.261792
49.980000	1520.146075
49.990000	1515.086815
50.000000	1523.013633
50.010000	1538.591413
50.020000	1561.243425
50.030000	1592.450266
50.040000	1631.816096
50.050000	1675.313263
50.060000	1716.061127
50.070000	1750.531731
50.080000	1768.633783
50.090000	1761.097484
50.100000	1725.904084
50.110000	1669.363199
50.120000	1595.845493
50.130000	1508.969282
50.140000	1419.481573
50.150000	1346.940640
50.160000	1306.780038
50.170000	1302.552376
50.180000	1325.717587
50.190000	1360.148183
50.200000	1377.291860
50.210000	1347.410846
50.220000	1254.239167
50.230000	1110.421527
50.240000	945.233337
50.250000	782.083177
50.260000	634.199184
50.270000	498.699437
50.280000	371.158864
50.290000	243.970905
50.300000	115.798916
50.310000	-6.740093
50.320000	-113.556603
50.330000	-196.796471
50.340000	-258.947233
50.350000	-303.529860
50.360000	-333.678436
50.370000	-352.605896
50.380000	-365.090495
50.390000	-374.020757
50.400000	-377.835137
50.410000	-376.451941
50.420000	-370.260784
50.430000	-360.566132
50.440000	-343.687347
50.450000	-314.023767
50.460000	-268.470257
50.470000	-221.546745
50.480000	-190.277751
50.490000	-184.401520
50.500000	-198.061659
50.510000	-223.604704
50.520000	-258.881463
50.530000	-295.478894
50.540000	-315.363817
50.550000	-313.745857
50.560000	-308.264939
50.570000	-348.792599
50.580000	-457.114262
50.590000	-636.146948
50.600000	-854.563044
50.610000	-1090.555040
50.620000	-1319.699649
50.630000	-1525.346895
50.640000	-1712.258207
50.650000	-1919.931358
50.660000	-2176.483422
50.670000	-2487.485851
50.680000	-2885.482030
50.690000	-3304.803922
50.700000	-3665.141073
50.710000	-3863.093202
50.720000	-3939.230793
50.730000	-3963.833267
50.740000	-3972.261037
50.750000	-3975.877740
50.760000	-3970.619755
50.770000	-3956.972725
50.780000	-3923.651306
50.790000	-3878.158264
50.800000	-3828.055734
50.810000	-3785.730174
50.820000	-3745.450569
50.830000	-3703.347722
50.840000	-3655.552933
50.850000	-3606.696451
50.860000	-3555.346771
50.870000	-3499.418439
50.880000	-3437.517808
50.890000	-3374.198949
50.900000	-3302.031646
50.910000	-3217.031483
50.920000	-3113.917974
50.930000	-3026.681396
50.940000	-2990.851497
50.950000	-3017.306665
50.960000	-3086.076766
50.970000	-3160.261966
50.980000	-3223.735660
50.990000	-3264.271236
51.000000	-3280.467545
51.010000	-3279.681130
51.020000	-3266.568543
51.030000	-3247.806374
51.040000	-3220.686821
51.050000	-3178.296354
51.060000	-3127.218335
51.070000	-3076.502465
51.080000	-3043.816047
51.090000	-3020.679109
51.100000	-2996.784221
51.110000	-2965.240399
51.120000	-2927.149372
51.130000	-2885.515015
51.140000	-2837.205498
51.150000	-2781.838048
51.160000	-2714.957661
51.170000	-2640.557845
51.180000	-2557.402005
51.190000	-2470.668110
51.200000	-2381.206936
51.210000	-2290.819728
51.220000	-2204.057752
51.230000	-2120.662709
51.240000	-2040.613351
51.250000	-1961.536242
51.260000	-1892.236197
51.270000	-1834.760614
51.280000	-1795.907666
51.290000	-1783.021556
51.300000	-1802.945646
51.310000	-1849.614403
51.320000	-1903.312962
51.330000	-1952.930491
51.340000	-2009.105728
51.350000	-2103.669925
51.360000	-2235.840139
51.370000	-2355.638200
51.380000	-2413.940244
51.390000	-2410.770854
51.400000	-2368.129455
51.410000	-2298.238084
51.420000	-2221.368202
51.430000	-2179.458235
51.440000	-2201.931956
51.450000	-2291.296458
51.460000	-2434.477525
51.470000	-2627.851174
51.480000	-2814.566684
51.490000	-2937.427285
51.500000	-2974.106511
51.510000	-2956.840680
51.520000	-2922.345243
51.530000	-2868.834092
51.540000	-2793.933935
51.550000	-2697.517702
51.560000	-2582.547580
51.570000	-2448.540742
51.580000	-2297.181809
51.590000	-2124.896359
51.600000	-1941.532299
51.610000	-1753.253612
51.620000	-1568.566657
51.630000	-1394.951148
51.640000	-1221.893691
51.650000	-1052.025864
51.660000	-888.896625
51.670000	-758.501242
51.680000	-690.246899
51.690000	-690.583823
51.700000	-748.217639
51.710000	-829.272527
51.720000	-911.219962
51.730000	-981.320801
51.740000	-1034.909404
51.750000	-1070.708917
51.760000	-1092.609153
51.770000	-1102.085427
51.780000	-1098.964973
51.790000	-1083.790062
51.800000	-1066.672125
51.810000	-1056.481888
51.820000	-1056.687247
51.830000	-1058.795878
51.840000	-1057.030367
51.850000	-1050.442529
51.860000	-1038.359158
51.870000	-1018.401588
51.880000	-986.666356
51.890000	-931.320293
51.900000	-850.314008
51.910000	-760.269346
51.920000	-675.934393
51.930000	-603.839182
51.940000	-530.809481
51.950000	-456.084063
51.960000	-378.991229
51.970000	-298.299279
51.980000	-213.478899
51.990000	-123.816767
52.000000	-30.272727
52.010000	66.700124
52.020000	165.297272
52.030000	264.922424
52.040000	354.541913
52.050000	407.138685
52.060000	402.845266
52.070000	341.783468
52.080000	250.596294
52.090000	152.127190
52.100000	61.703926
52.110000	-15.177639
52.120000	-73.142449
52.130000	-116.795686
52.140000	-144.255610
52.150000	-165.061834
52.160000	-173.275117
52.170000	-182.328844
52.180000	-191.869872
52.190000	-213.574133
52.200000	-236.680366
52.210000	-261.124957
52.220000	-275.066788
52.230000	-284.999870
52.240000	-284.022266
52.250000	-287.540688
52.260000	-289.188021
52.270000	-308.755547
52.280000	-331.860889
52.290000	-395.043348
52.300000	-485.998127
52.310000	-592.595594
52.320000	-657.941816
52.330000	-706.298907
52.340000	-743.428288
52.350000	-822.056904
52.360000	-933.336750
52.370000	-1092.470819
52.380000	-1238.959226
52.390000	-1382.331084
52.400000	-1488.046740
52.410000	-1629.739922
52.420000	-1757.043860
52.430000	-1989.531066
52.440000	-2263.451722
52.450000	-2720.800239
52.460000	-3456.237099
52.470000	-4847.670572
52.480000	-7421.325053
52.490000	-5834.837638
52.500000	9603.782780
52.510000	19834.157341
52.520000	20529.651651
52.530000	20517.878804
52.540000	20084.594739
52.550000	19349.255901
52.560000	18510.139682
52.570000	17158.284938
52.580000	15537.300083
52.590000	14016.035856
52.600000	13047.016634
52.610000	12739.545511
52.620000	13205.579642
52.630000	14382.073945
52.640000	15580.191513
52.650000	16248.909874
52.660000	16561.119791
52.670000	16512.367862
52.680000	16457.325386
52.690000	16557.735206
52.700000	16980.316894
52.710000	17407.544333
52.720000	17419.465000
52.730000	16808.585363
52.740000	15578.722285
52.750000	13751.386095
52.760000	11501.690490
52.770000	8679.733329
52.780000	6545.814490
52.790000	5148.914173
52.800000	3970.176929
52.810000	3267.604541
52.820000	3266.816438
52.830000	3782.723280
52.840000	4112.054731
52.850000	3710.176030
52.860000	2197.792056
52.870000	668.572095
52.880000	-397.818093
52.890000	-1152.916897
52.900000	-1492.004762
52.910000	-1339.106324
52.920000	-971.277306
52.930000	-709.338049
52.940000	-766.176986
52.950000	-1048.654302
52.960000	-1368.408327
52.970000	-1458.348981
52.980000	-1293.567625
52.990000	-1126.736965
53.000000	-973.341149
53.010000	-678.256813
53.020000	-369.828453
53.030000	-392.306301
53.040000	-769.707602
53.050000	-1110.152968
53.060000	-1303.635150
53.070000	-1422.442613
53.080000	-1552.209710
53.090000	-1670.045935
53.100000	-1777.798680
53.110000	-1870.244342
53.120000	-1894.205143
53.130000	-1834.163408
53.140000	-1561.920685
53.150000	-1058.000983
53.160000	-536.231557
53.170000	-266.949624
53.180000	-189.590745
53.190000	-16.900772
53.200000	359.265038
53.210000	784.800065
53.220000	1145.935928
53.230000	1474.938344
53.240000	1767.541525
53.250000	1975.990911
53.260000	2088.277712
53.270000	2152.573181
53.280000	2230.747931
53.290000	2326.022748
53.300000	2436.898868
53.310000	2546.455587
53.320000	2648.436661
53.330000	2685.103179
53.340000	2551.198669
53.350000	2238.035952
53.360000	1905.107747
53.370000	1713.991460
53.380000	1671.941819
53.390000	1597.776762
53.400000	1353.573878
53.410000	1070.980104
53.420000	886.227977
53.430000	889.063672
53.440000	966.331147
53.450000	1028.216152
53.460000	1088.722702
53.470000	1157.023703
53.480000	1254.815421
53.490000	1351.018155
53.500000	1435.295378
53.510000	1554.832600
53.520000	1714.653270
53.530000	1877.857354
53.540000	1975.580534
53.550000	1970.290363
53.560000	1865.273801
53.570000	1621.258712
53.580000	1281.845246
53.590000	919.287980
53.600000	618.431799
53.610000	350.316840
53.620000	-79.458918
53.630000	-736.993148
53.640000	-1496.849860
53.650000	-2328.926302
53.660000	-3041.158992
53.670000	-3629.072735
53.680000	-3823.440696
53.690000	-3741.314837
53.700000	-3462.656893
53.710000	-3122.746854
53.720000	-2822.150652
53.730000	-2680.271756
53.740000	-2646.219384
53.750000	-2557.868713
53.760000	-2412.103931
53.770000	-2293.085968
53.780000	-2210.499327
53.790000	-1769.241653
53.800000	-1295.260138
53.810000	-899.526667
53.820000	-832.792738
53.830000	-777.306208
53.840000	-711.863881
53.850000	-762.549077
53.860000	-927.644211
53.870000	-1212.539739
53.880000	-1476.753559
53.890000	-1612.016601
53.900000	-1606.861221
53.910000	-1499.697607
53.920000	-1328.034922
53.930000	-1106.719571
53.940000	-903.424934
53.950000	-857.009605
53.960000	-933.748151
53.970000	-1165.889389
53.980000	-1470.832455
53.990000	-1799.606049
54.000000	-2127.729842
54.010000	-2492.238777
54.020000	-2852.829878
54.030000	-3014.863943
54.040000	-2917.381331
54.050000	-2713.161656
54.060000	-2529.282240
54.070000	-2379.569571
54.080000	-2204.738116
54.090000	-2043.002220
54.100000	-1919.917322
54.110000	-1892.279916
54.120000	-1942.653012
54.130000	-2071.367903
54.140000	-2283.163399
54.150000	-2514.699256
54.160000	-2677.369154
54.170000	-2739.954055
54.180000	-2801.031616
54.190000	-2921.205800
54.200000	-3031.440270
54.210000	-3153.476797
54.220000	-3307.950121
54.230000	-3563.986177
54.240000	-3820.431759
54.250000	-3999.667252
54.260000	-4093.879750
54.270000	-4129.217102
54.280000	-4126.088327
54.290000	-3976.524859
54.300000	-3713.461878
54.310000	-3373.287511
54.320000	-3066.485099
54.330000	-2777.818421
54.340000	-2474.240329
54.350000	-2205.023710
54.360000	-1986.019380
54.370000	-1832.343252
54.380000	-1676.354711
54.390000	-1504.930065
54.400000	-1343.580977
54.410000	-1165.491917
54.420000	-948.940586
54.430000	-687.214937
54.440000	-403.168588
54.450000	-170.866377
54.460000	-15.049453
54.470000	72.116085
54.480000	170.812256
54.490000	304.820270
54.500000	468.469138
54.510000	673.447632
54.520000	924.648951
54.530000	1176.811597
54.540000	1381.025855
54.550000	1515.456452
54.560000	1585.349746
54.570000	1569.233262
54.580000	1463.594364
54.590000	1254.184700
54.600000	995.899044
54.610000	768.072787
54.620000	602.608992
54.630000	461.303214
54.640000	230.312100
54.650000	-121.037676
54.660000	-560.612698
54.670000	-920.807554
54.680000	-1134.281279
54.690000	-1244.684668
54.700000	-1424.105663
54.710000	-1711.666936
54.720000	-2059.161179
54.730000	-2351.269828
54.740000	-2494.415310
54.750000	-2450.163683
54.760000	-2316.851855
54.770000	-2195.204769
54.780000	-2119.246434
54.790000	-2006.066465
54.800000	-1785.150705
54.810000	-1489.020655
54.820000	-1175.601421
54.830000	-924.511595
54.840000	-723.611104
54.850000	-582.540494
54.860000	-482.688468
54.870000	-477.914183
54.880000	-594.502975
54.890000	-932.303258
54.900000	-1452.751120
54.910000	-2062.021470
54.920000	-2722.301136
54.930000	-3389.871933
54.940000	-4012.643717
54.950000	-4426.229931
54.960000	-4618.220064
54.970000	-4667.321573
54.980000	-4520.250939
54.990000	-4114.204426
55.000000	-3438.241899
55.010000	-2619.618065
55.020000	-1974.904283
55.030000	-1651.385070
55.040000	-1700.789398
55.050000	-2012.524938
55.060000	-2417.666487
55.070000	-2840.406236
55.080000	-3093.055434
55.090000	-3240.801349
55.100000	-3336.229149
55.110000	-3503.211728
55.120000	-3754.584093
55.130000	-4178.648969
55.140000	-4897.730746
55.150000	-5672.879166
55.160000	-6172.086188
55.170000	-6156.149402
55.180000	-5869.802222
55.190000	-5549.215430
55.200000	-5235.468233
55.210000	-4882.527808
55.220000	-4519.492640
55.230000	-4221.451608
55.240000	-4011.191537
55.250000	-3835.317318
55.260000	-3630.681108
55.270000	-3386.477205
55.280000	-3085.302573
55.290000	-2740.872148
55.300000	-2361.391382
55.310000	-1944.386438
55.320000	-1521.054199
55.330000	-1107.339871
55.340000	-714.852298
55.350000	-385.857514
55.360000	-102.297528
55.370000	84.288070
55.380000	196.649532
55.390000	234.225071
55.400000	218.178910
55.410000	201.773412
55.420000	196.116217
55.430000	211.176198
55.440000	226.494721
55.450000	237.815447
55.460000	257.110285
55.470000	290.297749
55.480000	334.227809
55.490000	369.930656
55.500000	392.913004
55.510000	406.446651
55.520000	416.802042
55.530000	425.813248
55.540000	433.549531
55.550000	446.060074
