Time(s)	GREEN_denoised_wiener
0.000000	-0.518586
0.010000	-0.513700
0.020000	-0.509021
0.030000	-0.504198
0.040000	-0.499546
0.050000	-0.494782
0.060000	-0.490161
0.070000	-0.485454
0.080000	-0.480867
0.090000	-0.476213
0.100000	-0.471661
0.110000	-0.467059
0.120000	-0.462544
0.130000	-0.457993
0.140000	-0.453517
0.150000	-0.449015
0.160000	-0.444578
0.170000	-0.440124
0.180000	-0.435727
0.190000	-0.431320
0.200000	-0.426964
0.210000	-0.422604
0.220000	-0.418288
0.230000	-0.413975
0.240000	-0.409701
0.250000	-0.405432
0.260000	-0.401200
0.270000	-0.396977
0.280000	-0.392787
0.290000	-0.388608
0.300000	-0.384461
0.310000	-0.380326
0.320000	-0.376221
0.330000	-0.372130
0.340000	-0.368067
0.350000	-0.364020
0.360000	-0.360000
0.370000	-0.355996
0.380000	-0.352018
0.390000	-0.348058
0.400000	-0.344122
0.410000	-0.340205
0.420000	-0.336311
0.430000	-0.332437
0.440000	-0.328585
0.450000	-0.324753
0.460000	-0.320944
0.470000	-0.317155
0.480000	-0.313387
0.490000	-0.309640
0.500000	-0.305915
0.510000	-0.302209
0.520000	-0.298526
0.530000	-0.294862
0.540000	-0.291220
0.550000	-0.287598
0.560000	-0.283998
0.570000	-0.280417
0.580000	-0.276858
0.590000	-0.273319
0.600000	-0.269801
0.610000	-0.266303
0.620000	-0.262826
0.630000	-0.259369
0.640000	-0.255932
0.650000	-0.252516
0.660000	-0.249120
0.670000	-0.245744
0.680000	-0.242389
0.690000	-0.239054
0.700000	-0.235739
0.710000	-0.232444
0.720000	-0.229168
0.730000	-0.225913
0.740000	-0.222678
0.750000	-0.219463
0.760000	-0.216267
0.770000	-0.213092
0.780000	-0.209936
0.790000	-0.206799
0.800000	-0.203682
0.810000	-0.200585
0.820000	-0.197508
0.830000	-0.194449
0.840000	-0.191411
0.850000	-0.188391
0.860000	-0.185391
0.870000	-0.182410
0.880000	-0.179449
0.890000	-0.176506
0.900000	-0.173583
0.910000	-0.170678
0.920000	-0.167793
0.930000	-0.164926
0.940000	-0.162079
0.950000	-0.159250
0.960000	-0.156440
0.970000	-0.153649
0.980000	-0.150876
0.990000	-0.148122
1.000000	-0.145387
1.010000	-0.142670
1.020000	-0.139971
1.030000	-0.137291
1.040000	-0.134629
1.050000	-0.131985
1.060000	-0.129360
1.070000	-0.126752
1.080000	-0.124163
1.090000	-0.121592
1.100000	-0.119039
1.110000	-0.116504
1.120000	-0.113986
1.130000	-0.111486
1.140000	-0.109004
1.150000	-0.106540
1.160000	-0.104093
1.170000	-0.101664
1.180000	-0.099253
1.190000	-0.096859
1.200000	-0.094482
1.210000	-0.092122
1.220000	-0.089780
1.230000	-0.087455
1.240000	-0.085147
1.250000	-0.082856
1.260000	-0.080582
1.270000	-0.078325
1.280000	-0.076085
1.290000	-0.073862
1.300000	-0.071656
1.310000	-0.069466
1.320000	-0.067293
1.330000	-0.065137
1.340000	-0.062997
1.350000	-0.060873
1.360000	-0.058766
1.370000	-0.056675
1.380000	-0.054601
1.390000	-0.052542
1.400000	-0.050500
1.410000	-0.048474
1.420000	-0.046464
1.430000	-0.044470
1.440000	-0.042491
1.450000	-0.040529
1.460000	-0.038582
1.470000	-0.036652
1.480000	-0.034736
1.490000	-0.032837
1.500000	-0.030952
1.510000	-0.029084
1.520000	-0.027230
1.530000	-0.025392
1.540000	-0.023569
1.550000	-0.021762
1.560000	-0.019969
1.570000	-0.018192
1.580000	-0.016430
1.590000	-0.014682
1.600000	-0.012950
1.610000	-0.011232
1.620000	-0.009529
1.630000	-0.007841
1.640000	-0.006167
1.650000	-0.004508
1.660000	-0.002864
1.670000	-0.001233
1.680000	0.000382
1.690000	0.001984
1.700000	0.003571
1.710000	0.005144
1.720000	0.006703
1.730000	0.008248
1.740000	0.009779
1.750000	0.011296
1.760000	0.012799
1.770000	0.014288
1.780000	0.015764
1.790000	0.017225
1.800000	0.018674
1.810000	0.020108
1.820000	0.021530
1.830000	0.022938
1.840000	0.024332
1.850000	0.025713
1.860000	0.027081
1.870000	0.028436
1.880000	0.029778
1.890000	0.031106
1.900000	0.032422
1.910000	0.033725
1.920000	0.035014
1.930000	0.036292
1.940000	0.037556
1.950000	0.038808
1.960000	0.040047
1.970000	0.041273
1.980000	0.042487
1.990000	0.043689
2.000000	0.044879
2.010000	0.046056
2.020000	0.047220
2.030000	0.048373
2.040000	0.049514
2.050000	0.050642
2.060000	0.051759
2.070000	0.052863
2.080000	0.053956
2.090000	0.055037
2.100000	0.056107
2.110000	0.057164
2.120000	0.058210
2.130000	0.059245
2.140000	0.060268
2.150000	0.061279
2.160000	0.062280
2.170000	0.063269
2.180000	0.064246
2.190000	0.065213
2.200000	0.066168
2.210000	0.067113
2.220000	0.068046
2.230000	0.068968
2.240000	0.069880
2.250000	0.070781
2.260000	0.071671
2.270000	0.072550
2.280000	0.073419
2.290000	0.074277
2.300000	0.075124
2.310000	0.075962
2.320000	0.076788
2.330000	0.077605
2.340000	0.078411
2.350000	0.079207
2.360000	0.079993
2.370000	0.080768
2.380000	0.081534
2.390000	0.082290
2.400000	0.083035
2.410000	0.083771
2.420000	0.084497
2.430000	0.085214
2.440000	0.085920
2.450000	0.086618
2.460000	0.087305
2.470000	0.087983
2.480000	0.088651
2.490000	0.089311
2.500000	0.089960
2.510000	0.090601
2.520000	0.091232
2.530000	0.091854
2.540000	0.092467
2.550000	0.093071
2.560000	0.093666
2.570000	0.094252
2.580000	0.094829
2.590000	0.095397
2.600000	0.095957
2.610000	0.096507
2.620000	0.097049
2.630000	0.097583
2.640000	0.098108
2.650000	0.098624
2.660000	0.099132
2.670000	0.099632
2.680000	0.100123
2.690000	0.100606
2.700000	0.101081
2.710000	0.101547
2.720000	0.102006
2.730000	0.102456
2.740000	0.102899
2.750000	0.103333
2.760000	0.103759
2.770000	0.104178
2.780000	0.104589
2.790000	0.104992
2.800000	0.105388
2.810000	0.105775
2.820000	0.106156
2.830000	0.106528
2.840000	0.106893
2.850000	0.107251
2.860000	0.107601
2.870000	0.107944
2.880000	0.108280
2.890000	0.108609
2.900000	0.108930
2.910000	0.109244
2.920000	0.109552
2.930000	0.109852
2.940000	0.110145
2.950000	0.110431
2.960000	0.110710
2.970000	0.110983
2.980000	0.111249
2.990000	0.111508
3.000000	0.111760
3.010000	0.112006
3.020000	0.112245
3.030000	0.112478
3.040000	0.112704
3.050000	0.112924
3.060000	0.113137
3.070000	0.113344
3.080000	0.113545
3.090000	0.113739
3.100000	0.113928
3.110000	0.114110
3.120000	0.114286
3.130000	0.114456
3.140000	0.114620
3.150000	0.114778
3.160000	0.114930
3.170000	0.115076
3.180000	0.115217
3.190000	0.115351
3.200000	0.115480
3.210000	0.115604
3.220000	0.115721
3.230000	0.115833
3.240000	0.115940
3.250000	0.116041
3.260000	0.116137
3.270000	0.116227
3.280000	0.116312
3.290000	0.116391
3.300000	0.116465
3.310000	0.116534
3.320000	0.116598
3.330000	0.116657
3.340000	0.116710
3.350000	0.116758
3.360000	0.116802
3.370000	0.116840
3.380000	0.116874
3.390000	0.116903
3.400000	0.116926
3.410000	0.116945
3.420000	0.116959
3.430000	0.116968
3.440000	0.116972
3.450000	0.116973
3.460000	0.116969
3.470000	0.116960
3.480000	0.116947
3.490000	0.116929
3.500000	0.116907
3.510000	0.116880
3.520000	0.116849
3.530000	0.116813
3.540000	0.116774
3.550000	0.116730
3.560000	0.116681
3.570000	0.116629
3.580000	0.116573
3.590000	0.116512
3.600000	0.116447
3.610000	0.116379
3.620000	0.116306
3.630000	0.116230
3.640000	0.116149
3.650000	0.116065
3.660000	0.115977
3.670000	0.115885
3.680000	0.115790
3.690000	0.115690
3.700000	0.115587
3.710000	0.115481
3.720000	0.115371
3.730000	0.115257
3.740000	0.115140
3.750000	0.115019
3.760000	0.114895
3.770000	0.114767
3.780000	0.114636
3.790000	0.114502
3.800000	0.114364
3.810000	0.114223
3.820000	0.114079
3.830000	0.113932
3.840000	0.113781
3.850000	0.113627
3.860000	0.113470
3.870000	0.113311
3.880000	0.113148
3.890000	0.112982
3.900000	0.112813
3.910000	0.112641
3.920000	0.112466
3.930000	0.112289
3.940000	0.112108
3.950000	0.111925
3.960000	0.111739
3.970000	0.111550
3.980000	0.111358
3.990000	0.111164
4.000000	0.110967
4.010000	0.110768
4.020000	0.110566
4.030000	0.110361
4.040000	0.110154
4.050000	0.109944
4.060000	0.109732
4.070000	0.109518
4.080000	0.109301
4.090000	0.109082
4.100000	0.108860
4.110000	0.108636
4.120000	0.108410
4.130000	0.108181
4.140000	0.107950
4.150000	0.107717
4.160000	0.107482
4.170000	0.107245
4.180000	0.107005
4.190000	0.106764
4.200000	0.106520
4.210000	0.106275
4.220000	0.106027
4.230000	0.105778
4.240000	0.105526
4.250000	0.105273
4.260000	0.105017
4.270000	0.104760
4.280000	0.104501
4.290000	0.104240
4.300000	0.103978
4.310000	0.103713
4.320000	0.103447
4.330000	0.103179
4.340000	0.102910
4.350000	0.102638
4.360000	0.102366
4.370000	0.102091
4.380000	0.101815
4.390000	0.101538
4.400000	0.101258
4.410000	0.100978
4.420000	0.100696
4.430000	0.100412
4.440000	0.100127
4.450000	0.099841
4.460000	0.099553
4.470000	0.099264
4.480000	0.098973
4.490000	0.098681
4.500000	0.098388
4.510000	0.098094
4.520000	0.097798
4.530000	0.097501
4.540000	0.097203
4.550000	0.096904
4.560000	0.096603
4.570000	0.096301
4.580000	0.095999
4.590000	0.095695
4.600000	0.095390
4.610000	0.095084
4.620000	0.094777
4.630000	0.094469
4.640000	0.094160
4.650000	0.093850
4.660000	0.093539
4.670000	0.093228
4.680000	0.092915
4.690000	0.092601
4.700000	0.092287
4.710000	0.091972
4.720000	0.091655
4.730000	0.091338
4.740000	0.091021
4.750000	0.090702
4.760000	0.090383
4.770000	0.090063
4.780000	0.089742
4.790000	0.089421
4.800000	0.089099
4.810000	0.088776
4.820000	0.088453
4.830000	0.088129
4.840000	0.087804
4.850000	0.087479
4.860000	0.087154
4.870000	0.086827
4.880000	0.086501
4.890000	0.086173
4.900000	0.085846
4.910000	0.085517
4.920000	0.085189
4.930000	0.084860
4.940000	0.084530
4.950000	0.084200
4.960000	0.083870
4.970000	0.083539
4.980000	0.083208
4.990000	0.082877
5.000000	0.082545
5.010000	0.082213
5.020000	0.081880
5.030000	0.081548
5.040000	0.081215
5.050000	0.080882
5.060000	0.080548
5.070000	0.080215
5.080000	0.079881
5.090000	0.079547
5.100000	0.079213
5.110000	0.078879
5.120000	0.078544
5.130000	0.078210
5.140000	0.077875
5.150000	0.077540
5.160000	0.077205
5.170000	0.076870
5.180000	0.076535
5.190000	0.076200
5.200000	0.075865
5.210000	0.075530
5.220000	0.075195
5.230000	0.074860
5.240000	0.074525
5.250000	0.074190
5.260000	0.073855
5.270000	0.073520
5.280000	0.073185
5.290000	0.072850
5.300000	0.072515
5.310000	0.072181
5.320000	0.071846
5.330000	0.071512
5.340000	0.071178
5.350000	0.070844
5.360000	0.070510
5.370000	0.070177
5.380000	0.069843
5.390000	0.069510
5.400000	0.069177
5.410000	0.068844
5.420000	0.068511
5.430000	0.068179
5.440000	0.067847
5.450000	0.067515
5.460000	0.067184
5.470000	0.066853
5.480000	0.066522
5.490000	0.066191
5.500000	0.065861
5.510000	0.065531
5.520000	0.065201
5.530000	0.064872
5.540000	0.064543
5.550000	0.064215
5.560000	0.063886
5.570000	0.063559
5.580000	0.063231
5.590000	0.062905
5.600000	0.062578
5.610000	0.062252
5.620000	0.061926
5.630000	0.061601
5.640000	0.061276
5.650000	0.060952
5.660000	0.060628
5.670000	0.060305
5.680000	0.059982
5.690000	0.059660
5.700000	0.059338
5.710000	0.059017
5.720000	0.058696
5.730000	0.058376
5.740000	0.058056
5.750000	0.057737
5.760000	0.057418
5.770000	0.057100
5.780000	0.056783
5.790000	0.056466
5.800000	0.056149
5.810000	0.055834
5.820000	0.055519
5.830000	0.055204
5.840000	0.054890
5.850000	0.054577
5.860000	0.054264
5.870000	0.053952
5.880000	0.053641
5.890000	0.053330
5.900000	0.053020
5.910000	0.052710
5.920000	0.052402
5.930000	0.052094
5.940000	0.051786
5.950000	0.051479
5.960000	0.051173
5.970000	0.050868
5.980000	0.050563
5.990000	0.050259
6.000000	0.049956
6.010000	0.049654
6.020000	0.049352
6.030000	0.049051
6.040000	0.048751
6.050000	0.048451
6.060000	0.048152
6.070000	0.047854
6.080000	0.047557
6.090000	0.047260
6.100000	0.046964
6.110000	0.046669
6.120000	0.046375
6.130000	0.046082
6.140000	0.045789
6.150000	0.045497
6.160000	0.045206
6.170000	0.044916
6.180000	0.044626
6.190000	0.044338
6.200000	0.044050
6.210000	0.043763
6.220000	0.043476
6.230000	0.043191
6.240000	0.042906
6.250000	0.042623
6.260000	0.042340
6.270000	0.042058
6.280000	0.041776
6.290000	0.041496
6.300000	0.041216
6.310000	0.040938
6.320000	0.040660
6.330000	0.040383
6.340000	0.040107
6.350000	0.039831
6.360000	0.039557
6.370000	0.039284
6.380000	0.039011
6.390000	0.038739
6.400000	0.038468
6.410000	0.038198
6.420000	0.037929
6.430000	0.037661
6.440000	0.037394
6.450000	0.037127
6.460000	0.036862
6.470000	0.036597
6.480000	0.036333
6.490000	0.036070
6.500000	0.035809
6.510000	0.035548
6.520000	0.035287
6.530000	0.035028
6.540000	0.034770
6.550000	0.034513
6.560000	0.034256
6.570000	0.034001
6.580000	0.033746
6.590000	0.033493
6.600000	0.033240
6.610000	0.032988
6.620000	0.032737
6.630000	0.032487
6.640000	0.032238
6.650000	0.031990
6.660000	0.031743
6.670000	0.031497
6.680000	0.031252
6.690000	0.031007
6.700000	0.030764
6.710000	0.030522
6.720000	0.030280
6.730000	0.030040
6.740000	0.029800
6.750000	0.029561
6.760000	0.029324
6.770000	0.029087
6.780000	0.028851
6.790000	0.028616
6.800000	0.028382
6.810000	0.028149
6.820000	0.027918
6.830000	0.027686
6.840000	0.027456
6.850000	0.027227
6.860000	0.026999
6.870000	0.026772
6.880000	0.026546
6.890000	0.026320
6.900000	0.026096
6.910000	0.025873
6.920000	0.025650
6.930000	0.025429
6.940000	0.025208
6.950000	0.024989
6.960000	0.024770
6.970000	0.024553
6.980000	0.024336
6.990000	0.024120
7.000000	0.023906
7.010000	0.023692
7.020000	0.023479
7.030000	0.023267
7.040000	0.023056
7.050000	0.022847
7.060000	0.022638
7.070000	0.022430
7.080000	0.022223
7.090000	0.022016
7.100000	0.021811
7.110000	0.021607
7.120000	0.021404
7.130000	0.021202
7.140000	0.021000
7.150000	0.020800
7.160000	0.020601
7.170000	0.020402
7.180000	0.020205
7.190000	0.020008
7.200000	0.019813
7.210000	0.019618
7.220000	0.019424
7.230000	0.019232
7.240000	0.019040
7.250000	0.018849
7.260000	0.018659
7.270000	0.018470
7.280000	0.018282
7.290000	0.018095
7.300000	0.017909
7.310000	0.017724
7.320000	0.017540
7.330000	0.017356
7.340000	0.017174
7.350000	0.016993
7.360000	0.016812
7.370000	0.016633
7.380000	0.016454
7.390000	0.016276
7.400000	0.016100
7.410000	0.015924
7.420000	0.015749
7.430000	0.015575
7.440000	0.015402
7.450000	0.015230
7.460000	0.015059
7.470000	0.014889
7.480000	0.014719
7.490000	0.014551
7.500000	0.014383
7.510000	0.014217
7.520000	0.014051
7.530000	0.013886
7.540000	0.013723
7.550000	0.013560
7.560000	0.013398
7.570000	0.013236
7.580000	0.013076
7.590000	0.012917
7.600000	0.012759
7.610000	0.012601
7.620000	0.012444
7.630000	0.012289
7.640000	0.012134
7.650000	0.011980
7.660000	0.011827
7.670000	0.011675
7.680000	0.011524
7.690000	0.011373
7.700000	0.011224
7.710000	0.011075
7.720000	0.010928
7.730000	0.010781
7.740000	0.010635
7.750000	0.010490
7.760000	0.010345
7.770000	0.010202
7.780000	0.010060
7.790000	0.009918
7.800000	0.009777
7.810000	0.009637
7.820000	0.009498
7.830000	0.009360
7.840000	0.009223
7.850000	0.009086
7.860000	0.008951
7.870000	0.008816
7.880000	0.008682
7.890000	0.008549
7.900000	0.008417
7.910000	0.008285
7.920000	0.008155
7.930000	0.008025
7.940000	0.007896
7.950000	0.007768
7.960000	0.007641
7.970000	0.007514
7.980000	0.007389
7.990000	0.007264
8.000000	0.007140
8.010000	0.007017
8.020000	0.006894
8.030000	0.006773
8.040000	0.006652
8.050000	0.006532
8.060000	0.006413
8.070000	0.006295
8.080000	0.006177
8.090000	0.006061
8.100000	0.005945
8.110000	0.005830
8.120000	0.005715
8.130000	0.005602
8.140000	0.005489
8.150000	0.005377
8.160000	0.005266
8.170000	0.005156
8.180000	0.005046
8.190000	0.004937
8.200000	0.004829
8.210000	0.004722
8.220000	0.004615
8.230000	0.004509
8.240000	0.004404
8.250000	0.004300
8.260000	0.004196
8.270000	0.004094
8.280000	0.003991
8.290000	0.003890
8.300000	0.003790
8.310000	0.003690
8.320000	0.003591
8.330000	0.003492
8.340000	0.003395
8.350000	0.003298
8.360000	0.003202
8.370000	0.003106
8.380000	0.003012
8.390000	0.002918
8.400000	0.002824
8.410000	0.002732
8.420000	0.002640
8.430000	0.002549
8.440000	0.002458
8.450000	0.002369
8.460000	0.002280
8.470000	0.002191
8.480000	0.002104
8.490000	0.002017
8.500000	0.001931
8.510000	0.001845
8.520000	0.001760
8.530000	0.001676
8.540000	0.001592
8.550000	0.001510
8.560000	0.001427
8.570000	0.001346
8.580000	0.001265
8.590000	0.001185
8.600000	0.001105
8.610000	0.001027
8.620000	0.000948
8.630000	0.000871
8.640000	0.000794
8.650000	0.000718
8.660000	0.000642
8.670000	0.000567
8.680000	0.000493
8.690000	0.000419
8.700000	0.000346
8.710000	0.000274
8.720000	0.000202
8.730000	0.000131
8.740000	0.000061
8.750000	-0.000009
8.760000	-0.000079
8.770000	-0.000147
8.780000	-0.000215
8.790000	-0.000283
8.800000	-0.000350
8.810000	-0.000416
8.820000	-0.000481
8.830000	-0.000546
8.840000	-0.000611
8.850000	-0.000675
8.860000	-0.000738
8.870000	-0.000801
8.880000	-0.000863
8.890000	-0.000924
8.900000	-0.000985
8.910000	-0.001045
8.920000	-0.001105
8.930000	-0.001164
8.940000	-0.001223
8.950000	-0.001281
8.960000	-0.001338
8.970000	-0.001395
8.980000	-0.001452
8.990000	-0.001507
9.000000	-0.001563
9.010000	-0.001617
9.020000	-0.001671
9.030000	-0.001725
9.040000	-0.001778
9.050000	-0.001831
9.060000	-0.001883
9.070000	-0.001934
9.080000	-0.001985
9.090000	-0.002035
9.100000	-0.002085
9.110000	-0.002135
9.120000	-0.002183
9.130000	-0.002232
9.140000	-0.002280
9.150000	-0.002327
9.160000	-0.002374
9.170000	-0.002420
9.180000	-0.002466
9.190000	-0.002511
9.200000	-0.002556
9.210000	-0.002600
9.220000	-0.002644
9.230000	-0.002687
9.240000	-0.002730
9.250000	-0.002772
9.260000	-0.002814
9.270000	-0.002855
9.280000	-0.002896
9.290000	-0.002936
9.300000	-0.002976
9.310000	-0.003016
9.320000	-0.003055
9.330000	-0.003093
9.340000	-0.003131
9.350000	-0.003169
9.360000	-0.003206
9.370000	-0.003243
9.380000	-0.003279
9.390000	-0.003315
9.400000	-0.003350
9.410000	-0.003385
9.420000	-0.003419
9.430000	-0.003453
9.440000	-0.003487
9.450000	-0.003520
9.460000	-0.003553
9.470000	-0.003585
9.480000	-0.003617
9.490000	-0.003648
9.500000	-0.003679
9.510000	-0.003710
9.520000	-0.003740
9.530000	-0.003770
9.540000	-0.003799
9.550000	-0.003828
9.560000	-0.003857
9.570000	-0.003885
9.580000	-0.003912
9.590000	-0.003940
9.600000	-0.003967
9.610000	-0.003993
9.620000	-0.004019
9.630000	-0.004045
9.640000	-0.004070
9.650000	-0.004095
9.660000	-0.004120
9.670000	-0.004144
9.680000	-0.004168
9.690000	-0.004192
9.700000	-0.004215
9.710000	-0.004237
9.720000	-0.004260
9.730000	-0.004282
9.740000	-0.004303
9.750000	-0.004325
9.760000	-0.004345
9.770000	-0.004366
9.780000	-0.004386
9.790000	-0.004406
9.800000	-0.004426
9.810000	-0.004445
9.820000	-0.004464
9.830000	-0.004482
9.840000	-0.004500
9.850000	-0.004518
9.860000	-0.004535
9.870000	-0.004552
9.880000	-0.004569
9.890000	-0.004586
9.900000	-0.004602
9.910000	-0.004618
9.920000	-0.004633
9.930000	-0.004648
9.940000	-0.004663
9.950000	-0.004678
9.960000	-0.004692
9.970000	-0.004706
9.980000	-0.004719
9.990000	-0.004733
10.000000	-0.004746
10.010000	-0.004758
10.020000	-0.004771
10.030000	-0.004783
10.040000	-0.004795
10.050000	-0.004806
10.060000	-0.004818
10.070000	-0.004828
10.080000	-0.004839
10.090000	-0.004849
10.100000	-0.004860
10.110000	-0.004869
10.120000	-0.004879
10.130000	-0.004888
10.140000	-0.004897
10.150000	-0.004906
10.160000	-0.004914
10.170000	-0.004922
10.180000	-0.004930
10.190000	-0.004938
10.200000	-0.004945
10.210000	-0.004952
10.220000	-0.004959
10.230000	-0.004966
10.240000	-0.004972
10.250000	-0.004978
10.260000	-0.004984
10.270000	-0.004990
10.280000	-0.004995
10.290000	-0.005000
10.300000	-0.005005
10.310000	-0.005010
10.320000	-0.005014
10.330000	-0.005018
10.340000	-0.005022
10.350000	-0.005026
10.360000	-0.005029
10.370000	-0.005033
10.380000	-0.005036
10.390000	-0.005038
10.400000	-0.005041
10.410000	-0.005043
10.420000	-0.005045
10.430000	-0.005047
10.440000	-0.005049
10.450000	-0.005050
10.460000	-0.005052
10.470000	-0.005053
10.480000	-0.005054
10.490000	-0.005054
10.500000	-0.005055
10.510000	-0.005055
10.520000	-0.005055
10.530000	-0.005055
10.540000	-0.005054
10.550000	-0.005054
10.560000	-0.005053
10.570000	-0.005052
10.580000	-0.005051
10.590000	-0.005050
10.600000	-0.005048
10.610000	-0.005046
10.620000	-0.005045
10.630000	-0.005042
10.640000	-0.005040
10.650000	-0.005038
10.660000	-0.005035
10.670000	-0.005032
10.680000	-0.005029
10.690000	-0.005026
10.700000	-0.005023
10.710000	-0.005020
10.720000	-0.005016
10.730000	-0.005012
10.740000	-0.005008
10.750000	-0.005004
10.760000	-0.005000
10.770000	-0.004995
10.780000	-0.004991
10.790000	-0.004986
10.800000	-0.004981
10.810000	-0.004976
10.820000	-0.004971
10.830000	-0.004966
10.840000	-0.004960
10.850000	-0.004954
10.860000	-0.004949
10.870000	-0.004943
10.880000	-0.004937
10.890000	-0.004930
10.900000	-0.004924
10.910000	-0.004918
10.920000	-0.004911
10.930000	-0.004904
10.940000	-0.004897
10.950000	-0.004890
10.960000	-0.004883
10.970000	-0.004876
10.980000	-0.004868
10.990000	-0.004861
11.000000	-0.004853
11.010000	-0.004845
11.020000	-0.004838
11.030000	-0.004830
11.040000	-0.004821
11.050000	-0.004813
11.060000	-0.004805
11.070000	-0.004796
11.080000	-0.004788
11.090000	-0.004779
11.100000	-0.004770
11.110000	-0.004761
11.120000	-0.004752
11.130000	-0.004743
11.140000	-0.004734
11.150000	-0.004724
11.160000	-0.004715
11.170000	-0.004705
11.180000	-0.004696
11.190000	-0.004686
11.200000	-0.004676
11.210000	-0.004666
11.220000	-0.004656
11.230000	-0.004646
11.240000	-0.004636
11.250000	-0.004625
11.260000	-0.004615
11.270000	-0.004604
11.280000	-0.004594
11.290000	-0.004583
11.300000	-0.004572
11.310000	-0.004561
11.320000	-0.004550
11.330000	-0.004539
11.340000	-0.004528
11.350000	-0.004517
11.360000	-0.004506
11.370000	-0.004494
11.380000	-0.004483
11.390000	-0.004472
11.400000	-0.004460
11.410000	-0.004448
11.420000	-0.004437
11.430000	-0.004425
11.440000	-0.004413
11.450000	-0.004401
11.460000	-0.004389
11.470000	-0.004377
11.480000	-0.004365
11.490000	-0.004353
11.500000	-0.004341
11.510000	-0.004328
11.520000	-0.004316
11.530000	-0.004303
11.540000	-0.004291
11.550000	-0.004278
11.560000	-0.004266
11.570000	-0.004253
11.580000	-0.004240
11.590000	-0.004228
11.600000	-0.004215
11.610000	-0.004202
11.620000	-0.004189
11.630000	-0.004176
11.640000	-0.004163
11.650000	-0.004150
11.660000	-0.004137
11.670000	-0.004124
11.680000	-0.004110
11.690000	-0.004097
11.700000	-0.004084
11.710000	-0.004070
11.720000	-0.004057
11.730000	-0.004044
11.740000	-0.004030
11.750000	-0.004017
11.760000	-0.004003
11.770000	-0.003990
11.780000	-0.003976
11.790000	-0.003962
11.800000	-0.003949
11.810000	-0.003935
11.820000	-0.003921
11.830000	-0.003907
11.840000	-0.003893
11.850000	-0.003880
11.860000	-0.003866
11.870000	-0.003852
11.880000	-0.003838
11.890000	-0.003824
11.900000	-0.003810
11.910000	-0.003796
11.920000	-0.003782
11.930000	-0.003768
11.940000	-0.003754
11.950000	-0.003740
11.960000	-0.003725
11.970000	-0.003711
11.980000	-0.003697
11.990000	-0.003683
12.000000	-0.003669
12.010000	-0.003654
12.020000	-0.003640
12.030000	-0.003626
12.040000	-0.003612
12.050000	-0.003597
12.060000	-0.003583
12.070000	-0.003569
12.080000	-0.003554
12.090000	-0.003540
12.100000	-0.003526
12.110000	-0.003511
12.120000	-0.003497
12.130000	-0.003482
12.140000	-0.003468
12.150000	-0.003454
12.160000	-0.003439
12.170000	-0.003425
12.180000	-0.003410
12.190000	-0.003396
12.200000	-0.003381
12.210000	-0.003367
12.220000	-0.003352
12.230000	-0.003338
12.240000	-0.003323
12.250000	-0.003309
12.260000	-0.003295
12.270000	-0.003280
12.280000	-0.003266
12.290000	-0.003251
12.300000	-0.003237
12.310000	-0.003222
12.320000	-0.003208
12.330000	-0.003193
12.340000	-0.003179
12.350000	-0.003164
12.360000	-0.003150
12.370000	-0.003135
12.380000	-0.003121
12.390000	-0.003106
12.400000	-0.003092
12.410000	-0.003078
12.420000	-0.003063
12.430000	-0.003049
12.440000	-0.003034
12.450000	-0.003020
12.460000	-0.003005
12.470000	-0.002991
12.480000	-0.002977
12.490000	-0.002962
12.500000	-0.002948
12.510000	-0.002934
12.520000	-0.002919
12.530000	-0.002905
12.540000	-0.002891
12.550000	-0.002876
12.560000	-0.002862
12.570000	-0.002848
12.580000	-0.002833
12.590000	-0.002819
12.600000	-0.002805
12.610000	-0.002791
12.620000	-0.002777
12.630000	-0.002762
12.640000	-0.002748
12.650000	-0.002734
12.660000	-0.002720
12.670000	-0.002706
12.680000	-0.002692
12.690000	-0.002678
12.700000	-0.002664
12.710000	-0.002650
12.720000	-0.002636
12.730000	-0.002622
12.740000	-0.002608
12.750000	-0.002594
12.760000	-0.002580
12.770000	-0.002566
12.780000	-0.002552
12.790000	-0.002538
12.800000	-0.002524
12.810000	-0.002510
12.820000	-0.002497
12.830000	-0.002483
12.840000	-0.002469
12.850000	-0.002455
12.860000	-0.002442
12.870000	-0.002428
12.880000	-0.002414
12.890000	-0.002401
12.900000	-0.002387
12.910000	-0.002374
12.920000	-0.002360
12.930000	-0.002347
12.940000	-0.002333
12.950000	-0.002320
12.960000	-0.002306
12.970000	-0.002293
12.980000	-0.002279
12.990000	-0.002266
13.000000	-0.002253
13.010000	-0.002240
13.020000	-0.002226
13.030000	-0.002213
13.040000	-0.002200
13.050000	-0.002187
13.060000	-0.002174
13.070000	-0.002160
13.080000	-0.002147
13.090000	-0.002134
13.100000	-0.002121
13.110000	-0.002108
13.120000	-0.002095
13.130000	-0.002082
13.140000	-0.002070
13.150000	-0.002057
13.160000	-0.002044
13.170000	-0.002031
13.180000	-0.002018
13.190000	-0.002006
13.200000	-0.001993
13.210000	-0.001980
13.220000	-0.001968
13.230000	-0.001955
13.240000	-0.001943
13.250000	-0.001930
13.260000	-0.001918
13.270000	-0.001905
13.280000	-0.001893
13.290000	-0.001880
13.300000	-0.001868
13.310000	-0.001856
13.320000	-0.001844
13.330000	-0.001831
13.340000	-0.001819
13.350000	-0.001807
13.360000	-0.001795
13.370000	-0.001783
13.380000	-0.001771
13.390000	-0.001759
13.400000	-0.001747
13.410000	-0.001735
13.420000	-0.001723
13.430000	-0.001711
13.440000	-0.001699
13.450000	-0.001687
13.460000	-0.001676
13.470000	-0.001664
13.480000	-0.001652
13.490000	-0.001641
13.500000	-0.001629
13.510000	-0.001618
13.520000	-0.001606
13.530000	-0.001595
13.540000	-0.001583
13.550000	-0.001572
13.560000	-0.001560
13.570000	-0.001549
13.580000	-0.001538
13.590000	-0.001527
13.600000	-0.001515
13.610000	-0.001504
13.620000	-0.001493
13.630000	-0.001482
13.640000	-0.001471
13.650000	-0.001460
13.660000	-0.001449
13.670000	-0.001438
13.680000	-0.001427
13.690000	-0.001416
13.700000	-0.001406
13.710000	-0.001395
13.720000	-0.001384
13.730000	-0.001373
13.740000	-0.001363
13.750000	-0.001352
13.760000	-0.001342
13.770000	-0.001331
13.780000	-0.001321
13.790000	-0.001310
13.800000	-0.001300
13.810000	-0.001289
13.820000	-0.001279
13.830000	-0.001269
13.840000	-0.001259
13.850000	-0.001248
13.860000	-0.001238
13.870000	-0.001228
13.880000	-0.001218
13.890000	-0.001208
13.900000	-0.001198
13.910000	-0.001188
13.920000	-0.001178
13.930000	-0.001168
13.940000	-0.001159
13.950000	-0.001149
13.960000	-0.001139
13.970000	-0.001129
13.980000	-0.001120
13.990000	-0.001110
14.000000	-0.001100
14.010000	-0.001091
14.020000	-0.001081
14.030000	-0.001072
14.040000	-0.001063
14.050000	-0.001053
14.060000	-0.001044
14.070000	-0.001035
14.080000	-0.001025
14.090000	-0.001016
14.100000	-0.001007
14.110000	-0.000998
14.120000	-0.000989
14.130000	-0.000980
14.140000	-0.000971
14.150000	-0.000962
14.160000	-0.000953
14.170000	-0.000944
14.180000	-0.000935
14.190000	-0.000927
14.200000	-0.000918
14.210000	-0.000909
14.220000	-0.000900
14.230000	-0.000892
14.240000	-0.000883
14.250000	-0.000875
14.260000	-0.000866
14.270000	-0.000858
14.280000	-0.000849
14.290000	-0.000841
14.300000	-0.000833
14.310000	-0.000824
14.320000	-0.000816
14.330000	-0.000808
14.340000	-0.000800
14.350000	-0.000792
14.360000	-0.000784
14.370000	-0.000776
14.380000	-0.000768
14.390000	-0.000760
14.400000	-0.000752
14.410000	-0.000744
14.420000	-0.000736
14.430000	-0.000728
14.440000	-0.000720
14.450000	-0.000713
14.460000	-0.000705
14.470000	-0.000697
14.480000	-0.000690
14.490000	-0.000682
14.500000	-0.000675
14.510000	-0.000667
14.520000	-0.000660
14.530000	-0.000652
14.540000	-0.000645
14.550000	-0.000638
14.560000	-0.000630
14.570000	-0.000623
14.580000	-0.000616
14.590000	-0.000609
14.600000	-0.000602
14.610000	-0.000595
14.620000	-0.000588
14.630000	-0.000581
14.640000	-0.000574
14.650000	-0.000567
14.660000	-0.000560
14.670000	-0.000553
14.680000	-0.000546
14.690000	-0.000539
14.700000	-0.000533
14.710000	-0.000526
14.720000	-0.000519
14.730000	-0.000513
14.740000	-0.000506
14.750000	-0.000500
14.760000	-0.000493
14.770000	-0.000487
14.780000	-0.000480
14.790000	-0.000474
14.800000	-0.000468
14.810000	-0.000461
14.820000	-0.000455
14.830000	-0.000449
14.840000	-0.000443
14.850000	-0.000436
14.860000	-0.000430
14.870000	-0.000424
14.880000	-0.000418
14.890000	-0.000412
14.900000	-0.000406
14.910000	-0.000400
14.920000	-0.000394
14.930000	-0.000388
14.940000	-0.000383
14.950000	-0.000377
14.960000	-0.000371
14.970000	-0.000365
14.980000	-0.000360
14.990000	-0.000354
15.000000	-0.000348
15.010000	-0.000343
15.020000	-0.000337
15.030000	-0.000332
15.040000	-0.000326
15.050000	-0.000321
15.060000	-0.000316
15.070000	-0.000310
15.080000	-0.000305
15.090000	-0.000300
15.100000	-0.000294
15.110000	-0.000289
15.120000	-0.000284
15.130000	-0.000279
15.140000	-0.000274
15.150000	-0.000269
15.160000	-0.000264
15.170000	-0.000259
15.180000	-0.000254
15.190000	-0.000249
15.200000	-0.000244
15.210000	-0.000239
15.220000	-0.000234
15.230000	-0.000229
15.240000	-0.000225
15.250000	-0.000220
15.260000	-0.000215
15.270000	-0.000210
15.280000	-0.000206
15.290000	-0.000201
15.300000	-0.000197
15.310000	-0.000192
15.320000	-0.000188
15.330000	-0.000183
15.340000	-0.000179
15.350000	-0.000174
15.360000	-0.000170
15.370000	-0.000166
15.380000	-0.000161
15.390000	-0.000157
15.400000	-0.000153
15.410000	-0.000148
15.420000	-0.000144
15.430000	-0.000140
15.440000	-0.000136
15.450000	-0.000132
15.460000	-0.000128
15.470000	-0.000124
15.480000	-0.000120
15.490000	-0.000116
15.500000	-0.000112
15.510000	-0.000108
15.520000	-0.000104
15.530000	-0.000100
15.540000	-0.000097
15.550000	-0.000093
15.560000	-0.000089
15.570000	-0.000085
15.580000	-0.000082
15.590000	-0.000078
15.600000	-0.000074
15.610000	-0.000071
15.620000	-0.000067
15.630000	-0.000064
15.640000	-0.000060
15.650000	-0.000057
15.660000	-0.000053
15.670000	-0.000050
15.680000	-0.000046
15.690000	-0.000043
15.700000	-0.000039
15.710000	-0.000036
15.720000	-0.000033
15.730000	-0.000030
15.740000	-0.000026
15.750000	-0.000023
15.760000	-0.000020
15.770000	-0.000017
15.780000	-0.000014
15.790000	-0.000011
15.800000	-0.000008
15.810000	-0.000005
15.820000	-0.000001
15.830000	0.000002
15.840000	0.000004
15.850000	0.000007
15.860000	0.000010
15.870000	0.000013
15.880000	0.000016
15.890000	0.000019
15.900000	0.000022
15.910000	0.000024
15.920000	0.000027
15.930000	0.000030
15.940000	0.000033
15.950000	0.000035
15.960000	0.000038
15.970000	0.000041
15.980000	0.000043
15.990000	0.000046
16.000000	0.000048
16.010000	0.000051
16.020000	0.000053
16.030000	0.000056
16.040000	0.000058
16.050000	0.000061
16.060000	0.000063
16.070000	0.000066
16.080000	0.000068
16.090000	0.000070
16.100000	0.000073
16.110000	0.000075
16.120000	0.000077
16.130000	0.000079
16.140000	0.000082
16.150000	0.000084
16.160000	0.000086
16.170000	0.000088
16.180000	0.000090
16.190000	0.000092
16.200000	0.000094
16.210000	0.000097
16.220000	0.000099
16.230000	0.000101
16.240000	0.000103
16.250000	0.000105
16.260000	0.000107
16.270000	0.000108
16.280000	0.000110
16.290000	0.000112
16.300000	0.000114
16.310000	0.000116
16.320000	0.000118
16.330000	0.000120
16.340000	0.000121
16.350000	0.000123
16.360000	0.000125
16.370000	0.000127
16.380000	0.000128
16.390000	0.000130
16.400000	0.000132
16.410000	0.000133
16.420000	0.000135
16.430000	0.000137
16.440000	0.000138
16.450000	0.000140
16.460000	0.000141
16.470000	0.000143
16.480000	0.000144
16.490000	0.000146
16.500000	0.000147
16.510000	0.000149
16.520000	0.000150
16.530000	0.000151
16.540000	0.000153
16.550000	0.000154
16.560000	0.000156
16.570000	0.000157
16.580000	0.000158
16.590000	0.000160
16.600000	0.000161
16.610000	0.000162
16.620000	0.000163
16.630000	0.000165
16.640000	0.000166
16.650000	0.000167
16.660000	0.000168
16.670000	0.000169
16.680000	0.000170
16.690000	0.000172
16.700000	0.000173
16.710000	0.000174
16.720000	0.000175
16.730000	0.000176
16.740000	0.000177
16.750000	0.000178
16.760000	0.000179
16.770000	0.000180
16.780000	0.000181
16.790000	0.000182
16.800000	0.000183
16.810000	0.000184
16.820000	0.000185
16.830000	0.000186
16.840000	0.000187
16.850000	0.000187
16.860000	0.000188
16.870000	0.000189
16.880000	0.000190
16.890000	0.000191
16.900000	0.000192
16.910000	0.000192
16.920000	0.000193
16.930000	0.000194
16.940000	0.000195
16.950000	0.000195
16.960000	0.000196
16.970000	0.000197
16.980000	0.000197
16.990000	0.000198
17.000000	0.000199
17.010000	0.000199
17.020000	0.000200
17.030000	0.000201
17.040000	0.000201
17.050000	0.000202
17.060000	0.000202
17.070000	0.000203
17.080000	0.000204
17.090000	0.000204
17.100000	0.000205
17.110000	0.000205
17.120000	0.000206
17.130000	0.000206
17.140000	0.000207
17.150000	0.000207
17.160000	0.000208
17.170000	0.000208
17.180000	0.000208
17.190000	0.000209
17.200000	0.000209
17.210000	0.000210
17.220000	0.000210
17.230000	0.000210
17.240000	0.000211
17.250000	0.000211
17.260000	0.000211
17.270000	0.000212
17.280000	0.000212
17.290000	0.000212
17.300000	0.000213
17.310000	0.000213
17.320000	0.000213
17.330000	0.000213
17.340000	0.000214
17.350000	0.000214
17.360000	0.000214
17.370000	0.000214
17.380000	0.000215
17.390000	0.000215
17.400000	0.000215
17.410000	0.000215
17.420000	0.000215
17.430000	0.000215
17.440000	0.000216
17.450000	0.000216
17.460000	0.000216
17.470000	0.000216
17.480000	0.000216
17.490000	0.000216
17.500000	0.000216
17.510000	0.000216
17.520000	0.000216
17.530000	0.000216
17.540000	0.000216
17.550000	0.000216
17.560000	0.000217
17.570000	0.000217
17.580000	0.000217
17.590000	0.000217
17.600000	0.000217
17.610000	0.000217
17.620000	0.000217
17.630000	0.000216
17.640000	0.000216
17.650000	0.000216
17.660000	0.000216
17.670000	0.000216
17.680000	0.000216
17.690000	0.000216
17.700000	0.000216
17.710000	0.000216
17.720000	0.000216
17.730000	0.000216
17.740000	0.000216
17.750000	0.000216
17.760000	0.000215
17.770000	0.000215
17.780000	0.000215
17.790000	0.000215
17.800000	0.000215
17.810000	0.000215
17.820000	0.000215
17.830000	0.000214
17.840000	0.000214
17.850000	0.000214
17.860000	0.000214
17.870000	0.000214
17.880000	0.000213
17.890000	0.000213
17.900000	0.000213
17.910000	0.000213
17.920000	0.000212
17.930000	0.000212
17.940000	0.000212
17.950000	0.000212
17.960000	0.000211
17.970000	0.000211
17.980000	0.000211
17.990000	0.000211
18.000000	0.000210
18.010000	0.000210
18.020000	0.000210
18.030000	0.000210
18.040000	0.000209
18.050000	0.000209
18.060000	0.000209
18.070000	0.000208
18.080000	0.000208
18.090000	0.000208
18.100000	0.000207
18.110000	0.000207
18.120000	0.000207
18.130000	0.000206
18.140000	0.000206
18.150000	0.000206
18.160000	0.000205
18.170000	0.000205
18.180000	0.000204
18.190000	0.000204
18.200000	0.000204
18.210000	0.000203
18.220000	0.000203
18.230000	0.000202
18.240000	0.000202
18.250000	0.000202
18.260000	0.000201
18.270000	0.000201
18.280000	0.000200
18.290000	0.000200
18.300000	0.000200
18.310000	0.000199
18.320000	0.000199
18.330000	0.000198
18.340000	0.000198
18.350000	0.000197
18.360000	0.000197
18.370000	0.000197
18.380000	0.000196
18.390000	0.000196
18.400000	0.000195
18.410000	0.000195
18.420000	0.000194
18.430000	0.000194
18.440000	0.000193
18.450000	0.000193
18.460000	0.000192
18.470000	0.000192
18.480000	0.000191
18.490000	0.000191
18.500000	0.000190
18.510000	0.000190
18.520000	0.000189
18.530000	0.000189
18.540000	0.000188
18.550000	0.000188
18.560000	0.000187
18.570000	0.000187
18.580000	0.000186
18.590000	0.000186
18.600000	0.000185
18.610000	0.000185
18.620000	0.000184
18.630000	0.000184
18.640000	0.000183
18.650000	0.000183
18.660000	0.000182
18.670000	0.000182
18.680000	0.000181
18.690000	0.000181
18.700000	0.000180
18.710000	0.000180
18.720000	0.000179
18.730000	0.000178
18.740000	0.000178
18.750000	0.000177
18.760000	0.000177
18.770000	0.000176
18.780000	0.000176
18.790000	0.000175
18.800000	0.000175
18.810000	0.000174
18.820000	0.000174
18.830000	0.000173
18.840000	0.000172
18.850000	0.000172
18.860000	0.000171
18.870000	0.000171
18.880000	0.000170
18.890000	0.000170
18.900000	0.000169
18.910000	0.000168
18.920000	0.000168
18.930000	0.000167
18.940000	0.000167
18.950000	0.000166
18.960000	0.000166
18.970000	0.000165
18.980000	0.000164
18.990000	0.000164
19.000000	0.000163
19.010000	0.000163
19.020000	0.000162
19.030000	0.000162
19.040000	0.000161
19.050000	0.000160
19.060000	0.000160
19.070000	0.000159
19.080000	0.000159
19.090000	0.000158
19.100000	0.000157
19.110000	0.000157
19.120000	0.000156
19.130000	0.000156
19.140000	0.000155
19.150000	0.000155
19.160000	0.000154
19.170000	0.000153
19.180000	0.000153
19.190000	0.000152
19.200000	0.000152
19.210000	0.000151
19.220000	0.000150
19.230000	0.000150
19.240000	0.000149
19.250000	0.000149
19.260000	0.000148
19.270000	0.000148
19.280000	0.000147
19.290000	0.000146
19.300000	0.000146
19.310000	0.000145
19.320000	0.000145
19.330000	0.000144
19.340000	0.000143
19.350000	0.000143
19.360000	0.000142
19.370000	0.000142
19.380000	0.000141
19.390000	0.000141
19.400000	0.000140
19.410000	0.000139
19.420000	0.000139
19.430000	0.000138
19.440000	0.000138
19.450000	0.000137
19.460000	0.000136
19.470000	0.000136
19.480000	0.000135
19.490000	0.000135
19.500000	0.000134
19.510000	0.000134
19.520000	0.000133
19.530000	0.000132
19.540000	0.000132
19.550000	0.000131
19.560000	0.000131
19.570000	0.000130
19.580000	0.000130
19.590000	0.000129
19.600000	0.000128
19.610000	0.000128
19.620000	0.000127
19.630000	0.000127
19.640000	0.000126
19.650000	0.000126
19.660000	0.000125
19.670000	0.000124
19.680000	0.000124
19.690000	0.000123
19.700000	0.000123
19.710000	0.000122
19.720000	0.000122
19.730000	0.000121
19.740000	0.000121
19.750000	0.000120
19.760000	0.000119
19.770000	0.000119
19.780000	0.000118
19.790000	0.000118
19.800000	0.000117
19.810000	0.000117
19.820000	0.000116
19.830000	0.000116
19.840000	0.000115
19.850000	0.000114
19.860000	0.000114
19.870000	0.000113
19.880000	0.000113
19.890000	0.000112
19.900000	0.000112
19.910000	0.000111
19.920000	0.000111
19.930000	0.000110
19.940000	0.000110
19.950000	0.000109
19.960000	0.000109
19.970000	0.000108
19.980000	0.000108
19.990000	0.000107
20.000000	0.000106
20.010000	0.000106
20.020000	0.000105
20.030000	0.000105
20.040000	0.000104
20.050000	0.000104
20.060000	0.000103
20.070000	0.000103
20.080000	0.000102
20.090000	0.000102
20.100000	0.000101
20.110000	0.000101
20.120000	0.000100
20.130000	0.000100
20.140000	0.000099
20.150000	0.000099
20.160000	0.000098
20.170000	0.000098
20.180000	0.000097
20.190000	0.000097
20.200000	0.000096
20.210000	0.000096
20.220000	0.000095
20.230000	0.000095
20.240000	0.000094
20.250000	0.000094
20.260000	0.000094
20.270000	0.000093
20.280000	0.000093
20.290000	0.000092
20.300000	0.000092
20.310000	0.000091
20.320000	0.000091
20.330000	0.000090
20.340000	0.000090
20.350000	0.000089
20.360000	0.000089
20.370000	0.000088
20.380000	0.000088
20.390000	0.000087
20.400000	0.000087
20.410000	0.000087
20.420000	0.000086
20.430000	0.000086
20.440000	0.000085
20.450000	0.000085
20.460000	0.000084
20.470000	0.000084
20.480000	0.000083
20.490000	0.000083
20.500000	0.000083
20.510000	0.000082
20.520000	0.000082
20.530000	0.000081
20.540000	0.000081
20.550000	0.000080
20.560000	0.000080
20.570000	0.000080
20.580000	0.000079
20.590000	0.000079
20.600000	0.000078
20.610000	0.000078
20.620000	0.000078
20.630000	0.000077
20.640000	0.000077
20.650000	0.000076
20.660000	0.000076
20.670000	0.000076
20.680000	0.000075
20.690000	0.000075
20.700000	0.000074
20.710000	0.000074
20.720000	0.000074
20.730000	0.000073
20.740000	0.000073
20.750000	0.000072
20.760000	0.000072
20.770000	0.000072
20.780000	0.000071
20.790000	0.000071
20.800000	0.000071
20.810000	0.000070
20.820000	0.000070
20.830000	0.000070
20.840000	0.000069
20.850000	0.000069
20.860000	0.000068
20.870000	0.000068
20.880000	0.000068
20.890000	0.000067
20.900000	0.000067
20.910000	0.000067
20.920000	0.000066
20.930000	0.000066
20.940000	0.000066
20.950000	0.000065
20.960000	0.000065
20.970000	0.000065
20.980000	0.000064
20.990000	0.000064
21.000000	0.000064
21.010000	0.000063
21.020000	0.000063
21.030000	0.000063
21.040000	0.000062
21.050000	0.000062
21.060000	0.000062
21.070000	0.000061
21.080000	0.000061
21.090000	0.000061
21.100000	0.000061
21.110000	0.000060
21.120000	0.000060
21.130000	0.000060
21.140000	0.000059
21.150000	0.000059
21.160000	0.000059
21.170000	0.000058
21.180000	0.000058
21.190000	0.000058
21.200000	0.000058
21.210000	0.000057
21.220000	0.000057
21.230000	0.000057
21.240000	0.000056
21.250000	0.000056
21.260000	0.000056
21.270000	0.000056
21.280000	0.000055
21.290000	0.000055
21.300000	0.000055
21.310000	0.000055
21.320000	0.000054
21.330000	0.000054
21.340000	0.000054
21.350000	0.000054
21.360000	0.000053
21.370000	0.000053
21.380000	0.000053
21.390000	0.000053
21.400000	0.000052
21.410000	0.000052
21.420000	0.000052
21.430000	0.000052
21.440000	0.000051
21.450000	0.000051
21.460000	0.000051
21.470000	0.000051
21.480000	0.000051
21.490000	0.000050
21.500000	0.000050
21.510000	0.000050
21.520000	0.000050
21.530000	0.000049
21.540000	0.000049
21.550000	0.000049
21.560000	0.000049
21.570000	0.000049
21.580000	0.000048
21.590000	0.000048
21.600000	0.000048
21.610000	0.000048
21.620000	0.000048
21.630000	0.000047
21.640000	0.000047
21.650000	0.000047
21.660000	0.000047
21.670000	0.000047
21.680000	0.000046
21.690000	0.000046
21.700000	0.000046
21.710000	0.000046
21.720000	0.000046
21.730000	0.000046
21.740000	0.000045
21.750000	0.000045
21.760000	0.000045
21.770000	0.000045
21.780000	0.000045
21.790000	0.000045
21.800000	0.000044
21.810000	0.000044
21.820000	0.000044
21.830000	0.000044
21.840000	0.000044
21.850000	0.000044
21.860000	0.000043
21.870000	0.000043
21.880000	0.000043
21.890000	0.000043
21.900000	0.000043
21.910000	0.000043
21.920000	0.000043
21.930000	0.000042
21.940000	0.000042
21.950000	0.000042
21.960000	0.000042
21.970000	0.000042
21.980000	0.000042
21.990000	0.000042
22.000000	0.000042
22.010000	0.000041
22.020000	0.000041
22.030000	0.000041
22.040000	0.000041
22.050000	0.000041
22.060000	0.000041
22.070000	0.000041
22.080000	0.000041
22.090000	0.000041
22.100000	0.000040
22.110000	0.000040
22.120000	0.000040
22.130000	0.000040
22.140000	0.000040
22.150000	0.000040
22.160000	0.000040
22.170000	0.000040
22.180000	0.000040
22.190000	0.000040
22.200000	0.000039
22.210000	0.000039
22.220000	0.000039
22.230000	0.000039
22.240000	0.000039
22.250000	0.000039
22.260000	0.000039
22.270000	0.000039
22.280000	0.000039
22.290000	0.000039
22.300000	0.000039
22.310000	0.000039
22.320000	0.000038
22.330000	0.000038
22.340000	0.000038
22.350000	0.000038
22.360000	0.000038
22.370000	0.000038
22.380000	0.000038
22.390000	0.000038
22.400000	0.000038
22.410000	0.000038
22.420000	0.000038
22.430000	0.000038
22.440000	0.000038
22.450000	0.000038
22.460000	0.000038
22.470000	0.000038
22.480000	0.000038
22.490000	0.000037
22.500000	0.000037
22.510000	0.000037
22.520000	0.000037
22.530000	0.000037
22.540000	0.000037
22.550000	0.000037
22.560000	0.000037
22.570000	0.000037
22.580000	0.000037
22.590000	0.000037
22.600000	0.000037
22.610000	0.000037
22.620000	0.000037
22.630000	0.000037
22.640000	0.000037
22.650000	0.000037
22.660000	0.000037
22.670000	0.000037
22.680000	0.000037
22.690000	0.000037
22.700000	0.000037
22.710000	0.000037
22.720000	0.000037
22.730000	0.000037
22.740000	0.000037
22.750000	0.000037
22.760000	0.000037
22.770000	0.000037
22.780000	0.000037
22.790000	0.000037
22.800000	0.000037
22.810000	0.000037
22.820000	0.000037
22.830000	0.000037
22.840000	0.000037
22.850000	0.000037
22.860000	0.000037
22.870000	0.000037
22.880000	0.000037
22.890000	0.000037
22.900000	0.000037
22.910000	0.000037
22.920000	0.000037
22.930000	0.000037
22.940000	0.000037
22.950000	0.000037
22.960000	0.000037
22.970000	0.000037
22.980000	0.000037
22.990000	0.000037
23.000000	0.000037
23.010000	0.000037
23.020000	0.000037
23.030000	0.000037
23.040000	0.000037
23.050000	0.000037
23.060000	0.000037
23.070000	0.000037
23.080000	0.000037
23.090000	0.000037
23.100000	0.000037
23.110000	0.000037
23.120000	0.000037
23.130000	0.000037
23.140000	0.000037
23.150000	0.000037
23.160000	0.000037
23.170000	0.000037
23.180000	0.000037
23.190000	0.000037
23.200000	0.000037
23.210000	0.000037
23.220000	0.000037
23.230000	0.000037
23.240000	0.000037
23.250000	0.000037
23.260000	0.000037
23.270000	0.000037
23.280000	0.000037
23.290000	0.000037
23.300000	0.000037
23.310000	0.000037
23.320000	0.000037
23.330000	0.000037
23.340000	0.000037
23.350000	0.000037
23.360000	0.000037
23.370000	0.000037
23.380000	0.000037
23.390000	0.000037
23.400000	0.000037
23.410000	0.000037
23.420000	0.000037
23.430000	0.000037
23.440000	0.000037
23.450000	0.000037
23.460000	0.000037
23.470000	0.000037
23.480000	0.000037
23.490000	0.000037
23.500000	0.000037
23.510000	0.000037
23.520000	0.000037
23.530000	0.000037
23.540000	0.000037
23.550000	0.000037
23.560000	0.000037
23.570000	0.000037
23.580000	0.000037
23.590000	0.000037
23.600000	0.000037
23.610000	0.000038
23.620000	0.000038
23.630000	0.000038
23.640000	0.000038
23.650000	0.000038
23.660000	0.000038
23.670000	0.000038
23.680000	0.000038
23.690000	0.000038
23.700000	0.000038
23.710000	0.000038
23.720000	0.000038
23.730000	0.000038
23.740000	0.000038
23.750000	0.000038
23.760000	0.000038
23.770000	0.000038
23.780000	0.000038
23.790000	0.000038
23.800000	0.000038
23.810000	0.000038
23.820000	0.000038
23.830000	0.000038
23.840000	0.000038
23.850000	0.000038
23.860000	0.000038
23.870000	0.000038
23.880000	0.000038
23.890000	0.000038
23.900000	0.000038
23.910000	0.000038
23.920000	0.000038
23.930000	0.000038
23.940000	0.000038
23.950000	0.000038
23.960000	0.000038
23.970000	0.000038
23.980000	0.000038
23.990000	0.000038
24.000000	0.000038
24.010000	0.000038
24.020000	0.000038
24.030000	0.000038
24.040000	0.000038
24.050000	0.000038
24.060000	0.000038
24.070000	0.000038
24.080000	0.000038
24.090000	0.000038
24.100000	0.000038
24.110000	0.000038
24.120000	0.000038
24.130000	0.000038
24.140000	0.000038
24.150000	0.000038
24.160000	0.000038
24.170000	0.000038
24.180000	0.000038
24.190000	0.000038
24.200000	0.000038
24.210000	0.000038
24.220000	0.000037
24.230000	0.000037
24.240000	0.000037
24.250000	0.000037
24.260000	0.000037
24.270000	0.000037
24.280000	0.000037
24.290000	0.000037
24.300000	0.000037
24.310000	0.000037
24.320000	0.000037
24.330000	0.000037
24.340000	0.000037
24.350000	0.000037
24.360000	0.000037
24.370000	0.000037
24.380000	0.000037
24.390000	0.000037
24.400000	0.000037
24.410000	0.000037
24.420000	0.000037
24.430000	0.000036
24.440000	0.000036
24.450000	0.000036
24.460000	0.000036
24.470000	0.000036
24.480000	0.000036
24.490000	0.000036
24.500000	0.000036
24.510000	0.000036
24.520000	0.000036
24.530000	0.000036
24.540000	0.000036
24.550000	0.000036
24.560000	0.000035
24.570000	0.000035
24.580000	0.000035
24.590000	0.000035
24.600000	0.000035
24.610000	0.000035
24.620000	0.000035
24.630000	0.000035
24.640000	0.000035
24.650000	0.000035
24.660000	0.000034
24.670000	0.000034
24.680000	0.000034
24.690000	0.000034
24.700000	0.000034
24.710000	0.000034
24.720000	0.000034
24.730000	0.000034
24.740000	0.000033
24.750000	0.000033
24.760000	0.000033
24.770000	0.000033
24.780000	0.000033
24.790000	0.000033
24.800000	0.000033
24.810000	0.000032
24.820000	0.000032
24.830000	0.000032
24.840000	0.000032
24.850000	0.000032
24.860000	0.000032
24.870000	0.000032
24.880000	0.000031
24.890000	0.000031
24.900000	0.000031
24.910000	0.000031
24.920000	0.000031
24.930000	0.000030
24.940000	0.000030
24.950000	0.000030
24.960000	0.000030
24.970000	0.000030
24.980000	0.000029
24.990000	0.000029
25.000000	0.000029
25.010000	0.000029
25.020000	0.000029
25.030000	0.000028
25.040000	0.000028
25.050000	0.000028
25.060000	0.000028
25.070000	0.000028
25.080000	0.000027
25.090000	0.000027
25.100000	0.000027
25.110000	0.000027
25.120000	0.000026
25.130000	0.000026
25.140000	0.000026
25.150000	0.000026
25.160000	0.000025
25.170000	0.000025
25.180000	0.000025
25.190000	0.000025
25.200000	0.000024
25.210000	0.000024
25.220000	0.000024
25.230000	0.000023
25.240000	0.000023
25.250000	0.000023
25.260000	0.000023
25.270000	0.000022
25.280000	0.000022
25.290000	0.000022
25.300000	0.000021
25.310000	0.000021
25.320000	0.000021
25.330000	0.000020
25.340000	0.000020
25.350000	0.000020
25.360000	0.000019
25.370000	0.000019
25.380000	0.000019
25.390000	0.000018
25.400000	0.000018
25.410000	0.000018
25.420000	0.000017
25.430000	0.000017
25.440000	0.000017
25.450000	0.000016
25.460000	0.000016
25.470000	0.000015
25.480000	0.000015
25.490000	0.000015
25.500000	0.000014
25.510000	0.000014
25.520000	0.000013
25.530000	0.000013
25.540000	0.000013
25.550000	0.000012
25.560000	0.000012
25.570000	0.000011
25.580000	0.000011
25.590000	0.000010
25.600000	0.000010
25.610000	0.000010
25.620000	0.000009
25.630000	0.000009
25.640000	0.000008
25.650000	0.000008
25.660000	0.000007
25.670000	0.000007
25.680000	0.000006
25.690000	0.000006
25.700000	0.000005
25.710000	0.000005
25.720000	0.000004
25.730000	0.000004
25.740000	0.000003
25.750000	0.000003
25.760000	0.000002
25.770000	0.000002
25.780000	0.000001
25.790000	0.000001
25.800000	0.000000
25.810000	-0.000000
25.820000	-0.000001
25.830000	-0.000002
25.840000	-0.000002
25.850000	-0.000003
25.860000	-0.000003
25.870000	-0.000004
25.880000	-0.000004
25.890000	-0.000005
25.900000	-0.000006
25.910000	-0.000006
25.920000	-0.000007
25.930000	-0.000007
25.940000	-0.000008
25.950000	-0.000009
25.960000	-0.000009
25.970000	-0.000010
25.980000	-0.000011
25.990000	-0.000011
26.000000	-0.000012
26.010000	-0.000013
26.020000	-0.000013
26.030000	-0.000014
26.040000	-0.000015
26.050000	-0.000015
26.060000	-0.000016
26.070000	-0.000017
26.080000	-0.000017
26.090000	-0.000018
26.100000	-0.000019
26.110000	-0.000019
26.120000	-0.000020
26.130000	-0.000021
26.140000	-0.000022
26.150000	-0.000022
26.160000	-0.000023
26.170000	-0.000024
26.180000	-0.000025
26.190000	-0.000025
26.200000	-0.000026
26.210000	-0.000027
26.220000	-0.000028
26.230000	-0.000029
26.240000	-0.000029
26.250000	-0.000030
26.260000	-0.000031
26.270000	-0.000032
26.280000	-0.000033
26.290000	-0.000034
26.300000	-0.000034
26.310000	-0.000035
26.320000	-0.000036
26.330000	-0.000037
26.340000	-0.000038
26.350000	-0.000039
26.360000	-0.000040
26.370000	-0.000040
26.380000	-0.000041
26.390000	-0.000042
26.400000	-0.000043
26.410000	-0.000044
26.420000	-0.000045
26.430000	-0.000046
26.440000	-0.000047
26.450000	-0.000048
26.460000	-0.000049
26.470000	-0.000050
26.480000	-0.000051
26.490000	-0.000052
26.500000	-0.000053
26.510000	-0.000054
26.520000	-0.000055
26.530000	-0.000056
26.540000	-0.000057
26.550000	-0.000058
26.560000	-0.000059
26.570000	-0.000060
26.580000	-0.000061
26.590000	-0.000062
26.600000	-0.000063
26.610000	-0.000064
26.620000	-0.000065
26.630000	-0.000066
26.640000	-0.000067
26.650000	-0.000068
26.660000	-0.000069
26.670000	-0.000070
26.680000	-0.000071
26.690000	-0.000073
26.700000	-0.000074
26.710000	-0.000075
26.720000	-0.000076
26.730000	-0.000077
26.740000	-0.000078
26.750000	-0.000079
26.760000	-0.000081
26.770000	-0.000082
26.780000	-0.000083
26.790000	-0.000084
26.800000	-0.000085
26.810000	-0.000087
26.820000	-0.000088
26.830000	-0.000089
26.840000	-0.000090
26.850000	-0.000091
26.860000	-0.000093
26.870000	-0.000094
26.880000	-0.000095
26.890000	-0.000096
26.900000	-0.000098
26.910000	-0.000099
26.920000	-0.000100
26.930000	-0.000102
26.940000	-0.000103
26.950000	-0.000104
26.960000	-0.000106
26.970000	-0.000107
26.980000	-0.000108
26.990000	-0.000110
27.000000	-0.000111
27.010000	-0.000112
27.020000	-0.000114
27.030000	-0.000115
27.040000	-0.000116
27.050000	-0.000118
27.060000	-0.000119
27.070000	-0.000121
27.080000	-0.000122
27.090000	-0.000124
27.100000	-0.000125
27.110000	-0.000127
27.120000	-0.000128
27.130000	-0.000130
27.140000	-0.000131
27.150000	-0.000133
27.160000	-0.000134
27.170000	-0.000136
27.180000	-0.000137
27.190000	-0.000139
27.200000	-0.000140
27.210000	-0.000142
27.220000	-0.000143
27.230000	-0.000145
27.240000	-0.000146
27.250000	-0.000148
27.260000	-0.000149
27.270000	-0.000151
27.280000	-0.000152
27.290000	-0.000155
27.300000	-0.000155
27.310000	-0.000158
27.320000	-0.000158
27.330000	-0.000161
27.340000	-0.000161
27.350000	-0.000165
27.360000	-0.000164
27.370000	-0.000168
27.380000	-0.000168
27.390000	-0.000172
27.400000	-0.000171
27.410000	-0.000175
27.420000	-0.000176
27.430000	-0.000176
27.440000	-0.000182
27.450000	-0.000177
27.460000	-0.000188
27.470000	-0.000178
27.480000	-0.000194
27.490000	-0.000178
27.500000	-0.000201
27.510000	-0.000178
27.520000	-0.000208
27.530000	-0.000178
27.540000	-0.000216
27.550000	-0.000177
27.560000	-0.000225
27.570000	-0.000175
27.580000	-0.000235
27.590000	-0.000172
27.600000	-0.000247
27.610000	-0.000167
27.620000	-0.000260
27.630000	-0.000160
27.640000	-0.000276
27.650000	-0.000151
27.660000	-0.000294
27.670000	-0.000139
27.680000	-0.000315
27.690000	-0.000124
