Time(s)	IR_denoised_median
0.000000	-564.904971
0.010000	-564.904971
0.020000	-564.904971
0.030000	-454.630153
0.040000	-389.204251
0.050000	-365.360877
0.060000	-308.293111
0.070000	-261.401265
0.080000	-163.077485
0.090000	-68.745940
0.100000	14.288533
0.110000	37.816343
0.120000	50.233758
0.130000	52.947724
0.140000	97.842639
0.150000	182.450970
0.160000	266.340711
0.170000	266.340711
0.180000	266.340711
0.190000	68.728216
0.200000	-479.355760
0.210000	-484.795185
0.220000	-498.847860
0.230000	-501.655621
0.240000	-501.655621
0.250000	-501.655621
0.260000	-489.993700
0.270000	-458.482819
0.280000	-379.068464
0.290000	-313.986575
0.300000	-246.887570
0.310000	-203.565168
0.320000	-139.471463
0.330000	-78.288043
0.340000	7.128455
0.350000	86.877727
0.360000	151.831848
0.370000	251.251390
0.380000	319.267658
0.390000	396.968548
0.400000	468.598172
0.410000	538.793644
0.420000	634.041722
0.430000	718.501671
0.440000	816.706298
0.450000	879.062395
0.460000	962.721428
0.470000	1026.411240
0.480000	1128.068562
0.490000	1201.479680
0.500000	1267.717075
0.510000	1267.717075
0.520000	1267.717075
0.530000	1179.119570
0.540000	1020.501798
0.550000	818.779645
0.560000	685.197988
0.570000	597.140900
0.580000	559.038301
0.590000	558.135332
0.600000	558.135332
0.610000	558.135332
0.620000	613.780340
0.630000	646.651689
0.640000	646.651689
0.650000	646.651689
0.660000	639.996613
0.670000	623.263594
0.680000	614.832593
0.690000	614.832593
0.700000	614.832593
0.710000	637.643046
0.720000	674.818587
0.730000	700.961253
0.740000	739.003245
0.750000	817.380850
0.760000	881.045810
0.770000	946.083951
0.780000	1015.140509
0.790000	1097.896342
0.800000	1202.321384
0.810000	1307.721784
0.820000	1408.636773
0.830000	1480.588557
0.840000	1555.200692
0.850000	1622.436223
0.860000	1700.939565
0.870000	1761.248792
0.880000	1807.869607
0.890000	1873.236777
0.900000	1897.795290
0.910000	1897.795290
0.920000	1897.795290
0.930000	1797.631565
0.940000	1648.634403
0.950000	1483.319783
0.960000	1343.603546
0.970000	1262.087373
0.980000	1252.813816
0.990000	1252.813816
1.000000	1252.813816
1.010000	1283.768625
1.020000	1340.008368
1.030000	1380.754071
1.040000	1402.414969
1.050000	1402.414969
1.060000	1402.414969
1.070000	1394.462286
1.080000	1383.265705
1.090000	1383.265705
1.100000	1383.265705
1.110000	1413.466077
1.120000	1437.127114
1.130000	1487.007243
1.140000	1495.938175
1.150000	1565.127727
1.160000	1567.238960
1.170000	1650.122042
1.180000	1679.884487
1.190000	1735.821010
1.200000	2337.859906
1.210000	2337.859906
1.220000	2337.859906
1.230000	2332.778410
1.240000	2176.193434
1.250000	2016.758159
1.260000	1793.019863
1.270000	1639.398967
1.280000	1519.500647
1.290000	1462.343373
1.300000	1422.902414
1.310000	1422.902414
1.320000	1422.902414
1.330000	1442.145983
1.340000	1464.590960
1.350000	1464.590960
1.360000	1464.590960
1.370000	1436.669355
1.380000	1413.924702
1.390000	1383.388639
1.400000	1339.925287
1.410000	1335.392745
1.420000	1335.392745
1.430000	1335.392745
1.440000	1347.703669
1.450000	1377.178386
1.460000	1416.738167
1.470000	1442.716933
1.480000	1488.058384
1.490000	1537.252878
1.500000	1576.514049
1.510000	1625.010278
1.520000	1715.137202
1.530000	1765.586748
1.540000	1825.249519
1.550000	1852.045109
1.560000	1949.894764
1.570000	1979.968823
1.580000	1979.968823
1.590000	1979.968823
1.600000	1451.648583
1.610000	1290.694664
1.620000	1223.948000
1.630000	1151.867418
1.640000	1143.844310
1.650000	1113.047110
1.660000	1113.047110
1.670000	1113.047110
1.680000	1113.047110
1.690000	1113.047110
1.700000	1076.938502
1.710000	1039.975095
1.720000	1000.275297
1.730000	977.770332
1.740000	935.589451
1.750000	928.659023
1.760000	926.946371
1.770000	926.946371
1.780000	928.659023
1.790000	963.112738
1.800000	1453.059157
1.810000	1499.218478
1.820000	1518.375593
1.830000	1575.491141
1.840000	1611.484526
1.850000	1648.118972
1.860000	1695.695031
1.870000	1695.695031
1.880000	1695.695031
1.890000	1624.972888
1.900000	1498.088387
1.910000	1287.049557
1.920000	1056.796421
1.930000	894.319070
1.940000	788.366763
1.950000	732.734418
1.960000	692.991397
1.970000	692.991397
1.980000	692.991397
1.990000	706.362505
2.000000	706.362505
2.010000	706.362505
2.020000	688.888868
2.030000	645.032443
2.040000	623.692342
2.050000	580.419770
2.060000	554.856734
2.070000	554.856734
2.080000	554.856734
2.090000	583.210863
2.100000	608.741950
2.110000	621.766946
2.120000	672.541952
2.130000	707.165368
2.140000	780.769606
2.150000	797.276421
2.160000	868.696489
2.170000	897.940615
2.180000	897.940615
2.190000	897.940615
2.200000	436.053019
2.210000	431.027245
2.220000	410.980454
2.230000	367.189685
2.240000	359.010964
2.250000	277.732072
2.260000	268.861003
2.270000	258.165938
2.280000	258.165938
2.290000	258.165938
2.300000	278.810788
2.310000	304.623371
2.320000	354.711661
2.330000	390.476043
2.340000	446.937373
2.350000	469.204096
2.360000	538.659400
2.370000	594.663791
2.380000	657.725712
2.390000	733.202964
2.400000	803.850716
2.410000	862.891336
2.420000	932.174469
2.430000	975.540168
2.440000	1022.798865
2.450000	1095.284828
2.460000	1167.413153
2.470000	1204.121860
2.480000	1246.354233
2.490000	1251.794243
2.500000	1251.794243
2.510000	1251.794243
2.520000	1123.839012
2.530000	893.327645
2.540000	632.870892
2.550000	400.937490
2.560000	226.937827
2.570000	123.616002
2.580000	75.040014
2.590000	11.259732
2.600000	-167.917291
2.610000	-167.917291
2.620000	-167.917291
2.630000	-145.480568
2.640000	-113.719547
2.650000	-82.093783
2.660000	-40.357103
2.670000	17.391218
2.680000	69.038126
2.690000	109.031005
2.700000	185.690195
2.710000	246.502292
2.720000	308.641688
2.730000	353.984222
2.740000	415.841617
2.750000	475.429798
2.760000	533.200677
2.770000	578.951975
2.780000	666.841930
2.790000	714.203329
2.800000	774.962883
2.810000	835.372894
2.820000	882.188846
2.830000	958.801179
2.840000	958.801179
2.850000	958.801179
2.860000	906.522230
2.870000	734.032784
2.880000	487.886245
2.890000	238.004937
2.900000	-201.352144
2.910000	-248.816693
2.920000	-279.117733
2.930000	-305.547319
2.940000	-326.083635
2.950000	-326.083635
2.960000	-326.083635
2.970000	-305.255038
2.980000	-289.461752
2.990000	-226.022745
3.000000	342.777523
3.010000	422.314927
3.020000	477.118324
3.030000	531.536976
3.040000	580.471113
3.050000	663.975424
3.060000	728.659128
3.070000	728.659128
3.080000	728.659128
3.090000	635.655060
3.100000	452.818706
3.110000	244.997766
3.120000	76.967643
3.130000	-11.640298
3.140000	-56.001118
3.150000	-56.001118
3.160000	-56.001118
3.170000	-49.469561
3.180000	-39.855774
3.190000	8.599132
3.200000	30.750744
3.210000	30.750744
3.220000	30.750744
3.230000	-16.649159
3.240000	-23.122999
3.250000	-23.122999
3.260000	-23.122999
3.270000	-12.751563
3.280000	15.015737
3.290000	76.898725
3.300000	118.037221
3.310000	155.826290
3.320000	227.190641
3.330000	272.566613
3.340000	329.688539
3.350000	418.334329
3.360000	479.044989
3.370000	547.438831
3.380000	622.375590
3.390000	704.623147
3.400000	759.683363
3.410000	822.070497
3.420000	906.008341
3.430000	973.446651
3.440000	1046.570580
3.450000	1109.790307
3.460000	1174.277001
3.470000	1259.226106
3.480000	1270.378696
3.490000	1270.378696
3.500000	1270.378696
3.510000	1137.678366
3.520000	920.023731
3.530000	688.726749
3.540000	510.722589
3.550000	396.685816
3.560000	317.376385
3.570000	281.813889
3.580000	243.942187
3.590000	243.942187
3.600000	243.942187
3.610000	276.571320
3.620000	296.073121
3.630000	296.073121
3.640000	296.073121
3.650000	271.414560
3.660000	249.998767
3.670000	230.229247
3.680000	230.229247
3.690000	230.229247
3.700000	237.821059
3.710000	278.687804
3.720000	309.490941
3.730000	351.767743
3.740000	409.164375
3.750000	474.870978
3.760000	510.803246
3.770000	581.306199
3.780000	651.218789
3.790000	715.874460
3.800000	778.705170
3.810000	858.532893
3.820000	936.134260
3.830000	998.254216
3.840000	1074.727487
3.850000	1134.854351
3.860000	1193.490189
3.870000	1269.509150
3.880000	1334.164989
3.890000	1373.246018
3.900000	1448.088686
3.910000	1448.088686
3.920000	1448.088686
3.930000	1415.339051
3.940000	1265.074127
3.950000	1003.910211
3.960000	754.564272
3.970000	576.343115
3.980000	419.790780
3.990000	334.081181
4.000000	274.793666
4.010000	235.957466
4.020000	218.936893
4.030000	210.826206
4.040000	206.687984
4.050000	165.068073
4.060000	154.769656
4.070000	100.854344
4.080000	66.256779
4.090000	17.401473
4.100000	-1.083897
4.110000	-1.083897
4.120000	-1.083897
4.130000	1.838739
4.140000	25.263180
4.150000	39.675011
4.160000	91.839815
4.170000	153.323950
4.180000	244.569056
4.190000	306.772765
4.200000	408.665257
4.210000	430.720357
4.220000	532.543104
4.230000	595.919040
4.240000	701.981767
4.250000	741.607604
4.260000	848.097846
4.270000	883.562034
4.280000	1018.069608
4.290000	1047.497692
4.300000	1195.223629
4.310000	1254.258528
4.320000	1450.145210
4.330000	1450.145210
4.340000	1450.145210
4.350000	1257.941168
4.360000	1110.111034
4.370000	606.307316
4.380000	376.984921
4.390000	-103.501998
4.400000	-3263.509303
4.410000	-3272.386652
4.420000	-3272.386652
4.430000	-3263.509303
4.440000	-3099.777877
4.450000	-3041.086532
4.460000	-2919.762095
4.470000	-2822.511606
4.480000	-2584.949038
4.490000	-2580.939274
4.500000	-2444.985498
4.510000	-2352.994275
4.520000	-2025.738028
4.530000	-1830.839329
4.540000	-1573.960008
4.550000	-1456.785732
4.560000	-1219.929968
4.570000	-1136.208921
4.580000	-1136.208921
4.590000	-1136.208921
4.600000	-1423.689312
4.610000	-1423.689312
4.620000	-1423.689312
4.630000	-1406.386846
4.640000	-1317.760576
4.650000	-1285.454694
4.660000	-1180.147066
4.670000	-1158.329176
4.680000	-1130.577298
4.690000	-1128.172448
4.700000	-1120.039108
4.710000	-1120.039108
4.720000	-1090.330498
4.730000	-1045.470818
4.740000	-1004.060150
4.750000	-983.815425
4.760000	-944.657945
4.770000	-884.291237
4.780000	-812.316393
4.790000	-752.835391
4.800000	-662.819509
4.810000	-628.764870
4.820000	-550.840965
4.830000	-479.136733
4.840000	-414.759021
4.850000	-323.443090
4.860000	-252.308458
4.870000	-252.308458
4.880000	-252.308458
4.890000	-390.739059
4.900000	-605.680447
4.910000	-786.582441
4.920000	-954.448922
4.930000	-1030.186554
4.940000	-1083.662672
4.950000	-1093.576892
4.960000	-1100.645194
4.970000	-1100.645194
4.980000	-1100.645194
4.990000	-1026.287741
5.000000	-430.031829
5.010000	-331.996284
5.020000	-292.046335
5.030000	-255.399611
5.040000	-255.399611
5.050000	-255.399611
5.060000	-407.015261
5.070000	-593.849688
5.080000	-819.755603
5.090000	-971.019667
5.100000	-1110.022824
5.110000	-1177.900273
5.120000	-1238.671600
5.130000	-1253.542937
5.140000	-1277.623122
5.150000	-1277.623122
5.160000	-1277.741065
5.170000	-1280.997297
5.180000	-1277.741065
5.190000	-1276.387323
5.200000	-1276.387323
5.210000	-1221.205128
5.220000	-1175.785746
5.230000	-1118.610319
5.240000	-1089.400699
5.250000	-1032.803012
5.260000	-966.264542
5.270000	-926.096744
5.280000	-868.959128
5.290000	-828.652144
5.300000	-777.535031
5.310000	-716.335799
5.320000	-645.159825
5.330000	-591.144562
5.340000	-591.144562
5.350000	-591.144562
5.360000	-639.372256
5.370000	-828.090006
5.380000	-1065.902260
5.390000	-1271.004724
5.400000	-1548.999552
5.410000	-1609.885672
5.420000	-1622.409829
5.430000	-1646.521004
5.440000	-1646.521004
5.450000	-1646.521004
5.460000	-1615.674262
5.470000	-1592.564696
5.480000	-1557.567581
5.490000	-1513.884128
5.500000	-1474.542257
5.510000	-1403.122241
5.520000	-1348.806656
5.530000	-1279.190987
5.540000	-1221.289069
5.550000	-1153.180237
5.560000	-1115.999659
5.570000	-1060.977620
5.580000	-981.882213
5.590000	-906.924797
5.600000	-869.835170
5.610000	-832.730578
5.620000	-798.978790
5.630000	-798.978790
5.640000	-798.978790
5.650000	-938.749182
5.660000	-1137.154277
5.670000	-1322.572231
5.680000	-1470.514700
5.690000	-1523.334451
5.700000	-1523.766716
5.710000	-1523.766716
5.720000	-1523.334451
5.730000	-1479.010032
5.740000	-1446.833172
5.750000	-1377.445508
5.760000	-1341.285099
5.770000	-1261.531713
5.780000	-1217.220201
5.790000	-1122.219296
5.800000	-457.019924
5.810000	-356.505618
5.820000	-356.505618
5.830000	-356.505618
5.840000	-434.303579
5.850000	-595.950696
5.860000	-845.914910
5.870000	-1018.178972
5.880000	-1150.138940
5.890000	-1244.365476
5.900000	-1310.435957
5.910000	-1313.483510
5.920000	-1313.483510
5.930000	-1313.483510
5.940000	-1310.930805
5.950000	-1260.215286
5.960000	-1258.358395
5.970000	-1258.358395
5.980000	-1258.358395
5.990000	-1271.268337
6.000000	-1302.979110
6.010000	-1302.979110
6.020000	-1302.979110
6.030000	-1293.687261
6.040000	-1261.916836
6.050000	-1206.989312
6.060000	-1150.967508
6.070000	-1124.364786
6.080000	-1056.790975
6.090000	-985.084419
6.100000	-907.557983
6.110000	-825.862275
6.120000	-777.472135
6.130000	-711.445726
6.140000	-634.593029
6.150000	-561.097229
6.160000	-503.757596
6.170000	-446.717170
6.180000	-379.985085
6.190000	-319.454679
6.200000	-256.190517
6.210000	-182.240682
6.220000	-111.501406
6.230000	-42.028284
6.240000	18.115459
6.250000	18.115459
6.260000	18.115459
6.270000	-69.199853
6.280000	-277.563475
6.290000	-513.568189
6.300000	-704.405016
6.310000	-813.077211
6.320000	-870.474986
6.330000	-915.650267
6.340000	-938.451068
6.350000	-938.451068
6.360000	-938.451068
6.370000	-918.919415
6.380000	-909.867284
6.390000	-897.114766
6.400000	-773.193399
6.410000	-717.135578
6.420000	-647.843204
6.430000	-579.455712
6.440000	-525.528734
6.450000	-439.648043
6.460000	-377.531261
6.470000	-304.628504
6.480000	-238.713125
6.490000	-181.600330
6.500000	-101.838380
6.510000	-43.814779
6.520000	19.197800
6.530000	75.832693
6.540000	126.232578
6.550000	225.598814
6.560000	283.836151
6.570000	339.687095
6.580000	415.363053
6.590000	468.492749
6.600000	468.492749
6.610000	468.492749
6.620000	308.346512
6.630000	98.513683
6.640000	-125.200486
6.650000	-257.302265
6.660000	-345.195297
6.670000	-389.732459
6.680000	-389.732459
6.690000	-389.732459
6.700000	-386.442921
6.710000	-374.285195
6.720000	-321.642264
6.730000	-271.369948
6.740000	-271.369948
6.750000	-271.369948
6.760000	-311.733583
6.770000	-317.393678
6.780000	-317.393678
6.790000	-317.393678
6.800000	73.528136
6.810000	155.585993
6.820000	200.745417
6.830000	269.446080
6.840000	314.647462
6.850000	397.583964
6.860000	434.131125
6.870000	497.134278
6.880000	547.288499
6.890000	614.857845
6.900000	679.288910
6.910000	768.698129
6.920000	810.997571
6.930000	878.920065
6.940000	951.433007
6.950000	951.433007
6.960000	951.433007
6.970000	830.469213
6.980000	667.240736
6.990000	487.616976
7.000000	331.832949
7.010000	279.860963
7.020000	250.753095
7.030000	250.753095
7.040000	250.753095
7.050000	283.236080
7.060000	323.557110
7.070000	375.126367
7.080000	375.126367
7.090000	375.126367
7.100000	373.852499
7.110000	369.221196
7.120000	346.050221
7.130000	346.050221
7.140000	346.050221
7.150000	385.726589
7.160000	407.418912
7.170000	465.805331
7.180000	476.561706
7.190000	533.366544
7.200000	900.937270
7.210000	900.937270
7.220000	900.937270
7.230000	886.485842
7.240000	884.874891
7.250000	884.874891
7.260000	884.874891
7.270000	918.153025
7.280000	953.704632
7.290000	1024.890283
7.300000	1024.890283
7.310000	1024.890283
7.320000	1023.293234
7.330000	1012.292925
7.340000	1005.449309
7.350000	1005.449309
7.360000	1005.449309
7.370000	1020.806095
7.380000	1046.640143
7.390000	1085.186441
7.400000	1112.576126
7.410000	1159.716988
7.420000	1187.319269
7.430000	1246.495999
7.440000	1317.869165
7.450000	1377.262381
7.460000	1429.499441
7.470000	1499.083715
7.480000	1570.019549
7.490000	1657.993286
7.500000	1724.391883
7.510000	1776.029124
7.520000	1838.818301
7.530000	1921.018212
7.540000	1981.109842
7.550000	2046.197713
7.560000	2116.329081
7.570000	2116.329081
7.580000	2116.329081
7.590000	2090.911243
7.600000	1915.119767
7.610000	1694.571956
7.620000	1493.045876
7.630000	1318.080418
7.640000	1230.119485
7.650000	1182.345184
7.660000	1182.296304
7.670000	1182.296304
7.680000	1182.345184
7.690000	1197.442232
7.700000	1218.879582
7.710000	1234.124713
7.720000	1234.124713
7.730000	1234.124713
7.740000	1194.138875
7.750000	1162.414661
7.760000	1141.478447
7.770000	1141.478447
7.780000	1141.478447
7.790000	1169.933924
7.800000	1185.612936
7.810000	1214.312798
7.820000	1246.651295
7.830000	1264.668441
7.840000	1320.883387
7.850000	1355.716173
7.860000	1411.394892
7.870000	1466.588929
7.880000	1515.949682
7.890000	1574.516858
7.900000	1626.418523
7.910000	1676.500411
7.920000	1717.853557
7.930000	1769.553559
7.940000	1814.186335
7.950000	1885.745594
7.960000	1915.233646
7.970000	1953.263260
7.980000	1980.811079
7.990000	1980.811079
8.000000	1980.811079
8.010000	1865.402455
8.020000	1661.669444
8.030000	1401.032153
8.040000	1162.653647
8.050000	1006.603729
8.060000	884.333442
8.070000	884.333442
8.080000	884.333442
8.090000	971.080864
8.100000	1070.402383
8.110000	1211.147904
8.120000	1219.196625
8.130000	1219.196625
8.140000	1219.196625
8.150000	1210.383141
8.160000	1163.296453
8.170000	1144.914925
8.180000	1058.778108
8.190000	913.724070
8.200000	603.932501
8.210000	264.181193
8.220000	-167.466744
8.230000	-506.699199
8.240000	-932.879216
8.250000	-1252.570543
8.260000	-1594.191064
8.270000	-1753.544216
8.280000	-1753.544216
8.290000	-1753.544216
8.300000	-795.276637
8.310000	-795.276637
8.320000	-795.276637
8.330000	-855.241508
8.340000	-1068.066940
8.350000	-1115.567586
8.360000	-1210.335044
8.370000	-1220.969269
8.380000	-1220.969269
8.390000	-1220.969269
8.400000	-1159.865681
8.410000	-1127.730326
8.420000	-1112.632245
8.430000	-1056.967108
8.440000	-1053.835881
8.450000	-974.618428
8.460000	-945.763953
8.470000	-867.673107
8.480000	-809.179199
8.490000	-727.445976
8.500000	-657.834452
8.510000	-570.064115
8.520000	-526.770789
8.530000	-440.295660
8.540000	-392.198413
8.550000	-337.205676
8.560000	-337.205676
8.570000	-337.205676
8.580000	-409.105521
8.590000	-580.605024
8.600000	-775.388575
8.610000	-956.850796
8.620000	-1055.610551
8.630000	-1123.458608
8.640000	-1143.673867
8.650000	-1143.673867
8.660000	-1143.673867
8.670000	-1120.900120
8.680000	-1054.873789
8.690000	-1016.798962
8.700000	-873.508903
8.710000	-833.667976
8.720000	-785.294875
8.730000	-727.874900
8.740000	-630.028051
8.750000	-600.498877
8.760000	-502.118206
8.770000	-470.905794
8.780000	-470.905794
8.790000	-470.905794
8.800000	-1121.565485
8.810000	-1121.565485
8.820000	-1121.565485
8.830000	-1109.524194
8.840000	-1075.560654
8.850000	-1075.560654
8.860000	-1075.560654
8.870000	-1116.855304
8.880000	-1126.218422
8.890000	-1138.740325
8.900000	-1142.718821
8.910000	-1179.176858
8.920000	-1179.176858
8.930000	-1179.176858
8.940000	-1151.974836
8.950000	-1147.206100
8.960000	-1122.990221
8.970000	-1081.059179
8.980000	-1031.768220
8.990000	-980.177830
9.000000	-887.461496
9.010000	-839.675354
9.020000	-762.750904
9.030000	-707.551987
9.040000	-637.837084
9.050000	-599.690784
9.060000	-510.606160
9.070000	-485.048940
9.080000	-485.048940
9.090000	-485.048940
9.100000	-1077.801965
9.110000	-1077.801965
9.120000	-1077.801965
9.130000	-1053.783199
9.140000	-964.795351
9.150000	-948.628301
9.160000	-867.066846
9.170000	-811.139196
9.180000	-705.918664
9.190000	-631.110899
9.200000	-562.521174
9.210000	-493.165893
9.220000	-405.129634
9.230000	-345.435172
9.240000	-345.435172
9.250000	-345.435172
9.260000	-361.914633
9.270000	-512.504134
9.280000	-699.238797
9.290000	-874.010812
9.300000	-999.628456
9.310000	-1089.692439
9.320000	-1106.913708
9.330000	-1106.913708
9.340000	-1106.913708
9.350000	-1092.533586
9.360000	-1044.520312
9.370000	-1000.437553
9.380000	-962.903065
9.390000	-962.903065
9.400000	-962.903065
9.410000	-964.177579
9.420000	-993.295703
9.430000	-993.295703
9.440000	-993.295703
9.450000	-953.882621
9.460000	-949.852274
9.470000	-899.560912
9.480000	-876.038328
9.490000	-788.798179
9.500000	-257.441736
9.510000	-160.525966
9.520000	-84.328307
9.530000	-84.328307
9.540000	-84.328307
9.550000	-203.562521
9.560000	-414.462631
9.570000	-609.467561
9.580000	-768.443764
9.590000	-861.376543
9.600000	-933.662892
9.610000	-949.092037
9.620000	-969.180868
9.630000	-969.180868
9.640000	-969.180868
9.650000	-935.281059
9.660000	-912.347672
9.670000	-904.071162
9.680000	-904.071162
9.690000	-904.071162
9.700000	-912.185765
9.710000	-914.980908
9.720000	-914.980908
9.730000	-914.980908
9.740000	-887.970064
9.750000	-849.559421
9.760000	-808.880710
9.770000	-775.164624
9.780000	-740.771126
9.790000	-698.797641
9.800000	-637.674188
9.810000	-549.465781
9.820000	-499.804114
9.830000	-461.904565
9.840000	-405.949844
9.850000	-319.414635
9.860000	-247.276958
9.870000	-208.877389
9.880000	-161.456260
9.890000	-106.484024
9.900000	-58.694038
9.910000	2.985989
9.920000	56.929569
9.930000	92.465104
9.940000	92.465104
9.950000	92.465104
9.960000	-71.753733
9.970000	-296.655526
9.980000	-490.130357
9.990000	-602.127896
10.000000	-660.740115
10.010000	-697.628220
10.020000	-697.628220
10.030000	-697.628220
10.040000	-683.744861
10.050000	-653.912256
10.060000	-619.088041
10.070000	-580.697292
10.080000	-533.428251
10.090000	-464.476893
10.100000	-409.917459
10.110000	-367.164665
10.120000	-315.370459
10.130000	-260.940841
10.140000	-185.769276
10.150000	-107.828848
10.160000	-51.197187
10.170000	22.442598
10.180000	72.145697
10.190000	113.859206
10.200000	169.494276
10.210000	238.203029
10.220000	286.744018
10.230000	345.712729
10.240000	414.900104
10.250000	487.194827
10.260000	487.194827
10.270000	487.194827
10.280000	451.478864
10.290000	288.770071
10.300000	115.825027
10.310000	-24.845118
10.320000	-110.890066
10.330000	-110.890066
10.340000	-110.890066
10.350000	-101.111968
10.360000	-80.574117
10.370000	-54.663412
10.380000	-0.378345
10.390000	34.587803
10.400000	35.146524
10.410000	35.146524
10.420000	35.146524
10.430000	35.146524
10.440000	35.146524
10.450000	36.636709
10.460000	64.566126
10.470000	104.039834
10.480000	144.701482
10.490000	186.471899
10.500000	220.814709
10.510000	265.979016
10.520000	346.948301
10.530000	411.275717
10.540000	467.251345
10.550000	520.568298
10.560000	590.595340
10.570000	653.746665
10.580000	735.077063
10.590000	802.773339
10.600000	863.669798
10.610000	939.847110
10.620000	1005.135584
10.630000	1081.057794
10.640000	1139.471226
10.650000	1201.410146
10.660000	1268.761206
10.670000	1338.093135
10.680000	1338.093135
10.690000	1338.093135
10.700000	1203.273540
10.710000	1012.544761
10.720000	806.618940
10.730000	644.054421
10.740000	556.900817
10.750000	527.436929
10.760000	527.436929
10.770000	527.436929
10.780000	529.623551
10.790000	565.102602
10.800000	619.074021
10.810000	635.481770
10.820000	635.481770
10.830000	635.481770
10.840000	605.381175
10.850000	570.588493
10.860000	565.202515
10.870000	555.238023
10.880000	555.238023
10.890000	555.238023
10.900000	607.457316
10.910000	627.802311
10.920000	654.911242
10.930000	686.267224
10.940000	742.442438
10.950000	778.566437
10.960000	813.161975
10.970000	861.872149
10.980000	940.897629
10.990000	992.990885
11.000000	1056.911894
11.010000	1090.903555
11.020000	1192.323481
11.030000	1232.210000
11.040000	1278.290809
11.050000	1303.271111
11.060000	1395.591790
11.070000	1443.799088
11.080000	1443.799088
11.090000	1443.799088
11.100000	798.820465
11.110000	741.932405
11.120000	741.932405
11.130000	741.932405
11.140000	752.844194
11.150000	755.138567
11.160000	755.138567
11.170000	755.138567
11.180000	748.993270
11.190000	698.428143
11.200000	672.834805
11.210000	627.830308
11.220000	627.830308
11.230000	627.830308
11.240000	642.230585
11.250000	661.061867
11.260000	685.723624
11.270000	693.974455
11.280000	735.430906
11.290000	770.659338
11.300000	830.347654
11.310000	871.157763
11.320000	929.500279
11.330000	973.485414
11.340000	1037.852699
11.350000	1081.621856
11.360000	1147.451561
11.370000	1231.647660
11.380000	1287.950134
11.390000	1328.851395
11.400000	1368.469668
11.410000	1434.107763
11.420000	1468.774017
11.430000	1518.663786
11.440000	1570.932352
11.450000	1631.286796
11.460000	1677.301922
11.470000	1677.301922
11.480000	1677.301922
11.490000	1549.452814
11.500000	1337.418611
11.510000	1142.473283
11.520000	968.282194
11.530000	898.728871
11.540000	827.638366
11.550000	827.638366
11.560000	827.638366
11.570000	853.538182
11.580000	881.340968
11.590000	923.931630
11.600000	1474.288057
11.610000	1555.300442
11.620000	1598.115859
11.630000	1663.665006
11.640000	1705.661501
11.650000	1798.372731
11.660000	1868.814478
11.670000	1868.814478
11.680000	1868.814478
11.690000	1840.145369
11.700000	1705.240577
11.710000	1512.970334
11.720000	1298.637869
11.730000	1155.965253
11.740000	1084.786426
11.750000	1028.814791
11.760000	1000.561244
11.770000	1000.561244
11.780000	1000.561244
11.790000	1003.209302
11.800000	1028.486528
11.810000	1028.486528
11.820000	1028.486528
11.830000	978.270330
11.840000	970.290520
11.850000	906.096803
11.860000	906.096803
11.870000	899.161904
11.880000	906.096803
11.890000	909.781651
11.900000	940.568051
11.910000	979.741344
11.920000	1003.413699
11.930000	1042.360665
11.940000	1134.080568
11.950000	1179.731918
11.960000	1348.083552
11.970000	1351.636051
11.980000	1351.636051
11.990000	1348.083552
12.000000	-1391.358548
12.010000	-1452.522598
12.020000	-1452.522598
12.030000	-1437.594192
12.040000	-1391.358548
12.050000	-1437.594192
12.060000	-1347.765019
12.070000	-1376.842761
12.080000	-1347.765019
12.090000	-1323.936439
12.100000	-1271.156337
12.110000	-1257.143891
12.120000	-1116.096996
12.130000	-1110.776709
12.140000	-1003.673368
12.150000	-959.524517
12.160000	-844.440163
12.170000	-818.089666
12.180000	-739.392409
12.190000	-682.257201
12.200000	-570.945954
12.210000	-507.926920
12.220000	-386.939341
12.230000	-326.226791
12.240000	-249.412122
12.250000	-249.412122
12.260000	-249.412122
12.270000	-315.427405
12.280000	-499.340372
12.290000	-729.001724
12.300000	-892.533063
12.310000	-1045.051378
12.320000	-1127.429023
12.330000	-1170.365173
12.340000	-1187.295358
12.350000	-1187.295358
12.360000	-1187.295358
12.370000	-1171.321106
12.380000	-1131.676848
12.390000	-1127.945399
12.400000	-1073.070758
12.410000	-1036.018384
12.420000	-973.175942
12.430000	-918.324718
12.440000	-859.175669
12.450000	-771.619957
12.460000	-716.430185
12.470000	-657.671518
12.480000	-594.804126
12.490000	-509.697245
12.500000	-509.697245
12.510000	-509.697245
12.520000	-582.512801
12.530000	-746.156488
12.540000	-929.861202
12.550000	-1121.364250
12.560000	-1272.134265
12.570000	-1337.607426
12.580000	-1353.652993
12.590000	-1367.051147
12.600000	-1367.051147
12.610000	-1367.051147
12.620000	-1284.784697
12.630000	-1270.773005
12.640000	-1270.773005
12.650000	-1270.773005
12.660000	-1288.525830
12.670000	-1310.443180
12.680000	-1336.298804
12.690000	-1336.298804
12.700000	-1336.298804
12.710000	-1322.481919
12.720000	-1273.776271
12.730000	-1216.132700
12.740000	-1178.288749
12.750000	-1143.686525
12.760000	-1090.815162
12.770000	-1038.378419
12.780000	-985.314978
12.790000	-922.074753
12.800000	-866.918992
12.810000	-811.726490
12.820000	-760.584450
12.830000	-714.397439
12.840000	-669.264698
12.850000	-613.073854
12.860000	-561.049754
12.870000	-561.049754
12.880000	-561.049754
12.890000	-684.231287
12.900000	-867.053309
12.910000	-1065.665778
12.920000	-1208.007507
12.930000	-1307.362804
12.940000	-1396.042080
12.950000	-1482.021094
12.960000	-1499.946255
12.970000	-1499.946255
12.980000	-1499.946255
12.990000	-1471.587443
13.000000	-1438.115455
13.010000	-1424.325097
13.020000	-1422.925332
13.030000	-1422.925332
13.040000	-1422.925332
13.050000	-1422.925332
13.060000	-1432.557739
13.070000	-1432.557739
13.080000	-1422.768519
13.090000	-1414.830181
13.100000	-1385.624688
13.110000	-1346.879752
13.120000	-1319.770944
13.130000	-1258.772418
13.140000	-1213.203809
13.150000	-1170.521087
13.160000	-1120.669228
13.170000	-1077.360545
13.180000	-1019.063141
13.190000	-950.296627
13.200000	-880.495395
13.210000	-832.293571
13.220000	-777.813281
13.230000	-712.378361
13.240000	-712.378361
13.250000	-712.378361
13.260000	-780.669728
13.270000	-948.601033
13.280000	-1110.871661
13.290000	-1223.834007
13.300000	-1303.259050
13.310000	-1308.935190
13.320000	-1308.935190
13.330000	-1308.935190
13.340000	-1293.759028
13.350000	-1214.596874
13.360000	-1177.967907
13.370000	-1123.947757
13.380000	-1123.947757
13.390000	-1123.947757
13.400000	-1131.091857
13.410000	-1131.091857
13.420000	-1131.091857
13.430000	-1123.212840
13.440000	-1116.051941
13.450000	-1067.572857
13.460000	-1044.764648
13.470000	-964.536992
13.480000	-944.043249
13.490000	-871.888893
13.500000	-231.223298
13.510000	-131.722805
13.520000	-131.722805
13.530000	-131.722805
13.540000	-217.544284
13.550000	-397.975538
13.560000	-591.146496
13.570000	-696.140885
13.580000	-779.219419
13.590000	-809.049281
13.600000	-852.549670
13.610000	-852.549670
13.620000	-852.549670
13.630000	-828.777150
13.640000	-802.333706
13.650000	-760.901119
13.660000	-753.652681
13.670000	-749.465385
13.680000	-749.465385
13.690000	-753.652681
13.700000	-753.652681
13.710000	-751.030264
13.720000	-751.030264
13.730000	-717.314391
13.740000	-703.192247
13.750000	-654.182660
13.760000	-626.661423
13.770000	-558.728256
13.780000	-508.461772
13.790000	-451.047277
13.800000	-226.208909
13.810000	-226.208909
13.820000	-226.208909
13.830000	-239.535157
13.840000	-239.535157
13.850000	-239.535157
13.860000	-229.251976
13.870000	-184.057294
13.880000	-155.042692
13.890000	-104.330608
13.900000	-81.067399
13.910000	-30.312448
13.920000	10.660777
13.930000	54.850509
13.940000	107.374598
13.950000	159.984611
13.960000	220.139983
13.970000	283.094174
13.980000	322.856570
13.990000	388.419798
14.000000	433.321658
14.010000	473.929220
14.020000	532.815582
14.030000	574.290964
14.040000	655.577591
14.050000	697.290949
14.060000	747.704208
14.070000	821.212413
14.080000	868.671372
14.090000	928.389666
14.100000	928.389666
14.110000	928.389666
14.120000	891.511744
14.130000	761.703946
14.140000	588.319940
14.150000	441.231265
14.160000	356.053205
14.170000	334.685628
14.180000	331.676546
14.190000	331.676546
14.200000	331.676546
14.210000	335.779825
14.220000	379.161146
14.230000	387.624983
14.240000	387.624983
14.250000	387.624983
14.260000	372.092017
14.270000	350.031587
14.280000	350.031587
14.290000	350.031587
14.300000	354.294552
14.310000	381.807860
14.320000	423.395431
14.330000	439.158755
14.340000	471.750651
14.350000	506.379930
14.360000	571.252466
14.370000	602.376820
14.380000	648.092185
14.390000	698.242864
14.400000	774.048325
14.410000	822.936909
14.420000	900.332179
14.430000	945.343001
14.440000	1012.966254
14.450000	1043.466306
14.460000	1121.028355
14.470000	1146.118142
14.480000	1146.118142
14.490000	1146.118142
14.500000	684.007838
14.510000	684.007838
14.520000	684.007838
14.530000	688.283287
14.540000	741.292201
14.550000	741.292201
14.560000	741.292201
14.570000	702.134671
14.580000	689.656674
14.590000	663.514346
14.600000	663.514346
14.610000	663.514346
14.620000	676.603670
14.630000	698.806668
14.640000	718.768077
14.650000	742.302661
14.660000	789.009922
14.670000	820.679747
14.680000	872.493504
14.690000	896.797190
14.700000	896.797190
14.710000	896.797190
14.720000	849.787374
14.730000	820.917870
14.740000	792.629259
14.750000	787.479016
14.760000	787.479016
14.770000	787.479016
14.780000	803.025044
14.790000	803.025044
14.800000	803.025044
14.810000	768.516812
14.820000	722.781036
14.830000	692.230948
14.840000	660.169516
14.850000	660.169516
14.860000	660.169516
14.870000	661.820483
14.880000	679.153752
14.890000	710.496643
14.900000	747.163954
14.910000	777.209250
14.920000	802.257007
14.930000	850.039308
14.940000	887.228262
14.950000	931.054294
14.960000	994.233337
14.970000	1046.998966
14.980000	1079.339176
14.990000	1154.190640
15.000000	1207.142017
15.010000	1242.618272
15.020000	1288.055066
15.030000	1315.942106
15.040000	1368.206045
15.050000	1424.141223
15.060000	1485.466003
15.070000	1541.353348
15.080000	1584.783950
15.090000	1649.725635
15.100000	1649.725635
15.110000	1649.725635
15.120000	1584.301969
15.130000	1396.469474
15.140000	1173.951419
15.150000	982.884774
15.160000	871.599668
15.170000	801.107936
15.180000	779.424677
15.190000	764.240510
15.200000	764.240510
15.210000	764.240510
15.220000	780.287247
15.230000	807.456295
15.240000	807.456295
15.250000	807.456295
15.260000	775.986464
15.270000	745.051888
15.280000	709.878018
15.290000	688.863108
15.300000	688.863108
15.310000	688.863108
15.320000	708.112317
15.330000	738.713492
15.340000	769.427405
15.350000	779.168166
15.360000	837.036561
15.370000	872.284983
15.380000	911.960443
15.390000	952.363352
15.400000	1025.026963
15.410000	1055.195521
15.420000	1138.607345
15.430000	1170.522499
15.440000	1230.739857
15.450000	1271.544367
15.460000	1349.202910
15.470000	1365.185842
15.480000	1365.185842
15.490000	1365.185842
15.500000	993.526788
15.510000	993.526788
15.520000	993.526788
15.530000	1017.889922
15.540000	1075.954174
15.550000	1108.961619
15.560000	1109.854665
15.570000	1109.854665
15.580000	1108.961619
15.590000	1078.463578
15.600000	1078.463578
15.610000	1078.463578
15.620000	1104.325014
15.630000	1119.740515
15.640000	1174.624043
15.650000	1192.372857
15.660000	1220.303398
15.670000	1250.894234
15.680000	1310.114058
15.690000	1329.194393
15.700000	1394.389140
15.710000	1422.066235
15.720000	1490.145864
15.730000	1522.552675
15.740000	1610.398960
15.750000	1642.520337
15.760000	1715.258381
15.770000	1726.980235
15.780000	1726.980235
15.790000	1726.980235
15.800000	1441.790479
15.810000	1441.790479
15.820000	1441.790479
15.830000	1557.710910
15.840000	1645.067766
15.850000	1645.067766
15.860000	1645.067766
15.870000	1603.994758
15.880000	1583.154371
15.890000	1541.650870
15.900000	1483.533994
15.910000	1302.031838
15.920000	1068.431349
15.930000	719.070274
15.940000	325.728250
15.950000	4.256723
15.960000	-330.500548
15.970000	-608.103672
15.980000	-740.544353
15.990000	-740.544353
16.000000	-897.150165
16.010000	-897.150165
16.020000	-897.150165
16.030000	-983.552725
16.040000	-1020.873586
16.050000	-1020.873586
16.060000	-1020.873586
16.070000	-1005.490915
16.080000	-1005.490915
16.090000	-1004.124308
16.100000	-1004.124308
16.110000	-999.670557
16.120000	-985.447974
16.130000	-961.447660
16.140000	-919.519673
16.150000	-897.528502
16.160000	-892.880802
16.170000	-871.083577
16.180000	-865.837656
16.190000	-851.044123
16.200000	-820.199699
16.210000	-786.640534
16.220000	-784.038771
16.230000	-730.632566
16.240000	-683.522320
16.250000	-652.047984
16.260000	-606.292391
16.270000	-544.530223
16.280000	-482.099139
16.290000	-428.988003
16.300000	-370.829640
16.310000	-328.533734
16.320000	-253.360313
16.330000	-202.361911
16.340000	-157.838450
16.350000	-157.838450
16.360000	-157.838450
16.370000	-266.337448
16.380000	-450.146462
16.390000	-607.912963
16.400000	-751.760837
16.410000	-823.289866
16.420000	-854.619310
16.430000	-884.681348
16.440000	-902.336505
16.450000	-902.336505
16.460000	-902.336505
16.470000	-872.931670
16.480000	-863.693182
16.490000	-863.693182
16.500000	-863.693182
16.510000	-879.311764
16.520000	-887.514839
16.530000	-887.514839
16.540000	-887.514839
16.550000	-869.747306
16.560000	-827.786838
16.570000	-781.653048
16.580000	-758.078293
16.590000	-709.355656
16.600000	-664.582310
16.610000	-616.961583
16.620000	-588.166712
16.630000	-558.456234
16.640000	-496.722646
16.650000	-444.152470
16.660000	-432.255297
16.670000	-369.514367
16.680000	-297.156366
16.690000	-297.156366
16.700000	-297.156366
16.710000	-386.632496
16.720000	-556.204200
16.730000	-749.305735
16.740000	-900.529448
16.750000	-997.129231
16.760000	-1063.963841
16.770000	-1107.909434
16.780000	-1118.940872
16.790000	-1118.940872
16.800000	-1118.940872
16.810000	-1092.341837
16.820000	-1074.506641
16.830000	-1058.995310
16.840000	-1058.995310
16.850000	-1058.995310
16.860000	-1108.145659
16.870000	-1108.145659
16.880000	-1108.145659
16.890000	-1106.862576
16.900000	-1101.982775
16.910000	-1070.626049
16.920000	-1067.681248
16.930000	-1021.049733
16.940000	-978.718660
16.950000	-938.344410
16.960000	-891.749389
16.970000	-855.717090
16.980000	-798.656798
16.990000	-738.234693
17.000000	-689.566927
17.010000	-629.657424
17.020000	-575.597042
17.030000	-540.078032
17.040000	-480.485277
17.050000	-425.705116
17.060000	-368.283857
17.070000	-312.374293
17.080000	-312.374293
17.090000	-312.374293
17.100000	-438.806024
17.110000	-589.811974
17.120000	-763.712782
17.130000	-915.299809
17.140000	-987.597787
17.150000	-1033.098907
17.160000	-1075.414102
17.170000	-1075.414102
17.180000	-1075.414102
17.190000	-1060.145612
17.200000	-1023.794211
17.210000	-1023.794211
17.220000	-1023.794211
17.230000	-1040.675264
17.240000	-1085.530762
17.250000	-1119.888506
17.260000	-1139.964360
17.270000	-1139.964360
17.280000	-1139.964360
17.290000	-1109.248942
17.300000	-1065.528015
17.310000	-1039.444721
17.320000	-1039.444721
17.330000	-1039.444721
17.340000	-1039.444721
17.350000	-1022.994554
17.360000	-974.779298
17.370000	-919.651782
17.380000	-915.059168
17.390000	-915.059168
17.400000	-913.778266
17.410000	-912.795053
17.420000	-912.795053
17.430000	-910.510121
17.440000	-903.743738
17.450000	-875.814128
17.460000	-842.435580
17.470000	-813.758251
17.480000	-772.311984
17.490000	-721.768487
17.500000	-669.205609
17.510000	-627.803162
17.520000	-572.000319
17.530000	-506.929435
17.540000	-443.818872
17.550000	-374.007980
17.560000	-334.770280
17.570000	-266.827824
17.580000	-202.980864
17.590000	-152.589353
17.600000	-100.128953
17.610000	-56.428901
17.620000	-56.428901
17.630000	-56.428901
17.640000	-87.455533
17.650000	-240.962702
17.660000	-419.807216
17.670000	-556.412588
17.680000	-659.372224
17.690000	-678.747579
17.700000	-678.747579
17.710000	-678.747579
17.720000	-668.762075
17.730000	-652.819260
17.740000	-625.687229
17.750000	-574.873481
17.760000	-535.746068
17.770000	-487.776155
17.780000	-442.895784
17.790000	-410.673799
17.800000	-339.879706
17.810000	-283.859600
17.820000	-236.701533
17.830000	-170.986720
17.840000	-92.614988
17.850000	-20.148461
17.860000	18.446159
17.870000	62.876380
17.880000	128.441252
17.890000	179.763295
17.900000	234.583777
17.910000	299.621749
17.920000	357.662653
17.930000	434.600964
17.940000	434.600964
17.950000	434.600964
17.960000	343.343988
17.970000	205.058779
17.980000	30.915679
17.990000	-81.237454
18.000000	-170.885624
18.010000	-202.322711
18.020000	-214.211256
18.030000	-214.211256
18.040000	-214.211256
18.050000	-171.784606
18.060000	-167.767941
18.070000	-116.841645
18.080000	-81.829612
18.090000	-24.614895
18.100000	476.168151
18.110000	553.079131
18.120000	572.562216
18.130000	659.116245
18.140000	687.277608
18.150000	735.722167
18.160000	786.736637
18.170000	874.479182
18.180000	874.479182
18.190000	874.479182
18.200000	792.915022
18.210000	645.792328
18.220000	475.759994
18.230000	364.350199
18.240000	294.343960
18.250000	272.985693
18.260000	254.793751
18.270000	254.793751
18.280000	254.793751
18.290000	290.821549
18.300000	329.207726
18.310000	340.005412
18.320000	340.005412
18.330000	340.005412
18.340000	333.781524
18.350000	324.940481
18.360000	324.940481
18.370000	324.940481
18.380000	327.634302
18.390000	335.665206
18.400000	365.367584
18.410000	398.274746
18.420000	437.172956
18.430000	477.879034
18.440000	512.983528
18.450000	543.520746
18.460000	601.894659
18.470000	651.988823
18.480000	651.988823
18.490000	662.595223
18.500000	679.734697
18.510000	673.377375
18.520000	662.595223
18.530000	662.595223
18.540000	652.561958
18.550000	623.166572
18.560000	603.088626
18.570000	602.033526
18.580000	602.033526
18.590000	603.088626
18.600000	618.976515
18.610000	645.668262
18.620000	683.060412
18.630000	710.257318
18.640000	738.248609
18.650000	778.865501
18.660000	854.482667
18.670000	889.220807
18.680000	943.107064
18.690000	974.313495
18.700000	1003.921448
18.710000	1062.449364
18.720000	1119.586075
18.730000	1175.686825
18.740000	1203.191435
18.750000	1252.154903
18.760000	1309.641254
18.770000	1356.623739
18.780000	1414.218830
18.790000	1474.029017
18.800000	1474.029017
18.810000	1474.029017
18.820000	1446.086813
18.830000	1265.174050
18.840000	1063.885118
18.850000	882.597170
18.860000	763.706253
18.870000	673.829378
18.880000	633.693154
18.890000	613.941105
18.900000	593.534767
18.910000	593.534767
18.920000	593.534767
18.930000	609.635092
18.940000	609.635092
18.950000	609.635092
18.960000	590.178051
18.970000	550.809373
18.980000	514.680346
18.990000	500.704068
19.000000	480.067556
19.010000	480.067556
19.020000	480.067556
19.030000	512.630859
19.040000	536.951227
19.050000	564.691302
19.060000	591.332786
19.070000	632.823051
19.080000	674.645627
19.090000	692.943955
19.100000	748.204781
19.110000	778.743811
19.120000	830.072704
19.130000	888.394956
19.140000	939.954753
19.150000	963.038086
19.160000	997.018248
19.170000	1044.593965
19.180000	1078.011391
19.190000	1126.318950
19.200000	1165.872701
19.210000	1221.188889
19.220000	1269.616926
19.230000	1311.122430
19.240000	1311.122430
19.250000	1311.122430
19.260000	1193.040800
19.270000	1036.136381
19.280000	836.763010
19.290000	658.345276
19.300000	566.501697
19.310000	497.208267
19.320000	472.486597
19.330000	443.887295
19.340000	443.887295
19.350000	443.887295
19.360000	469.457406
19.370000	473.699663
19.380000	473.699663
19.390000	473.699663
19.400000	432.133811
19.410000	392.803658
19.420000	380.018063
19.430000	378.963432
19.440000	377.429477
19.450000	377.429477
19.460000	380.018063
19.470000	403.871119
19.480000	421.783497
19.490000	468.528269
19.500000	493.901229
19.510000	535.430259
19.520000	577.877571
19.530000	619.372152
19.540000	693.955391
19.550000	729.023626
19.560000	790.415586
19.570000	830.364847
19.580000	830.364847
19.590000	830.364847
19.600000	664.323487
19.610000	572.342584
19.620000	519.052841
19.630000	502.195990
19.640000	502.195990
19.650000	502.195990
19.660000	558.413973
19.670000	591.532020
19.680000	624.066757
19.690000	624.066757
19.700000	624.066757
19.710000	598.006132
19.720000	561.481158
19.730000	541.205542
19.740000	527.157497
19.750000	511.405251
19.760000	505.662500
19.770000	495.854979
19.780000	492.343445
19.790000	490.795667
19.800000	490.795667
19.810000	490.795667
19.820000	507.454631
19.830000	521.502169
19.840000	553.282878
19.850000	614.525062
19.860000	643.900060
19.870000	688.835783
19.880000	751.381251
19.890000	835.138939
19.900000	936.831230
19.910000	1100.559421
19.920000	1233.892918
19.930000	1405.408325
19.940000	1656.866653
19.950000	1656.866653
19.960000	1656.866653
19.970000	1633.690769
19.980000	1402.707199
19.990000	1218.687330
20.000000	1001.100458
20.010000	669.666478
20.020000	58.239197
20.030000	-534.095846
20.040000	-991.144241
20.050000	-1343.281177
20.060000	-1630.575332
20.070000	-1836.332212
20.080000	-1836.332212
20.090000	-1836.332212
20.100000	-1514.138250
20.110000	-1430.734260
20.120000	-1353.381500
20.130000	-1241.047566
20.140000	-1155.933671
20.150000	-973.874884
20.160000	-760.032211
20.170000	-525.580781
20.180000	-525.580781
20.190000	-525.580781
20.200000	-707.998775
20.210000	-707.998775
20.220000	-707.998775
20.230000	-701.630484
20.240000	-650.401565
20.250000	-598.354141
20.260000	-536.690248
20.270000	-495.215292
20.280000	-441.840842
20.290000	-391.237212
20.300000	-314.905644
20.310000	-247.465697
20.320000	-177.878675
20.330000	-130.826351
20.340000	-93.784001
20.350000	-40.183341
20.360000	-40.183341
20.370000	-40.183341
20.380000	-77.688007
20.390000	-205.227727
20.400000	-393.862335
20.410000	-545.337127
20.420000	-634.274683
20.430000	-688.631285
20.440000	-704.638583
20.450000	-704.638583
20.460000	-704.638583
20.470000	-686.592393
20.480000	-616.177236
20.490000	-565.324567
20.500000	-486.222731
20.510000	-463.461858
20.520000	-413.849244
20.530000	-357.926290
20.540000	-307.494353
20.550000	-255.381582
20.560000	-215.240001
20.570000	-137.707514
20.580000	-80.323339
20.590000	-57.960705
20.600000	-32.276573
20.610000	-32.276573
20.620000	-32.276573
20.630000	-174.884416
20.640000	-357.440836
20.650000	-537.172662
20.660000	-663.631006
20.670000	-721.605041
20.680000	-770.072645
20.690000	-814.939710
20.700000	-824.796402
20.710000	-824.796402
20.720000	-824.796402
20.730000	-781.087779
20.740000	-775.020837
20.750000	-775.020837
20.760000	-775.020837
20.770000	-787.884224
20.780000	-807.989686
20.790000	-807.989686
20.800000	-807.989686
20.810000	-807.421781
20.820000	-795.223279
20.830000	-746.604670
20.840000	-707.687001
20.850000	-681.722850
20.860000	-663.179895
20.870000	-588.735871
20.880000	-542.130533
20.890000	-504.624086
20.900000	-504.624086
20.910000	-504.624086
20.920000	-657.958333
20.930000	-762.515535
20.940000	-839.186144
20.950000	-865.343010
20.960000	-873.147141
20.970000	-873.147141
20.980000	-873.147141
20.990000	-831.907006
21.000000	-793.845494
21.010000	-793.845494
21.020000	-793.845494
21.030000	-802.179380
21.040000	-840.537980
21.050000	-840.911374
21.060000	-840.911374
21.070000	-840.537980
21.080000	-824.137454
21.090000	-804.022134
21.100000	-766.713150
21.110000	-739.555721
21.120000	-696.200150
21.130000	-641.233202
21.140000	-618.855014
21.150000	-574.699161
21.160000	-500.696367
21.170000	-435.352499
21.180000	-411.581943
21.190000	-345.745415
21.200000	-287.894531
21.210000	-248.088425
21.220000	-202.173199
21.230000	-137.523257
21.240000	-137.523257
21.250000	-137.523257
21.260000	-212.469848
21.270000	-324.741115
21.280000	-324.741115
21.290000	-324.741115
21.300000	-256.652599
21.310000	-182.199021
21.320000	-144.518441
21.330000	-84.526519
21.340000	-39.710819
21.350000	41.328734
21.360000	87.699439
21.370000	143.438078
21.380000	206.922626
21.390000	261.444227
21.400000	306.127450
21.410000	359.441560
21.420000	406.177729
21.430000	406.177729
21.440000	406.177729
21.450000	276.670493
21.460000	105.634237
21.470000	-60.205618
21.480000	-166.625766
21.490000	-221.314558
21.500000	-272.058797
21.510000	-290.419702
21.520000	-290.419702
21.530000	-290.419702
21.540000	-279.109993
21.550000	-244.621968
21.560000	-218.785485
21.570000	-218.785485
21.580000	-218.785485
21.590000	-249.922419
21.600000	-261.411294
21.610000	-261.411294
21.620000	-261.411294
21.630000	-260.578466
21.640000	-222.238680
21.650000	-190.064552
21.660000	-171.203092
21.670000	-161.584374
21.680000	-87.039601
21.690000	-65.697065
21.700000	-14.388024
21.710000	26.786802
21.720000	76.359639
21.730000	112.093659
21.740000	177.222005
21.750000	238.124236
21.760000	297.117799
21.770000	342.049708
21.780000	342.049708
21.790000	342.049708
21.800000	54.184971
21.810000	27.198607
21.820000	19.207935
21.830000	-31.533312
21.840000	-41.435917
21.850000	-41.435917
21.860000	-41.435917
21.870000	-9.907759
21.880000	14.292128
21.890000	36.892416
21.900000	72.528885
21.910000	93.509688
21.920000	128.854666
21.930000	175.973308
21.940000	206.041467
21.950000	276.607133
21.960000	319.816723
21.970000	360.428105
21.980000	401.464969
21.990000	455.207081
22.000000	455.207081
22.010000	455.207081
22.020000	401.037521
22.030000	306.733057
22.040000	241.057693
22.050000	241.057693
22.060000	236.076688
22.070000	236.076688
22.080000	261.011674
22.090000	291.789365
22.100000	318.642654
22.110000	343.873800
22.120000	343.873800
22.130000	343.873800
22.140000	304.517293
22.150000	302.489270
22.160000	302.489270
22.170000	304.517293
22.180000	311.503786
22.190000	363.685189
22.200000	852.338055
22.210000	920.376583
22.220000	946.496104
22.230000	997.139812
22.240000	1025.271770
22.250000	1095.137813
22.260000	1125.498521
22.270000	1125.498521
22.280000	1125.498521
22.290000	999.783873
22.300000	816.398534
22.310000	663.293516
22.320000	521.933845
22.330000	455.956401
22.340000	430.737732
22.350000	418.091872
22.360000	418.091872
22.370000	427.578689
22.380000	427.578689
22.390000	457.589639
22.400000	466.656353
22.410000	466.656353
22.420000	466.656353
22.430000	441.418360
22.440000	385.743766
22.450000	385.743766
22.460000	385.743766
22.470000	396.107660
22.480000	430.872026
22.490000	448.326662
22.500000	454.358183
22.510000	490.796185
22.520000	528.343107
22.530000	586.373248
22.540000	619.086251
22.550000	653.071123
22.560000	696.701067
22.570000	762.702369
22.580000	790.034397
22.590000	867.666451
22.600000	867.666451
22.610000	867.666451
22.620000	720.295174
22.630000	565.809049
22.640000	447.552502
22.650000	398.212936
22.660000	333.406877
22.670000	323.961376
22.680000	323.961376
22.690000	323.961376
22.700000	334.192401
22.710000	334.192401
22.720000	334.192401
22.730000	329.054912
22.740000	306.825552
22.750000	268.367724
22.760000	229.212464
22.770000	214.622036
22.780000	214.622036
22.790000	214.622036
22.800000	230.412671
22.810000	233.001295
22.820000	277.615516
22.830000	313.712501
22.840000	343.876505
22.850000	364.318058
22.860000	375.059449
22.870000	438.004690
22.880000	488.806371
22.890000	528.782034
22.900000	552.444581
22.910000	610.623649
22.920000	649.705134
22.930000	681.553923
22.940000	697.818582
22.950000	733.511320
22.960000	775.707988
22.970000	828.422451
22.980000	863.415609
22.990000	916.415656
23.000000	965.871872
23.010000	965.871872
23.020000	965.871872
23.030000	946.031062
23.040000	771.655177
23.050000	556.793479
23.060000	358.986052
23.070000	221.419322
23.080000	139.086947
23.090000	122.991051
23.100000	101.863329
23.110000	101.863329
23.120000	101.863329
23.130000	116.371513
23.140000	122.244134
23.150000	122.244134
23.160000	122.244134
23.170000	98.531818
23.180000	98.531818
23.190000	98.531818
23.200000	184.599264
23.210000	248.526706
23.220000	292.907353
23.230000	334.484275
23.240000	384.094026
23.250000	446.318990
23.260000	484.060058
23.270000	548.288954
23.280000	620.728759
23.290000	726.269853
23.300000	818.092381
23.310000	947.411392
23.320000	1079.109760
23.330000	1202.510423
23.340000	1202.510423
23.350000	1202.510423
23.360000	1078.622120
23.370000	930.773742
23.380000	812.140666
23.390000	740.781668
23.400000	680.396526
23.410000	619.744474
23.420000	455.284364
23.430000	-93.894963
23.440000	-600.999690
23.450000	-830.175059
23.460000	-1094.909362
23.470000	-1558.159086
23.480000	-2048.017249
23.490000	-2430.365405
23.500000	-2712.632960
23.510000	-2905.700791
23.520000	-2938.507838
23.530000	-2938.507838
23.540000	-2938.507838
23.550000	-2806.374883
23.560000	-2653.680581
23.570000	-2530.990114
23.580000	-2439.841538
23.590000	-2346.632099
23.600000	-2195.063813
23.610000	-2107.889881
23.620000	-2040.952027
23.630000	-1909.159953
23.640000	-1813.476288
23.650000	-1742.246064
23.660000	-1667.080242
23.670000	-1519.347591
23.680000	-1423.340297
23.690000	-1359.179634
23.700000	-1255.585927
23.710000	-1162.773857
23.720000	-1162.773857
23.730000	-1162.773857
23.740000	-1353.377818
23.750000	-1527.094924
23.760000	-1641.980488
23.770000	-1641.980488
23.780000	-1641.980488
23.790000	-1635.142203
23.800000	-1580.099572
23.810000	-1578.874713
23.820000	-1528.425847
23.830000	-1356.303964
23.840000	-1186.629542
23.850000	-1087.487429
23.860000	-1075.822510
23.870000	-1052.481862
23.880000	-1038.627979
23.890000	-1033.058475
23.900000	-1032.458932
23.910000	-988.934833
23.920000	-927.921456
23.930000	-889.420758
23.940000	-825.675463
23.950000	-762.238510
23.960000	-707.512893
23.970000	-633.085717
23.980000	-573.654274
23.990000	-518.940047
24.000000	-450.905030
24.010000	-398.052924
24.020000	-330.125134
24.030000	-258.410682
24.040000	-199.490562
24.050000	-136.808234
24.060000	-98.696015
24.070000	-98.696015
24.080000	-73.039640
24.090000	-49.442598
