Time(s)	IR_denoised_wiener
0.000000	46.050481
0.010000	77.345966
0.020000	94.313733
0.030000	120.540678
0.040000	147.461620
0.050000	180.099804
0.060000	220.929725
0.070000	266.302788
0.080000	311.722967
0.090000	339.129435
0.100000	321.151680
0.110000	252.344126
0.120000	159.329746
0.130000	83.928613
0.140000	33.073494
0.150000	-11.227076
0.160000	-49.138740
0.170000	-81.054888
0.180000	-102.676138
0.190000	-121.920864
0.200000	-132.846628
0.210000	-138.816783
0.220000	-146.697676
0.230000	-162.715099
0.240000	-185.866246
0.250000	-199.908818
0.260000	-208.092159
0.270000	-219.121211
0.280000	-232.964316
0.290000	-243.319835
0.300000	-242.502668
0.310000	-235.222374
0.320000	-219.024424
0.330000	-201.488762
0.340000	-189.212976
0.350000	-178.395953
0.360000	-167.744317
0.370000	-141.599459
0.380000	-108.343993
0.390000	-74.800851
0.400000	-42.263851
0.410000	-19.023360
0.420000	1.187843
0.430000	17.065039
0.440000	43.348780
0.450000	85.794068
0.460000	137.139413
0.470000	180.161317
0.480000	225.338514
0.490000	285.868551
0.500000	342.781917
0.510000	395.291841
0.520000	424.174259
0.530000	423.083541
0.540000	377.209851
0.550000	298.281418
0.560000	226.323237
0.570000	168.723180
0.580000	135.778255
0.590000	125.130609
0.600000	124.874253
0.610000	122.871384
0.620000	111.984747
0.630000	106.003843
0.640000	112.746490
0.650000	118.745601
0.660000	120.202657
0.670000	110.146622
0.680000	107.731997
0.690000	116.506303
0.700000	129.233350
0.710000	143.882015
0.720000	150.046877
0.730000	155.977577
0.740000	159.166238
0.750000	161.420474
0.760000	152.922587
0.770000	141.915327
0.780000	132.336228
0.790000	129.416280
0.800000	129.060232
0.810000	127.922032
0.820000	133.817731
0.830000	140.391794
0.840000	150.938093
0.850000	162.179962
0.860000	175.073291
0.870000	189.301270
0.880000	198.862937
0.890000	211.463706
0.900000	227.636454
0.910000	240.275487
0.920000	265.477440
0.930000	287.002279
0.940000	279.296756
0.950000	217.735610
0.960000	116.894477
0.970000	20.887551
0.980000	-62.269393
0.990000	-120.946282
1.000000	-159.472723
1.010000	-183.780064
1.020000	-202.010932
1.030000	-219.601808
1.040000	-230.178686
1.050000	-239.117728
1.060000	-247.997834
1.070000	-258.295106
1.080000	-275.155383
1.090000	-292.436384
1.100000	-307.985372
1.110000	-318.903673
1.120000	-317.129149
1.130000	-316.425453
1.140000	-311.548503
1.150000	-302.288746
1.160000	-284.618289
1.170000	-257.821957
1.180000	-237.727563
1.190000	-213.275267
1.200000	-189.875917
1.210000	-157.680398
1.220000	-126.404967
1.230000	-101.066137
1.240000	-78.571819
1.250000	-50.764591
1.260000	-15.749051
1.270000	19.185326
1.280000	59.448975
1.290000	107.467534
1.300000	149.610170
1.310000	183.788827
1.320000	203.433214
1.330000	199.444113
1.340000	153.906425
1.350000	79.858904
1.360000	10.777031
1.370000	-52.474502
1.380000	-102.325803
1.390000	-144.168592
1.400000	-163.699521
1.410000	-164.904453
1.420000	-148.388717
1.430000	-114.965538
1.440000	-75.429873
1.450000	-41.353190
1.460000	-22.122686
1.470000	33.434613
1.480000	124.049699
1.490000	250.236660
1.500000	360.756064
1.510000	466.218150
1.520000	568.782229
1.530000	675.890601
1.540000	781.113515
1.550000	897.961141
1.560000	1003.688643
1.570000	1106.125834
1.580000	1174.167094
1.590000	1251.840564
1.600000	1321.820782
1.610000	1411.020611
1.620000	1464.928035
1.630000	1514.445844
1.640000	1538.235766
1.650000	1584.071559
1.660000	1595.935776
1.670000	1620.322858
1.680000	1602.033842
1.690000	1231.218764
1.700000	800.463885
1.710000	382.521528
1.720000	306.274693
1.730000	276.119670
1.740000	226.728507
1.750000	208.044907
1.760000	168.246593
1.770000	151.577731
1.780000	120.550547
1.790000	106.977862
1.800000	81.697281
1.810000	63.519957
1.820000	39.433424
1.830000	23.479790
1.840000	-7.923729
1.850000	-35.432483
1.860000	-49.297299
1.870000	-45.350201
1.880000	-42.725037
1.890000	-36.859722
1.900000	-21.137404
1.910000	8.633770
1.920000	36.404258
1.930000	63.852191
1.940000	86.271237
1.950000	114.455987
1.960000	141.766412
1.970000	178.448859
1.980000	208.197968
1.990000	242.527390
2.000000	271.580026
2.010000	319.040521
2.020000	349.809712
2.030000	380.371015
2.040000	392.285775
2.050000	375.734076
2.060000	317.427807
2.070000	224.495306
2.080000	142.016097
2.090000	79.166539
2.100000	35.252484
2.110000	1.156437
2.120000	-27.489696
2.130000	-53.842025
2.140000	-70.862306
2.150000	-84.869010
2.160000	-89.191154
2.170000	-94.936818
2.180000	-107.830615
2.190000	-133.329364
2.200000	-157.408784
2.210000	-171.395560
2.220000	-175.670847
2.230000	-172.793500
2.240000	-169.269585
2.250000	-162.158063
2.260000	-151.870168
2.270000	-129.155461
2.280000	-104.852029
2.290000	-85.132882
2.300000	-71.146324
2.310000	-57.084160
2.320000	-33.423443
2.330000	-0.388633
2.340000	35.288413
2.350000	66.312131
2.360000	97.707498
2.370000	135.689491
2.380000	172.427939
2.390000	198.402076
2.400000	225.212862
2.410000	257.100849
2.420000	294.660777
2.430000	342.149284
2.440000	389.074384
2.450000	434.563602
2.460000	460.446537
2.470000	449.319338
2.480000	393.518008
2.490000	301.792643
2.500000	213.345520
2.510000	148.553224
2.520000	111.132837
2.530000	91.282144
2.540000	75.248016
2.550000	59.711679
2.560000	50.393218
2.570000	42.450642
2.580000	33.216070
2.590000	16.852486
2.600000	-9.615059
2.610000	-38.377987
2.620000	-66.789060
2.630000	-90.265267
2.640000	-110.308656
2.650000	-123.467917
2.660000	-119.471923
2.670000	-107.720421
2.680000	-97.965408
2.690000	-87.267409
2.700000	-76.465369
2.710000	-53.775916
2.720000	-29.355198
2.730000	-1.916023
2.740000	25.747312
2.750000	55.292893
2.760000	92.865518
2.770000	129.797744
2.780000	167.013264
2.790000	192.938044
2.800000	216.553819
2.810000	244.073668
2.820000	276.416003
2.830000	308.528971
2.840000	322.579062
2.850000	323.716620
2.860000	325.768406
2.870000	333.882786
2.880000	349.616804
2.890000	361.013984
2.900000	351.120183
2.910000	293.788533
2.920000	196.718345
2.930000	94.973281
2.940000	4.933452
2.950000	-68.873043
2.960000	-133.214437
2.970000	-180.344924
2.980000	-213.391057
2.990000	-224.786420
3.000000	-220.269987
3.010000	-209.571421
3.020000	-199.139227
3.030000	-183.991127
3.040000	-173.380442
3.050000	-177.747074
3.060000	-188.235083
3.070000	-200.181064
3.080000	-197.725604
3.090000	-185.337623
3.100000	-166.547051
3.110000	-150.844157
3.120000	-134.332099
3.130000	-109.006546
3.140000	-81.825475
3.150000	-57.831002
3.160000	-33.629776
3.170000	-4.653084
3.180000	31.893433
3.190000	67.158469
3.200000	100.437879
3.210000	133.642636
3.220000	173.661332
3.230000	214.757367
3.240000	246.537137
3.250000	276.586524
3.260000	314.750759
3.270000	358.713790
3.280000	400.613890
3.290000	447.212522
3.300000	492.105390
3.310000	528.374263
3.320000	553.606907
3.330000	556.174882
3.340000	524.104883
3.350000	454.664836
3.360000	368.330429
3.370000	297.852201
3.380000	238.115541
3.390000	198.743478
3.400000	166.835423
3.410000	141.330435
3.420000	120.549965
3.430000	98.234361
3.440000	75.614491
3.450000	49.455290
3.460000	16.675234
3.470000	-24.658305
3.480000	-68.580155
3.490000	-107.772818
3.500000	-142.193631
3.510000	-173.563758
3.520000	-199.467468
3.530000	-217.693790
3.540000	-228.085616
3.550000	-230.830242
3.560000	-220.360235
3.570000	-211.361400
3.580000	-200.925744
3.590000	-192.248667
3.600000	-179.472532
3.610000	-164.831098
3.620000	-145.344736
3.630000	-128.448663
3.640000	-110.526576
3.650000	-95.092595
3.660000	-79.364696
3.670000	-63.083821
3.680000	-52.895603
3.690000	-31.349475
3.700000	-0.821698
3.710000	33.703518
3.720000	61.228043
3.730000	80.107768
3.740000	84.257697
3.750000	65.164001
3.760000	8.596849
3.770000	-75.722241
3.780000	-161.694066
3.790000	-227.629102
3.800000	-265.029845
3.810000	-295.293491
3.820000	-333.356754
3.830000	-369.900252
3.840000	-394.690263
3.850000	-403.532828
3.860000	-403.062854
3.870000	-410.871615
3.880000	-422.718375
3.890000	-439.567697
3.900000	-446.005345
3.910000	-438.974255
3.920000	-438.031060
3.930000	-434.312819
3.940000	-435.111300
3.950000	-430.614652
3.960000	-421.564190
3.970000	-407.924768
3.980000	-381.003800
3.990000	-358.317446
4.000000	-338.736185
4.010000	-319.716969
4.020000	-296.473208
4.030000	-269.475133
4.040000	-241.226754
4.050000	-220.929362
4.060000	-200.610866
4.070000	-179.080012
4.080000	-153.000279
4.090000	-124.590506
4.100000	-97.404669
4.110000	-65.419398
4.120000	-31.845850
4.130000	0.073474
4.140000	30.042855
4.150000	47.526625
4.160000	30.220920
4.170000	-26.984710
4.180000	-115.575358
4.190000	-206.117078
4.200000	-287.099408
4.210000	-355.952602
4.220000	-425.009711
4.230000	-485.408618
4.240000	-526.594120
4.250000	-547.569692
4.260000	-570.922152
4.270000	-601.694805
4.280000	-618.523247
4.290000	-626.905995
4.300000	-636.815625
4.310000	-661.806043
4.320000	-682.697140
4.330000	-694.089669
4.340000	-695.939106
4.350000	-695.739757
4.360000	-698.854311
4.370000	-690.346521
4.380000	-668.484879
4.390000	-638.651913
4.400000	-607.798833
4.410000	-570.936906
4.420000	-525.799305
4.430000	-477.588100
4.440000	-426.799179
4.450000	-368.570208
4.460000	-306.835478
4.470000	-243.224884
4.480000	-172.197609
4.490000	-102.597890
4.500000	-33.545143
4.510000	23.650217
4.520000	77.817275
4.530000	122.511052
4.540000	162.866221
4.550000	215.391225
4.560000	261.473512
4.570000	298.302982
4.580000	303.682441
4.590000	262.890194
4.600000	182.605108
4.610000	73.142387
4.620000	-24.733568
4.630000	-112.065187
4.640000	-178.719796
4.650000	-237.681133
4.660000	-295.700420
4.670000	-358.305200
4.680000	-406.291231
4.690000	-437.988838
4.700000	-469.609192
4.710000	-490.944580
4.720000	-514.667953
4.730000	-528.175473
4.740000	-555.170961
4.750000	-577.636247
4.760000	-602.420019
4.770000	-622.403015
4.780000	-632.351884
4.790000	-633.866111
4.800000	-622.277358
4.810000	-604.037165
4.820000	-574.850655
4.830000	-547.265065
4.840000	-518.726310
4.850000	-484.831635
4.860000	-442.281983
4.870000	-401.111716
4.880000	-364.161356
4.890000	-339.415949
4.900000	-316.667345
4.910000	-288.404067
4.920000	-255.873760
4.930000	-223.076002
4.940000	-197.432386
4.950000	-166.369049
4.960000	-134.714726
4.970000	-107.003753
4.980000	-68.620148
4.990000	-17.682328
5.000000	34.429228
5.010000	80.642274
5.020000	90.739833
5.030000	58.357304
5.040000	-21.955348
5.050000	-116.494973
5.060000	-189.319105
5.070000	-241.790987
5.080000	-280.705601
5.090000	-322.120140
5.100000	-358.702099
5.110000	-374.432890
5.120000	-372.425138
5.130000	-372.799554
5.140000	-373.761721
5.150000	-388.882022
5.160000	-410.714049
5.170000	-441.999135
5.180000	-456.927818
5.190000	-451.181658
5.200000	-437.528084
5.210000	-425.026753
5.220000	-415.447601
5.230000	-410.210003
5.240000	-407.029239
5.250000	-385.682789
5.260000	-365.725438
5.270000	-340.756097
5.280000	-327.824359
5.290000	-276.983540
5.300000	-166.672550
5.310000	-76.827554
5.320000	-30.702687
5.330000	-30.283939
5.340000	-12.892494
5.350000	49.159804
5.360000	120.407317
5.370000	214.067176
5.380000	346.713109
5.390000	508.900021
5.400000	662.938433
5.410000	795.129371
5.420000	899.515802
5.430000	1004.450567
5.440000	1044.834269
5.450000	1017.941000
5.460000	957.918750
5.470000	857.649639
5.480000	718.692076
5.490000	524.975002
5.500000	325.977375
5.510000	151.244336
5.520000	16.222789
5.530000	-89.558564
5.540000	-164.499575
5.550000	-227.084114
5.560000	-287.533287
5.570000	-358.617259
5.580000	-450.894735
5.590000	-527.687690
5.600000	-599.385697
5.610000	-663.389229
5.620000	-730.580344
5.630000	-782.342943
5.640000	-816.152247
5.650000	-838.654768
5.660000	-856.389968
5.670000	-872.623564
5.680000	-889.958344
5.690000	-894.211910
5.700000	-879.882717
5.710000	-855.504121
5.720000	-827.466344
5.730000	-792.434582
5.740000	-754.067288
5.750000	-715.026891
5.760000	-692.037909
5.770000	-678.218551
5.780000	-687.730308
5.790000	-706.663551
5.800000	-680.307536
5.810000	-571.152467
5.820000	-400.041486
5.830000	-291.923543
5.840000	-267.485066
5.850000	-309.920740
5.860000	-329.390243
5.870000	-312.122158
5.880000	-259.665887
5.890000	-199.723552
5.900000	-143.891867
5.910000	-96.298759
5.920000	-81.167121
5.930000	-105.152887
5.940000	-156.385078
5.950000	-201.608289
5.960000	-219.629259
5.970000	-227.160648
5.980000	-245.545420
5.990000	-271.972342
6.000000	-294.094145
6.010000	-292.088674
6.020000	-296.105034
6.030000	-297.088653
6.040000	-300.145878
6.050000	-348.183253
6.060000	-454.094827
6.070000	-538.013348
6.080000	-552.121809
6.090000	-491.952238
6.100000	-406.284498
6.110000	-336.192477
6.120000	-291.015595
6.130000	-287.775771
6.140000	-272.205894
6.150000	-249.844708
6.160000	-248.444965
6.170000	-195.291839
6.180000	-121.623396
6.190000	-79.449575
6.200000	-90.705816
6.210000	-111.078316
6.220000	-89.756394
6.230000	-87.332070
6.240000	-91.926666
6.250000	-76.195121
6.260000	-61.214745
6.270000	2.484411
6.280000	84.293017
6.290000	131.118276
6.300000	130.261442
6.310000	118.237325
6.320000	159.991602
6.330000	181.659064
6.340000	145.505238
6.350000	73.930504
6.360000	-11.298033
6.370000	-48.336188
6.380000	-68.337979
6.390000	-116.288490
6.400000	-185.884386
6.410000	-250.498672
6.420000	-270.374803
6.430000	-287.580033
6.440000	-314.763901
6.450000	-323.862082
6.460000	-327.911431
6.470000	-352.824738
6.480000	-396.961556
6.490000	-453.417568
6.500000	-454.823263
6.510000	-424.570357
6.520000	-367.945606
6.530000	-331.145552
6.540000	-316.925025
6.550000	-291.262476
6.560000	-274.028208
6.570000	-293.043323
6.580000	-329.979732
6.590000	-366.131228
6.600000	-312.378959
6.610000	-191.834814
6.620000	-52.152687
6.630000	36.091887
6.640000	62.599385
6.650000	100.942870
6.660000	74.633559
6.670000	5.759198
6.680000	-96.004756
6.690000	-29.536713
6.700000	154.360611
6.710000	353.722806
6.720000	441.687212
6.730000	466.827463
6.740000	493.754821
6.750000	498.051552
6.760000	419.087254
6.770000	289.897515
6.780000	186.235284
6.790000	71.800974
6.800000	48.127458
6.810000	40.586489
6.820000	91.707627
6.830000	71.264045
6.840000	42.853663
6.850000	30.199243
6.860000	27.619751
6.870000	9.113088
6.880000	-21.831718
6.890000	-47.231499
6.900000	-69.303263
6.910000	-82.519093
6.920000	-92.101631
6.930000	-91.404402
6.940000	-92.581634
6.950000	-92.544190
6.960000	-75.322289
6.970000	-42.695105
6.980000	3.307643
6.990000	9.050501
7.000000	-177.962040
7.010000	-438.418456
7.020000	-547.235327
7.030000	-233.388359
7.040000	118.062599
7.050000	283.124309
7.060000	230.597230
7.070000	271.283821
7.080000	378.579649
7.090000	482.699559
7.100000	538.337784
7.110000	627.841372
7.120000	699.102412
7.130000	480.757079
7.140000	138.777957
7.150000	12.191472
7.160000	330.529785
7.170000	590.657525
7.180000	703.128796
7.190000	702.174516
7.200000	928.280505
7.210000	1165.207591
7.220000	1333.185828
7.230000	1357.299736
7.240000	1202.914461
7.250000	977.160861
7.260000	736.216348
7.270000	528.714718
7.280000	307.635876
7.290000	101.857637
7.300000	-63.574281
7.310000	-133.535757
7.320000	-104.544970
7.330000	26.116961
7.340000	292.619165
7.350000	641.243635
7.360000	1031.869556
7.370000	1382.972400
7.380000	1678.014475
7.390000	1722.261324
7.400000	1514.407130
7.410000	1302.953036
7.420000	1509.659187
7.430000	2125.511979
7.440000	2892.277301
7.450000	3245.614232
7.460000	2470.198264
7.470000	1406.707836
7.480000	513.119230
7.490000	419.324846
7.500000	355.914892
7.510000	192.749065
7.520000	57.804318
7.530000	-373.351049
7.540000	-654.471208
7.550000	-652.258961
7.560000	-66.904238
7.570000	522.136733
7.580000	892.696049
7.590000	759.745195
7.600000	194.660737
7.610000	-398.680849
7.620000	-738.658019
7.630000	-785.050838
7.640000	-829.502432
7.650000	-890.618327
7.660000	-1036.095676
7.670000	-1443.768886
7.680000	-1712.713115
7.690000	-1674.839306
7.700000	-1105.789586
7.710000	-514.203078
7.720000	-627.747623
7.730000	-1003.966193
7.740000	-1461.034539
7.750000	-1411.895853
7.760000	-1361.934652
7.770000	-1386.590529
7.780000	-1367.915996
7.790000	-1626.769286
7.800000	-1896.562552
7.810000	-2084.704412
7.820000	-1723.791255
7.830000	-1236.027624
7.840000	-1164.964387
7.850000	-1325.627451
7.860000	-1525.393824
7.870000	-1385.660188
7.880000	-1243.064506
7.890000	-1139.493205
7.900000	-1007.043194
7.910000	-904.951344
7.920000	-835.808589
7.930000	-856.500590
7.940000	-872.432934
7.950000	-873.890981
7.960000	-823.923496
7.970000	-755.079621
7.980000	-654.897460
7.990000	-569.703081
8.000000	-499.015875
8.010000	-478.699023
8.020000	-415.050738
8.030000	-287.166862
8.040000	-40.932647
8.050000	126.069427
8.060000	68.725347
8.070000	-215.573392
8.080000	-561.425353
8.090000	-789.447592
8.100000	-871.594464
8.110000	-826.385404
8.120000	-751.583234
8.130000	-654.676906
8.140000	-555.206355
8.150000	-472.234630
8.160000	-412.730065
8.170000	-373.364153
8.180000	-314.420182
8.190000	-215.479296
8.200000	-8.244345
8.210000	337.034545
8.220000	758.414914
8.230000	1127.100432
8.240000	1239.605100
8.250000	1128.885525
8.260000	888.364884
8.270000	683.940248
8.280000	510.392305
8.290000	373.763896
8.300000	308.569619
8.310000	310.887366
8.320000	371.805650
8.330000	456.011103
8.340000	548.503946
8.350000	618.164058
8.360000	672.047610
8.370000	734.438526
8.380000	798.580561
8.390000	862.467590
8.400000	918.172468
8.410000	915.121740
8.420000	923.171020
8.430000	981.434320
8.440000	1209.467022
8.450000	1655.293924
8.460000	2248.180634
8.470000	2929.263550
8.480000	3611.561386
8.490000	4251.095921
8.500000	4793.658924
8.510000	5106.123316
8.520000	5191.876725
8.530000	5043.533273
8.540000	4711.666010
8.550000	4290.809715
8.560000	3840.438150
8.570000	3331.589130
8.580000	2679.135256
8.590000	1912.094618
8.600000	1155.174390
8.610000	415.021686
8.620000	-290.677029
8.630000	-863.082615
8.640000	-1184.397361
8.650000	-1279.165577
8.660000	-1274.320005
8.670000	-1222.966908
8.680000	-1153.763341
8.690000	-1083.991538
8.700000	-1046.504006
8.710000	-1030.818392
8.720000	-1029.841902
8.730000	-999.799085
8.740000	-948.576277
8.750000	-909.103136
8.760000	-904.538374
8.770000	-907.522973
8.780000	-884.404360
8.790000	-863.367125
8.800000	-846.118725
8.810000	-814.076603
8.820000	-748.085856
8.830000	-681.517964
8.840000	-624.576911
8.850000	-555.124651
8.860000	-477.728733
8.870000	-401.999200
8.880000	-358.525446
8.890000	-355.399147
8.900000	-399.907054
8.910000	-470.640634
8.920000	-539.523950
8.930000	-585.153959
8.940000	-608.455589
8.950000	-603.234384
8.960000	-593.055519
8.970000	-594.883129
8.980000	-606.188253
8.990000	-610.078658
9.000000	-577.874730
9.010000	-546.707607
9.020000	-529.079440
9.030000	-520.208168
9.040000	-496.150477
9.050000	-471.734040
9.060000	-477.182488
9.070000	-471.984181
9.080000	-423.822079
9.090000	-364.996728
9.100000	-342.754167
9.110000	-347.103367
9.120000	-311.114346
9.130000	-241.997962
9.140000	-202.878931
9.150000	-213.691272
9.160000	-213.338139
9.170000	-171.051569
9.180000	-128.580042
9.190000	-118.637077
9.200000	-107.556154
9.210000	-65.148497
9.220000	-16.600552
9.230000	25.458547
9.240000	56.127082
9.250000	90.204009
9.260000	126.562117
9.270000	153.003709
9.280000	132.680927
9.290000	56.965896
9.300000	-48.353929
9.310000	-147.626181
9.320000	-238.728738
9.330000	-320.468505
9.340000	-373.300674
9.350000	-401.623954
9.360000	-395.079269
9.370000	-376.785041
9.380000	-361.080600
9.390000	-358.181474
9.400000	-361.950178
9.410000	-352.118743
9.420000	-308.399163
9.430000	-231.693491
9.440000	-121.757425
9.450000	23.825492
9.460000	186.915809
9.470000	363.137089
9.480000	524.278585
9.490000	700.029571
9.500000	894.660257
9.510000	1101.313723
9.520000	1299.426694
9.530000	1456.654767
9.540000	1581.728698
9.550000	1684.421583
9.560000	1761.083561
9.570000	1810.284363
9.580000	1834.539258
9.590000	1859.300256
9.600000	1896.715304
9.610000	1945.034966
9.620000	1996.966532
9.630000	2002.409246
9.640000	1956.766613
9.650000	1881.946912
9.660000	1809.684306
9.670000	1755.865032
9.680000	1717.641206
9.690000	1693.210018
9.700000	1676.343270
9.710000	1674.015232
9.720000	1697.815279
9.730000	1748.213800
9.740000	1797.968345
9.750000	1823.512909
9.760000	1799.540334
9.770000	1732.990874
9.780000	1642.902406
9.790000	1559.924147
9.800000	1512.682219
9.810000	1498.528024
9.820000	1494.161678
9.830000	1486.248823
9.840000	1482.120623
9.850000	1482.373687
9.860000	1487.167420
9.870000	1488.565183
9.880000	1496.685815
9.890000	1502.124860
9.900000	1503.313990
9.910000	1507.797601
9.920000	1507.988410
9.930000	1522.964479
9.940000	1559.382695
9.950000	1587.451636
9.960000	1609.618979
9.970000	1605.295361
9.980000	1575.333707
9.990000	1505.182696
10.000000	1428.934316
10.010000	1416.253026
10.020000	1464.086836
10.030000	1534.645909
10.040000	1573.277323
10.050000	1565.566571
10.060000	1524.626981
10.070000	1483.625502
10.080000	1450.991502
10.090000	1447.467332
10.100000	1469.036699
10.110000	1519.077736
10.120000	1545.677882
10.130000	1572.977775
10.140000	1705.286228
10.150000	2065.675877
10.160000	2795.357124
10.170000	3802.813708
10.180000	4870.159380
10.190000	5704.490103
10.200000	6178.493859
10.210000	6288.917422
10.220000	6003.157322
10.230000	5319.505232
10.240000	4377.617356
10.250000	3432.818336
10.260000	2709.064769
10.270000	2252.716430
10.280000	2008.972996
10.290000	1879.900577
10.300000	1803.717558
10.310000	1780.657934
10.320000	1766.074221
10.330000	1735.204425
10.340000	1655.810671
10.350000	1521.220580
10.360000	1349.012288
10.370000	1158.973804
10.380000	991.333474
10.390000	866.067252
10.400000	740.544301
10.410000	623.027818
10.420000	498.417359
10.430000	380.794000
10.440000	282.008819
10.450000	202.251734
10.460000	157.365907
10.470000	129.338168
10.480000	116.488593
10.490000	114.136146
10.500000	127.022663
10.510000	149.623812
10.520000	163.237470
10.530000	164.202098
10.540000	164.877972
10.550000	176.491338
10.560000	205.886215
10.570000	249.129797
10.580000	270.518392
10.590000	271.915004
10.600000	262.880984
10.610000	276.473051
10.620000	323.890889
10.630000	408.716553
10.640000	516.891083
10.650000	623.635048
10.660000	728.327762
10.670000	872.705702
10.680000	1049.330887
10.690000	1226.744236
10.700000	1388.073608
10.710000	1535.533727
10.720000	1707.613488
10.730000	1863.802757
10.740000	1974.545614
10.750000	2051.546237
10.760000	2125.891054
10.770000	2272.769873
10.780000	2487.040477
10.790000	2740.620705
10.800000	3000.532222
10.810000	3246.527827
10.820000	3614.807186
10.830000	4239.448165
10.840000	5024.468144
10.850000	5754.724566
10.860000	5987.185310
10.870000	5682.122878
10.880000	4629.447483
10.890000	3302.743887
10.900000	2221.178427
10.910000	1288.349723
10.920000	650.583503
10.930000	376.080362
10.940000	552.379647
10.950000	890.446566
10.960000	1001.570442
10.970000	1228.488727
10.980000	990.223049
10.990000	416.814505
11.000000	320.745993
11.010000	1316.925458
11.020000	3416.603976
11.030000	4307.646611
11.040000	4169.629033
11.050000	3278.287110
11.060000	3116.623650
11.070000	3116.613132
11.080000	2482.643773
11.090000	1955.808829
11.100000	1865.513889
11.110000	2351.128345
11.120000	2288.892187
11.130000	1680.180606
11.140000	1007.232025
11.150000	599.786490
11.160000	485.045035
11.170000	247.144553
11.180000	-571.957080
11.190000	-1324.828760
11.200000	-1974.338103
11.210000	-1922.633056
11.220000	-1764.032911
11.230000	-1516.562259
11.240000	-1317.765402
11.250000	-1282.807732
11.260000	-1283.208083
11.270000	-1491.260331
11.280000	-2121.482726
11.290000	-2709.231839
11.300000	-2881.728903
11.310000	-2400.292475
11.320000	-1912.130647
11.330000	-1590.441846
11.340000	-1491.603724
11.350000	-1417.953874
11.360000	-1614.688406
11.370000	-2246.976216
11.380000	-2832.058463
11.390000	-3135.079230
11.400000	-2654.096219
11.410000	-2064.819496
11.420000	-1508.403304
11.430000	-1211.533642
11.440000	-1144.412988
11.450000	-1457.818881
11.460000	-2074.873933
11.470000	-2449.225933
11.480000	-2359.974735
11.490000	-1902.248332
11.500000	-1718.995546
11.510000	-1569.593992
11.520000	-1628.240412
11.530000	-1542.579481
11.540000	-1662.167153
11.550000	-2629.792349
11.560000	-3743.490376
11.570000	-4224.218075
11.580000	-3347.723241
11.590000	-2276.252272
11.600000	-1768.275384
11.610000	-1581.968565
11.620000	-1627.007627
11.630000	-2866.008670
11.640000	-4170.763588
11.650000	-5153.516618
11.660000	-4169.168087
11.670000	-2990.849358
11.680000	-2046.649099
11.690000	-1745.568165
11.700000	-1711.747292
11.710000	-1600.145494
11.720000	-2926.731772
11.730000	-4367.699039
11.740000	-5215.853347
11.750000	-3946.785858
11.760000	-2516.980877
11.770000	-1669.987588
11.780000	-1595.033136
11.790000	-1491.919876
11.800000	-1846.065379
11.810000	-3706.201380
11.820000	-5570.862284
11.830000	-5600.999284
11.840000	-3626.012291
11.850000	-1953.742992
11.860000	-1577.338464
11.870000	-1455.687246
11.880000	-1317.901938
11.890000	-1127.063287
11.900000	-965.583018
11.910000	-738.074850
11.920000	-305.936590
11.930000	421.322933
11.940000	1237.435599
11.950000	1922.891194
11.960000	2132.669256
11.970000	1865.275169
11.980000	1266.512334
11.990000	700.128581
12.000000	305.609600
12.010000	-25.161960
12.020000	-321.207156
12.030000	-612.587336
12.040000	-887.040356
12.050000	-1024.182476
12.060000	-963.839691
12.070000	-807.356035
12.080000	-766.076645
12.090000	-859.806361
12.100000	-898.206619
12.110000	-813.397235
12.120000	-612.012800
12.130000	-291.100655
12.140000	56.444895
12.150000	297.277954
12.160000	318.484515
12.170000	134.197325
12.180000	-176.773730
12.190000	-521.654450
12.200000	-816.867394
12.210000	-1015.751770
12.220000	-1160.015241
12.230000	-1301.021066
12.240000	-1464.572320
12.250000	-1669.417725
12.260000	-1919.903876
12.270000	-2177.177051
12.280000	-2394.696248
12.290000	-2534.442310
12.300000	-2641.199156
12.310000	-2702.366974
12.320000	-2740.950754
12.330000	-2745.348023
12.340000	-2726.917375
12.350000	-2701.828079
12.360000	-2676.343068
12.370000	-2678.521417
12.380000	-2682.775287
12.390000	-2676.404458
12.400000	-2649.369539
12.410000	-2626.872755
12.420000	-2611.055968
12.430000	-2598.481611
12.440000	-2579.548371
12.450000	-2553.270704
12.460000	-2527.555425
12.470000	-2506.205725
12.480000	-2482.023083
12.490000	-2454.650630
12.500000	-2430.333558
12.510000	-2397.872548
12.520000	-2379.895427
12.530000	-2402.262040
12.540000	-2478.248292
12.550000	-2567.329506
12.560000	-2628.425540
12.570000	-2666.014826
12.580000	-2697.798631
12.590000	-2733.170306
12.600000	-2764.952622
12.610000	-2780.470516
12.620000	-2785.316686
12.630000	-2768.886188
12.640000	-2751.926846
12.650000	-2733.736279
12.660000	-2736.092081
12.670000	-2750.663655
12.680000	-2763.067303
12.690000	-2775.463029
12.700000	-2771.484798
12.710000	-2769.851838
12.720000	-2770.008986
12.730000	-2774.074166
12.740000	-2755.279878
12.750000	-2716.202973
12.760000	-2675.420426
12.770000	-2650.487830
12.780000	-2615.934779
12.790000	-2555.289156
12.800000	-2488.373668
12.810000	-2439.928582
12.820000	-2408.565112
12.830000	-2372.335573
12.840000	-2317.937362
12.850000	-2275.685775
12.860000	-2242.039701
12.870000	-2211.185799
12.880000	-2209.720090
12.890000	-2255.149520
12.900000	-2349.847183
12.910000	-2413.039404
12.920000	-2425.296878
12.930000	-2409.198350
12.940000	-2405.616721
12.950000	-2420.079657
12.960000	-2403.605814
12.970000	-2345.885650
12.980000	-2269.503215
12.990000	-2204.863899
13.000000	-2158.485244
13.010000	-2096.881965
13.020000	-2028.397950
13.030000	-1942.998095
13.040000	-1845.833652
13.050000	-1727.555081
13.060000	-1605.155106
13.070000	-1503.947696
13.080000	-1433.913247
13.090000	-1374.401000
13.100000	-1291.779900
13.110000	-1202.802852
13.120000	-1141.503505
13.130000	-1110.594149
13.140000	-1088.635558
13.150000	-1065.891674
13.160000	-1033.242683
13.170000	-1015.421513
13.180000	-976.822700
13.190000	-874.402145
13.200000	-725.706293
13.210000	-582.947748
13.220000	-457.613713
13.230000	-282.746163
13.240000	-45.136278
13.250000	123.590859
13.260000	218.222347
13.270000	323.041766
13.280000	529.469405
13.290000	711.431562
13.300000	745.260072
13.310000	618.999267
13.320000	457.297759
13.330000	379.090512
13.340000	400.259038
13.350000	455.165226
13.360000	448.012249
13.370000	469.962263
13.380000	568.856025
13.390000	721.106724
13.400000	774.891917
13.410000	740.909265
13.420000	681.615720
13.430000	641.876612
13.440000	602.377072
13.450000	551.078467
13.460000	523.484217
13.470000	526.751706
13.480000	530.036915
13.490000	460.192697
13.500000	341.408241
13.510000	234.619916
13.520000	169.245638
13.530000	101.399108
13.540000	-9.687754
13.550000	-152.456664
13.560000	-279.300149
13.570000	-339.414338
13.580000	-350.878414
13.590000	-380.615505
13.600000	-467.822526
13.610000	-591.425791
13.620000	-703.466776
13.630000	-781.078290
13.640000	-846.006172
13.650000	-898.777770
13.660000	-928.284842
13.670000	-914.222522
13.680000	-865.747591
13.690000	-816.837898
13.700000	-791.284096
13.710000	-817.901422
13.720000	-851.383977
13.730000	-866.787094
13.740000	-858.970405
13.750000	-873.576992
13.760000	-898.161288
13.770000	-886.036089
13.780000	-833.566237
13.790000	-761.657647
13.800000	-714.796909
13.810000	-700.939052
13.820000	-707.731207
13.830000	-740.694837
13.840000	-792.053481
13.850000	-837.829832
13.860000	-865.496780
13.870000	-892.134921
13.880000	-950.069919
13.890000	-991.975062
13.900000	-984.434269
13.910000	-972.115178
13.920000	-990.524808
13.930000	-994.450774
13.940000	-946.720434
13.950000	-890.756554
13.960000	-887.044226
13.970000	-952.356050
13.980000	-1069.353906
13.990000	-1179.922253
14.000000	-1241.116414
14.010000	-1253.685405
14.020000	-1282.130071
14.030000	-1332.028539
14.040000	-1361.754989
14.050000	-1357.521460
14.060000	-1356.926784
14.070000	-1404.772304
14.080000	-1430.518986
14.090000	-1366.099520
14.100000	-1243.454495
14.110000	-1184.407934
14.120000	-1173.078471
14.130000	-1096.849695
14.140000	-915.967281
14.150000	-761.490993
14.160000	-692.053210
14.170000	-650.877014
14.180000	-576.186098
14.190000	-456.794990
14.200000	-345.219260
14.210000	-268.701173
14.220000	-214.198369
14.230000	-170.668411
14.240000	-134.251736
14.250000	-153.499760
14.260000	-267.665355
14.270000	-474.267907
14.280000	-764.110912
14.290000	-1063.240870
14.300000	-1347.407950
14.310000	-1569.865964
14.320000	-1757.620417
14.330000	-1854.975714
14.340000	-1886.764790
14.350000	-1912.557182
14.360000	-1984.597595
14.370000	-2071.616717
14.380000	-2135.451124
14.390000	-2180.832596
14.400000	-2195.294803
14.410000	-2182.127980
14.420000	-2184.616721
14.430000	-2249.466634
14.440000	-2338.070331
14.450000	-2403.814767
14.460000	-2453.032935
14.470000	-2536.313451
14.480000	-2614.443304
14.490000	-2671.569437
14.500000	-2673.495147
14.510000	-2682.781729
14.520000	-2699.063391
14.530000	-2692.601246
14.540000	-2646.018803
14.550000	-2557.481963
14.560000	-2483.484877
14.570000	-2412.190728
14.580000	-2335.976833
14.590000	-2240.894994
14.600000	-2125.180344
14.610000	-2023.375610
14.620000	-1920.255649
14.630000	-1791.170670
14.640000	-1622.032121
14.650000	-1441.085984
14.660000	-1326.615144
14.670000	-1274.776651
14.680000	-1212.340296
14.690000	-1114.264158
14.700000	-999.515916
14.710000	-920.504872
14.720000	-848.127436
14.730000	-768.445438
14.740000	-752.629325
14.750000	-794.829482
14.760000	-839.648549
14.770000	-838.550857
14.780000	-846.268282
14.790000	-918.590401
14.800000	-972.821300
14.810000	-957.026456
14.820000	-838.403926
14.830000	-684.714137
14.840000	-564.629507
14.850000	-464.815385
14.860000	-336.060372
14.870000	-220.803858
14.880000	-230.982627
14.890000	-306.619008
14.900000	-275.226393
14.910000	-116.480947
14.920000	-111.926459
14.930000	-293.950761
14.940000	-386.737220
14.950000	-138.107699
14.960000	257.270862
14.970000	315.990119
14.980000	83.447492
14.990000	-27.852629
15.000000	215.852679
15.010000	449.714977
15.020000	385.858764
15.030000	295.208522
15.040000	539.507104
15.050000	1024.510809
15.060000	1331.660825
15.070000	1390.500310
15.080000	1482.848205
15.090000	1784.265713
15.100000	2179.639940
15.110000	2431.766787
15.120000	2533.135158
15.130000	2614.053939
15.140000	2771.949191
15.150000	2954.340058
15.160000	3078.759779
15.170000	3167.995713
15.180000	3287.436004
15.190000	3308.535510
15.200000	3022.643819
15.210000	2537.363648
15.220000	1981.330567
15.230000	1592.581516
15.240000	1337.695724
15.250000	1288.848123
15.260000	1379.774073
15.270000	1359.368516
15.280000	1184.519852
15.290000	1036.602994
15.300000	1231.066068
15.310000	1649.746727
15.320000	1937.730223
15.330000	1937.201329
15.340000	1813.720052
15.350000	1726.076138
15.360000	1692.430392
15.370000	1684.932611
15.380000	1724.383660
15.390000	1805.160404
15.400000	1927.464736
15.410000	2120.246868
15.420000	2368.873710
15.430000	2636.053244
15.440000	2851.976718
15.450000	3021.850183
15.460000	3155.210652
15.470000	3251.405982
15.480000	3292.518474
15.490000	3302.198372
15.500000	3333.697779
15.510000	3411.035053
15.520000	3485.803799
15.530000	3540.750628
15.540000	3586.781499
15.550000	3665.679670
15.560000	3767.078923
15.570000	3795.171270
15.580000	3712.000057
15.590000	3535.615745
15.600000	3379.984551
15.610000	3299.363661
15.620000	3361.808540
15.630000	3546.336095
15.640000	3784.973323
15.650000	3934.906928
15.660000	3953.217166
15.670000	3844.079190
15.680000	3646.696656
15.690000	3428.803255
15.700000	3255.643400
15.710000	3183.644483
15.720000	3195.195441
15.730000	3276.304885
15.740000	3400.523057
15.750000	3584.226580
15.760000	3810.570281
15.770000	4062.626067
15.780000	4297.023376
15.790000	4479.195351
15.800000	4628.437117
15.810000	4759.231194
15.820000	4846.221589
15.830000	4850.710888
15.840000	4782.954657
15.850000	4709.492934
15.860000	4683.465605
15.870000	4672.521749
15.880000	4651.812261
15.890000	4613.078067
15.900000	4588.418506
15.910000	4610.117074
15.920000	4652.347411
15.930000	4726.407025
15.940000	4804.317444
15.950000	4874.223589
15.960000	4921.428631
15.970000	4966.953815
15.980000	5035.699267
15.990000	5103.698492
16.000000	5137.425490
16.010000	5143.368057
16.020000	5153.035200
16.030000	5179.802327
16.040000	5187.991072
16.050000	5135.365828
16.060000	5055.301505
16.070000	4982.412575
16.080000	4873.210183
16.090000	4718.365461
16.100000	4624.248476
16.110000	4665.375525
16.120000	4796.435115
16.130000	4846.183270
16.140000	4774.123833
16.150000	4679.517210
16.160000	4657.944134
16.170000	4717.752566
16.180000	4720.167309
16.190000	4607.349768
16.200000	4413.448577
16.210000	4193.141331
16.220000	3962.761677
16.230000	3714.001504
16.240000	3489.015451
16.250000	3291.223120
16.260000	3090.310140
16.270000	2858.250304
16.280000	2641.608008
16.290000	2497.771200
16.300000	2372.395301
16.310000	2192.703416
16.320000	1965.194569
16.330000	1764.282012
16.340000	1623.005646
16.350000	1464.349357
16.360000	1260.408209
16.370000	1065.431172
16.380000	954.321884
16.390000	933.444667
16.400000	939.496344
16.410000	943.670574
16.420000	955.225208
16.430000	963.958412
16.440000	951.713115
16.450000	913.395196
16.460000	884.758451
16.470000	896.261503
16.480000	914.404344
16.490000	946.347866
16.500000	991.135131
16.510000	1092.997672
16.520000	1205.053801
16.530000	1293.453532
16.540000	1355.493732
16.550000	1392.020301
16.560000	1396.680493
16.570000	1329.593682
16.580000	1252.911615
16.590000	1224.919312
16.600000	1240.062340
16.610000	1241.196920
16.620000	1208.073459
16.630000	1203.794574
16.640000	1224.323328
16.650000	1256.455569
16.660000	1279.305979
16.670000	1286.241608
16.680000	1295.441354
16.690000	1275.641761
16.700000	1257.829610
16.710000	1233.681171
16.720000	1221.035596
16.730000	1202.367961
16.740000	1164.329525
16.750000	1120.537242
16.760000	1092.385192
16.770000	1078.048402
16.780000	1065.817963
16.790000	1025.578519
16.800000	950.382466
16.810000	889.329254
16.820000	868.615986
16.830000	891.079651
16.840000	896.405106
16.850000	857.649315
16.860000	816.442060
16.870000	788.873540
16.880000	780.840932
16.890000	774.420788
16.900000	749.286851
16.910000	688.362468
16.920000	577.458060
16.930000	460.513013
16.940000	376.998051
16.950000	327.269024
16.960000	286.513652
16.970000	259.817057
16.980000	254.744473
16.990000	260.688753
17.000000	256.317910
17.010000	247.672865
17.020000	245.272709
17.030000	253.006322
17.040000	248.521481
17.050000	214.718743
17.060000	183.601476
17.070000	164.396784
17.080000	173.394198
17.090000	176.628612
17.100000	190.014214
17.110000	217.182150
17.120000	244.607705
17.130000	267.445265
17.140000	262.501687
17.150000	271.235312
17.160000	289.284325
17.170000	336.103751
17.180000	389.296795
17.190000	448.375616
17.200000	513.987436
17.210000	576.292196
17.220000	620.670264
17.230000	645.247556
17.240000	676.098751
17.250000	710.791968
17.260000	703.072672
17.270000	626.053814
17.280000	513.542640
17.290000	414.685572
17.300000	356.611681
17.310000	306.811502
17.320000	267.766561
17.330000	225.212929
17.340000	205.352496
17.350000	206.857075
17.360000	220.567003
17.370000	231.132719
17.380000	230.448321
17.390000	231.110553
17.400000	239.623313
17.410000	249.026896
17.420000	255.447343
17.430000	260.931806
17.440000	283.285366
17.450000	308.384807
17.460000	335.460920
17.470000	354.779106
17.480000	379.329879
17.490000	393.724846
17.500000	411.907182
17.510000	-1014.051713
17.520000	-3617.148307
17.530000	-6057.929398
17.540000	-6793.749946
17.550000	-5089.742229
17.560000	-3015.069032
17.570000	-1181.268176
17.580000	-736.914536
17.590000	-550.919054
17.600000	-411.004610
17.610000	-1978.870478
17.620000	-5585.432452
17.630000	-8103.689787
17.640000	-8621.701472
17.650000	-6651.609952
17.660000	-3673.893308
17.670000	-1655.743419
17.680000	-1102.743967
17.690000	-1031.315056
17.700000	-2496.679073
17.710000	-7072.915987
17.720000	-9338.317709
17.730000	-9576.231016
17.740000	-7446.319220
17.750000	-3449.504842
17.760000	-1815.088214
17.770000	-1543.749934
17.780000	-1459.884756
17.790000	-1303.509582
17.800000	-1246.947016
17.810000	-1168.206826
17.820000	-1127.590148
17.830000	-1081.700357
17.840000	-1024.751917
17.850000	-923.869044
17.860000	-810.841742
17.870000	-702.414399
17.880000	-603.985938
17.890000	-497.314559
17.900000	-371.571094
17.910000	-238.030222
17.920000	-89.527925
17.930000	93.531753
17.940000	278.280454
17.950000	509.214669
17.960000	738.743506
17.970000	946.211641
17.980000	1086.712500
17.990000	1174.609757
18.000000	1238.290827
18.010000	1277.499140
18.020000	1264.362364
18.030000	1184.660855
18.040000	1013.638898
18.050000	772.180954
18.060000	443.377077
18.070000	101.516068
18.080000	-173.305185
18.090000	-316.963343
18.100000	-326.593944
18.110000	-310.186394
18.120000	-235.270350
18.130000	-141.381569
18.140000	-20.925920
18.150000	26.352247
18.160000	7.935904
18.170000	-31.924319
18.180000	-27.923398
18.190000	-35.646123
18.200000	-92.179351
18.210000	-169.303600
18.220000	-231.197050
18.230000	-269.820931
18.240000	-390.644302
18.250000	-618.234768
18.260000	-892.979969
18.270000	-1098.279282
18.280000	-1205.679178
18.290000	-1270.342461
18.300000	-1343.156544
18.310000	-1405.672658
18.320000	-1442.433795
18.330000	-1454.507444
18.340000	-1467.237789
18.350000	-1513.156223
18.360000	-1613.138201
18.370000	-1747.489507
18.380000	-1880.457932
18.390000	-1965.925226
18.400000	-2031.110800
18.410000	-2075.417046
18.420000	-2121.627837
18.430000	-2168.309735
18.440000	-2211.606358
18.450000	-2252.016601
18.460000	-2255.960889
18.470000	-2256.376484
18.480000	-2258.042439
18.490000	-2286.264455
18.500000	-2313.785338
18.510000	-2331.341556
18.520000	-2349.723669
18.530000	-2357.832850
18.540000	-2361.516808
18.550000	-2358.443877
18.560000	-2355.143736
18.570000	-2345.162598
18.580000	-2331.607500
18.590000	-2323.040755
18.600000	-2307.827438
18.610000	-2276.069173
18.620000	-2222.873782
18.630000	-2172.657898
18.640000	-2122.324837
18.650000	-2064.716201
18.660000	-1996.601187
18.670000	-1942.331866
18.680000	-1883.575656
18.690000	-1794.409108
18.700000	-1692.485962
18.710000	-1599.313463
18.720000	-1548.914208
18.730000	-1527.570620
18.740000	-1541.214027
18.750000	-1592.637101
18.760000	-1642.884120
18.770000	-1683.940489
18.780000	-1690.325141
18.790000	-1671.158111
18.800000	-1633.914466
18.810000	-1581.850579
18.820000	-1540.050442
18.830000	-1486.901751
18.840000	-1449.474000
18.850000	-1410.986596
18.860000	-1383.798598
18.870000	-1353.820022
18.880000	-1312.292610
18.890000	-1270.530218
18.900000	-1219.218465
18.910000	-1176.136848
18.920000	-1136.237153
18.930000	-1100.248380
18.940000	-1064.399344
18.950000	-1038.219128
18.960000	-1021.022984
18.970000	-997.639732
18.980000	-965.170110
18.990000	-922.889551
19.000000	-884.847846
19.010000	-842.233396
19.020000	-799.385297
19.030000	-761.068779
19.040000	-737.093737
19.050000	-709.317953
19.060000	-659.960491
19.070000	-610.833279
19.080000	-574.292096
19.090000	-539.776564
19.100000	-516.502326
19.110000	-538.612695
19.120000	-633.852761
19.130000	-741.363309
19.140000	-819.079386
19.150000	-865.717225
19.160000	-900.186149
19.170000	-931.535448
19.180000	-964.438992
19.190000	-1017.884452
19.200000	-1081.435851
19.210000	-1106.286254
19.220000	-1099.745040
19.230000	-1094.582868
19.240000	-1134.576009
19.250000	-1175.462560
19.260000	-1174.235296
19.270000	-1163.708690
19.280000	-1295.712966
19.290000	-1614.149852
19.300000	-1908.984607
19.310000	-2015.874556
19.320000	-1961.940101
19.330000	-1895.423179
19.340000	-1810.630638
19.350000	-1684.414939
19.360000	-1595.090819
19.370000	-1569.756884
19.380000	-1570.529916
19.390000	-1525.830204
19.400000	-1461.393409
19.410000	-1404.732024
19.420000	-1359.347742
19.430000	-1286.674916
19.440000	-1207.621854
19.450000	-1132.745614
19.460000	-1114.834660
19.470000	-1140.122676
19.480000	-1228.294957
19.490000	-1333.140808
19.500000	-1434.983293
19.510000	-1502.281278
19.520000	-1553.296427
19.530000	-1547.748716
19.540000	-1488.883267
19.550000	-1301.487885
19.560000	-1048.001780
19.570000	-734.893306
19.580000	-419.078533
19.590000	67.834056
19.600000	543.395372
19.610000	952.425552
19.620000	1016.771757
19.630000	1017.401248
19.640000	955.227790
19.650000	1065.870714
19.660000	1044.047623
19.670000	892.703128
19.680000	566.250820
19.690000	370.016280
19.700000	139.681304
19.710000	53.120085
19.720000	-192.357059
19.730000	-190.978949
19.740000	-482.139808
19.750000	-2053.122968
19.760000	-3865.506700
19.770000	-5023.807199
19.780000	-4050.756346
19.790000	-2399.019075
19.800000	-1189.240776
19.810000	-534.610244
19.820000	-579.289589
19.830000	-463.255609
19.840000	-821.924289
19.850000	-2377.949439
19.860000	-6687.695049
19.870000	-7963.504427
19.880000	-6731.363994
19.890000	-4552.092732
19.900000	-2596.054376
19.910000	-1748.038795
19.920000	-1770.470307
19.930000	-3318.577972
19.940000	-5656.443971
19.950000	-7486.888559
19.960000	-7848.990666
19.970000	-6369.123838
19.980000	-4576.138633
19.990000	-2732.016521
20.000000	-2017.278935
20.010000	-1870.927995
20.020000	-3652.829530
20.030000	-6378.375472
20.040000	-8247.695270
20.050000	-7802.700445
20.060000	-5695.910435
20.070000	-3435.346691
20.080000	-2096.399587
20.090000	-1817.213235
20.100000	-2194.194249
20.110000	-3062.862187
20.120000	-3414.795515
20.130000	-3056.873847
20.140000	-2095.341282
20.150000	-1639.093807
20.160000	-1561.613819
20.170000	-1537.887311
20.180000	-1467.621087
20.190000	-1350.070533
20.200000	-1252.931404
20.210000	-1208.938232
20.220000	-1208.905841
20.230000	-1224.531424
20.240000	-1229.997175
20.250000	-1201.906736
20.260000	-1170.677170
20.270000	-1115.915402
20.280000	-1067.600466
20.290000	-1024.274708
20.300000	-1017.717393
20.310000	-1017.898615
20.320000	-999.279701
20.330000	-971.718126
20.340000	-944.938698
20.350000	-924.956497
20.360000	-898.305226
20.370000	-869.671079
20.380000	-845.768991
20.390000	-829.465394
20.400000	-809.950796
20.410000	-778.352593
20.420000	-743.601019
20.430000	-703.961973
20.440000	-681.065496
20.450000	-682.280875
20.460000	-693.551754
20.470000	-704.355377
20.480000	-707.123951
20.490000	-723.921011
20.500000	-756.715958
20.510000	-793.187642
20.520000	-857.480278
20.530000	-975.195675
20.540000	-1130.867767
20.550000	-1287.545892
20.560000	-1357.849830
20.570000	-1362.925816
20.580000	-1359.325977
20.590000	-1398.353362
20.600000	-1477.715482
20.610000	-1566.427847
20.620000	-1682.630830
20.630000	-1818.821315
20.640000	-1957.907745
20.650000	-2077.252597
20.660000	-2185.990102
20.670000	-2289.389898
20.680000	-2386.436937
20.690000	-2467.884756
20.700000	-2538.968794
20.710000	-2611.106905
20.720000	-2675.821366
20.730000	-2718.017941
20.740000	-2730.066515
20.750000	-2719.006345
20.760000	-2693.016857
20.770000	-2637.298665
20.780000	-2541.010048
20.790000	-2376.909519
20.800000	-2120.038002
20.810000	-1758.917464
20.820000	-1333.231427
20.830000	-864.899779
20.840000	-339.011716
20.850000	153.808502
20.860000	662.239539
20.870000	1121.522641
20.880000	1594.828068
20.890000	2109.793575
20.900000	2735.520005
20.910000	3514.315577
20.920000	4299.352237
20.930000	4904.725122
20.940000	5287.239714
20.950000	5575.939396
20.960000	5806.871789
20.970000	5936.603708
20.980000	5795.828102
20.990000	5368.360127
21.000000	4818.954472
21.010000	4300.425023
21.020000	4017.900616
21.030000	3875.674523
21.040000	3880.807983
21.050000	3873.479361
21.060000	3861.189981
21.070000	3531.087403
21.080000	3076.981303
21.090000	3139.274419
21.100000	3496.425550
21.110000	3883.029205
21.120000	3485.052434
21.130000	2596.518048
21.140000	1455.216767
21.150000	441.090391
21.160000	-159.180820
21.170000	-525.924558
21.180000	-893.363238
21.190000	-1378.252535
21.200000	-1814.737286
21.210000	-2098.716811
21.220000	-2166.521237
21.230000	-2112.245416
21.240000	-1997.178245
21.250000	-1910.144945
21.260000	-1794.061919
21.270000	-1629.774841
21.280000	-1422.637861
21.290000	-1259.920095
21.300000	-1182.375159
21.310000	-1206.954488
21.320000	-1353.406712
21.330000	-1607.514212
21.340000	-1868.818730
21.350000	-2033.012729
21.360000	-2097.458045
21.370000	-2072.159370
21.380000	-1983.086609
21.390000	-1836.529345
21.400000	-1687.458241
21.410000	-1558.418250
21.420000	-1447.034703
21.430000	-1369.964643
21.440000	-1343.881690
21.450000	-1379.764460
21.460000	-1334.573301
21.470000	-1156.079915
21.480000	-831.972658
21.490000	-487.369498
21.500000	-216.883447
21.510000	-148.009819
21.520000	-260.982068
21.530000	-401.872492
21.540000	-357.507336
21.550000	-166.347538
21.560000	5.363327
21.570000	104.569996
21.580000	218.034511
21.590000	352.017733
21.600000	375.748771
21.610000	226.740596
21.620000	20.708188
21.630000	-93.020376
21.640000	-161.780572
21.650000	-251.739632
21.660000	-358.647689
21.670000	-387.112190
21.680000	-324.644674
21.690000	-244.287028
21.700000	-217.536643
21.710000	-217.422501
21.720000	-221.002624
21.730000	-218.154654
21.740000	-254.515077
21.750000	-335.334398
21.760000	-420.125610
21.770000	-472.414048
21.780000	-498.407441
21.790000	-529.114397
21.800000	-543.430565
21.810000	-468.889944
21.820000	-292.498472
21.830000	-81.766542
21.840000	65.471898
21.850000	112.648195
21.860000	103.453943
21.870000	79.182416
21.880000	168.135873
21.890000	353.781247
21.900000	634.322191
21.910000	951.022433
21.920000	1235.281660
21.930000	1416.392904
21.940000	1455.799322
21.950000	1428.881016
21.960000	1424.159255
21.970000	1531.848083
21.980000	1707.291183
21.990000	1980.497429
22.000000	2274.273980
22.010000	2518.980918
22.020000	2721.281159
22.030000	2841.820893
22.040000	2973.803339
22.050000	3036.334986
22.060000	3045.411935
22.070000	3144.353748
22.080000	3331.445125
22.090000	3528.988052
22.100000	3584.431565
22.110000	3595.804014
22.120000	3721.411548
22.130000	4003.797884
22.140000	4184.394881
22.150000	4086.849101
22.160000	3765.511200
22.170000	3464.923143
22.180000	3350.578611
22.190000	3336.475700
22.200000	3376.927055
22.210000	3434.221490
22.220000	3512.562947
22.230000	3569.345347
22.240000	3592.122598
22.250000	3604.075580
22.260000	3635.544682
22.270000	3629.743503
22.280000	3548.863414
22.290000	3445.505111
22.300000	3411.803587
22.310000	3476.606552
22.320000	3552.940081
22.330000	3580.630125
22.340000	3575.133561
22.350000	3572.560396
22.360000	3587.786046
22.370000	3604.255671
22.380000	3617.657468
22.390000	3636.505439
22.400000	3666.708268
22.410000	3698.900368
22.420000	3723.947371
22.430000	3750.198183
22.440000	3793.395492
22.450000	3854.644994
22.460000	3928.348193
22.470000	4006.608927
22.480000	4080.488547
22.490000	4158.144054
22.500000	4226.428325
22.510000	4269.195891
22.520000	4255.519430
22.530000	4204.577563
22.540000	4146.834007
22.550000	4113.487299
22.560000	4103.586539
22.570000	4124.947552
22.580000	4160.463882
22.590000	4215.663366
22.600000	4282.497437
22.610000	4350.566303
22.620000	4414.070596
22.630000	4470.003906
22.640000	4533.554055
22.650000	4574.844705
22.660000	4604.007645
22.670000	4620.516393
22.680000	4652.733966
22.690000	4685.595377
22.700000	4717.356613
22.710000	4753.888151
22.720000	4798.832455
22.730000	4839.327984
22.740000	4867.514134
22.750000	4896.684370
22.760000	4936.376938
22.770000	4989.212820
22.780000	5030.354981
22.790000	5060.000243
22.800000	5073.509487
22.810000	5082.020242
22.820000	5090.168181
22.830000	5095.876619
22.840000	5098.017031
22.850000	5095.252683
22.860000	5081.372091
22.870000	5072.208201
22.880000	5069.205819
22.890000	5001.482498
22.900000	4853.040268
22.910000	4619.972498
22.920000	4382.955344
22.930000	4158.132691
22.940000	3945.338818
22.950000	3759.513298
22.960000	3582.141708
22.970000	3413.789959
22.980000	3233.728749
22.990000	3068.371042
23.000000	2934.128879
23.010000	2825.732059
23.020000	2717.310825
23.030000	2595.965984
23.040000	2467.379962
23.050000	2344.387900
23.060000	2234.936191
23.070000	2145.973083
23.080000	2078.307041
23.090000	2016.343494
23.100000	1960.551071
23.110000	1901.848840
23.120000	1859.031585
23.130000	1821.097680
23.140000	1796.389292
23.150000	1779.130528
23.160000	1777.941365
23.170000	1785.272489
23.180000	1791.306084
23.190000	1803.947349
23.200000	1831.822335
23.210000	1878.422978
23.220000	1936.121557
23.230000	1973.311557
23.240000	1955.222853
23.250000	1873.415156
23.260000	1762.583921
23.270000	1626.239649
23.280000	1449.700139
23.290000	1265.664624
23.300000	1155.418699
23.310000	1149.751677
23.320000	1233.476951
23.330000	1287.016506
23.340000	1387.204344
23.350000	1465.343145
23.360000	1612.162974
23.370000	1735.292067
23.380000	1881.627788
23.390000	2011.458588
23.400000	2159.751653
23.410000	2263.809258
23.420000	2371.964638
23.430000	2403.922563
23.440000	2469.146477
23.450000	2478.603415
23.460000	2544.325003
23.470000	2539.738403
23.480000	2492.033683
23.490000	2356.114352
23.500000	2329.847502
23.510000	2522.683583
23.520000	2772.015176
23.530000	2831.455398
23.540000	2774.158106
23.550000	2598.116635
23.560000	2558.100373
23.570000	2195.243441
23.580000	684.121081
23.590000	-5505.598246
23.600000	-6815.393456
23.610000	-5343.971867
23.620000	-1652.603798
23.630000	74.663609
23.640000	195.209683
23.650000	226.526241
23.660000	173.773472
23.670000	-1333.404712
23.680000	-5946.554205
23.690000	-8272.618998
23.700000	-7591.760207
23.710000	-2839.339064
23.720000	-756.685780
23.730000	-9.269596
23.740000	-480.016557
23.750000	-2202.623317
23.760000	-7221.337064
23.770000	-7580.480572
23.780000	-5132.224048
23.790000	-1921.337305
23.800000	-340.758578
23.810000	-177.909492
23.820000	-1002.929783
23.830000	-3043.575560
23.840000	-5748.182091
23.850000	-5850.285786
23.860000	-2481.730003
23.870000	-524.832780
23.880000	-237.252180
23.890000	-71.952398
23.900000	-222.563964
23.910000	-1367.435112
23.920000	-7765.031355
23.930000	-9508.303671
23.940000	-8340.420133
23.950000	-2701.863309
23.960000	-1036.360257
23.970000	-608.242120
23.980000	-762.846985
23.990000	-604.890790
24.000000	-580.322631
24.010000	-329.967658
24.020000	-323.047472
24.030000	-214.449578
24.040000	-287.474381
24.050000	-228.937026
24.060000	-311.822804
24.070000	-312.372745
24.080000	-435.662734
24.090000	-471.315466
24.100000	-574.489102
24.110000	-587.047893
24.120000	-637.420451
24.130000	-617.115227
24.140000	-647.302591
24.150000	-636.920700
24.160000	-672.661701
24.170000	-680.273917
24.180000	-730.075368
24.190000	-748.223032
24.200000	-781.145573
24.210000	-782.578109
24.220000	-795.455671
24.230000	-791.734144
24.240000	-809.277034
24.250000	-808.007352
24.260000	-806.257724
24.270000	-782.170063
24.280000	-753.013421
24.290000	-699.233488
24.300000	-666.283825
24.310000	-624.761777
24.320000	-619.429354
24.330000	-642.818998
24.340000	-722.344029
24.350000	-808.338812
24.360000	-860.960927
24.370000	-884.656454
24.380000	-890.941034
24.390000	-896.666811
24.400000	-893.865288
24.410000	-878.367513
24.420000	-852.488177
24.430000	-813.736755
24.440000	-785.865787
24.450000	-766.718378
24.460000	-767.631565
24.470000	-765.624407
24.480000	-752.791632
24.490000	-738.598576
24.500000	-732.974279
24.510000	-728.213155
24.520000	-721.861061
24.530000	-705.836185
24.540000	-679.459607
24.550000	-643.488777
24.560000	-607.107765
24.570000	-572.816992
24.580000	-533.758372
24.590000	-490.862254
24.600000	-460.481161
24.610000	-436.208995
24.620000	-404.883541
24.630000	-356.596980
24.640000	-303.713552
24.650000	-265.370846
24.660000	-245.870912
24.670000	-232.132545
24.680000	-202.708350
24.690000	-162.336700
24.700000	-119.594342
24.710000	-97.619670
24.720000	-112.500598
24.730000	-184.955795
24.740000	-293.665969
24.750000	-408.977744
24.760000	-507.223966
24.770000	-584.430768
24.780000	-647.857269
24.790000	-691.559446
24.800000	-738.282077
24.810000	-783.326247
24.820000	-835.123901
24.830000	-867.045144
24.840000	-887.444317
24.850000	-903.477360
24.860000	-929.501887
24.870000	-960.574697
24.880000	-992.948296
24.890000	-1009.020283
24.900000	-1015.515229
24.910000	-1000.134733
24.920000	-989.577781
24.930000	-972.868270
24.940000	-964.767638
24.950000	-949.575468
24.960000	-936.082793
24.970000	-912.284276
24.980000	-891.861255
24.990000	-855.295342
25.000000	-824.480917
25.010000	-780.923610
25.020000	-751.955248
25.030000	-704.448625
25.040000	-680.365948
25.050000	-642.152694
25.060000	-611.671277
25.070000	-545.075038
25.080000	-513.023834
25.090000	-473.755306
25.100000	-500.091776
25.110000	-525.788250
25.120000	-626.284129
25.130000	-696.394320
25.140000	-793.325685
25.150000	-819.646129
25.160000	-887.346852
25.170000	-888.699486
25.180000	-961.782107
25.190000	-946.339676
25.200000	-1008.186424
25.210000	-948.385459
25.220000	-1672.031038
25.230000	-3158.630950
25.240000	-3747.112138
25.250000	-3137.691679
25.260000	-1730.860150
25.270000	-1190.967771
25.280000	-1186.203466
25.290000	-1071.796027
25.300000	-1113.125460
25.310000	-959.344453
25.320000	-1238.816746
25.330000	-3003.017322
25.340000	-4964.164842
25.350000	-5060.211912
25.360000	-3081.349523
25.370000	-1245.037210
25.380000	-845.748157
25.390000	-701.476692
25.400000	-1001.663261
25.410000	-2674.759380
25.420000	-6209.916838
25.430000	-7758.438889
25.440000	-6976.402421
25.450000	-4550.206355
25.460000	-1910.627159
25.470000	-273.688321
25.480000	-248.934242
25.490000	-108.897357
25.500000	-26.880623
25.510000	35.054981
25.520000	-15.938502
25.530000	-130.354102
25.540000	-241.033771
25.550000	-298.230338
25.560000	-352.824884
25.570000	-387.338404
25.580000	-435.843965
25.590000	-452.312963
25.600000	-460.808843
25.610000	-430.891224
25.620000	-400.715641
25.630000	-381.816663
25.640000	-385.375203
25.650000	-395.421373
25.660000	-412.834991
25.670000	-419.060081
25.680000	-423.793189
25.690000	-419.739697
25.700000	-419.226281
25.710000	-405.427004
25.720000	-376.120668
25.730000	-330.205320
25.740000	-290.836365
25.750000	-249.986088
25.760000	-213.010332
25.770000	-169.478420
25.780000	-124.314806
25.790000	-70.359300
25.800000	-19.092289
25.810000	24.689626
25.820000	58.715206
25.830000	94.353988
25.840000	136.415916
25.850000	184.916340
25.860000	238.356889
25.870000	285.028326
25.880000	328.584327
25.890000	356.339630
25.900000	391.487758
25.910000	429.151203
25.920000	431.210506
25.930000	357.534451
25.940000	234.025065
25.950000	130.281405
25.960000	67.951522
25.970000	23.815298
25.980000	-6.493495
25.990000	-24.065165
26.000000	-42.730284
26.010000	-75.700803
26.020000	-123.689714
26.030000	-165.032044
26.040000	-215.843405
26.050000	-287.774943
26.060000	-394.760711
26.070000	-522.196897
26.080000	-636.717343
26.090000	-778.912924
26.100000	-979.070035
26.110000	-1158.754783
26.120000	-1260.905942
26.130000	-1268.798678
26.140000	-1307.221839
26.150000	-1399.989938
26.160000	-1501.438315
26.170000	-1564.602407
26.180000	-1575.503532
26.190000	-1581.809020
26.200000	-1581.189600
26.210000	-1536.678670
26.220000	-1432.692560
26.230000	-1288.401917
26.240000	-1195.486116
26.250000	-1138.255007
26.260000	-1108.057035
26.270000	-1076.812714
26.280000	-1054.824621
26.290000	-1069.842856
26.300000	-1099.211538
26.310000	-1128.987956
26.320000	-1177.110289
26.330000	-1257.880579
26.340000	-1341.645722
26.350000	-1406.886173
26.360000	-1431.269438
26.370000	-1491.253493
26.380000	-1538.975286
26.390000	-1562.476207
26.400000	-1471.556198
26.410000	-1341.576781
26.420000	-1236.528841
26.430000	-1159.265549
26.440000	-1101.894564
26.450000	-1064.398343
26.460000	-1112.529789
26.470000	-1185.271601
26.480000	-1240.639053
26.490000	-1249.267728
26.500000	-1165.792344
26.510000	-901.900299
26.520000	-460.283073
26.530000	62.455291
26.540000	482.900792
26.550000	700.952991
26.560000	777.774455
26.570000	832.189534
26.580000	912.702371
26.590000	934.307023
26.600000	854.996272
26.610000	701.862425
26.620000	495.186491
26.630000	253.996307
26.640000	13.001931
26.650000	-185.600213
26.660000	-338.038912
26.670000	-472.367999
26.680000	-570.035383
26.690000	-617.900729
26.700000	-626.513440
26.710000	-622.560740
26.720000	-650.121990
26.730000	-719.878175
26.740000	-824.095543
26.750000	-924.192886
26.760000	-992.514189
26.770000	-1029.332471
26.780000	-1043.704865
26.790000	-1052.574687
26.800000	-1075.316250
26.810000	-1100.145075
26.820000	-1120.355048
26.830000	-1112.415761
26.840000	-1076.204345
26.850000	-1033.158232
26.860000	-1006.136468
26.870000	-998.592673
26.880000	-983.730450
26.890000	-957.166617
26.900000	-927.103269
26.910000	-896.135754
26.920000	-851.510840
26.930000	-792.882186
26.940000	-723.337366
26.950000	-657.402524
26.960000	-599.879299
26.970000	-545.637323
26.980000	-475.122977
26.990000	-395.018488
27.000000	-310.770514
27.010000	-235.828496
27.020000	-166.778203
27.030000	-103.386647
27.040000	-41.179919
27.050000	29.998865
27.060000	109.650884
27.070000	189.625546
27.080000	260.407189
27.090000	342.263679
27.100000	425.678400
27.110000	505.176687
27.120000	570.534066
27.130000	600.657735
27.140000	576.994986
27.150000	506.139845
27.160000	423.467330
27.170000	365.558018
27.180000	325.754042
27.190000	301.922116
27.200000	288.297981
27.210000	280.557734
27.220000	286.142162
27.230000	301.765518
27.240000	325.258063
27.250000	335.189415
27.260000	332.705342
27.270000	322.559614
27.280000	308.419716
27.290000	299.214694
27.300000	294.713043
27.310000	294.807911
27.320000	298.274774
27.330000	298.658579
27.340000	303.480382
27.350000	305.407614
27.360000	291.610394
27.370000	261.797593
27.380000	231.056149
27.390000	219.140898
27.400000	223.381147
27.410000	222.373919
27.420000	211.025767
27.430000	205.273188
27.440000	213.257791
27.450000	231.750362
27.460000	245.733562
27.470000	251.535143
27.480000	251.502634
27.490000	257.957737
27.500000	268.174445
27.510000	276.650421
27.520000	281.467462
27.530000	263.574391
27.540000	197.020181
27.550000	87.196740
27.560000	-33.072490
27.570000	-93.799262
27.580000	-108.782076
27.590000	-103.547291
27.600000	-137.637934
27.610000	-207.173659
27.620000	-264.091336
27.630000	-273.220693
27.640000	-208.955953
27.650000	-124.535579
27.660000	-23.735707
27.670000	88.094540
27.680000	234.179325
27.690000	380.183188
27.700000	502.407171
27.710000	580.230870
27.720000	646.733396
27.730000	717.180823
27.740000	775.257713
27.750000	791.379465
27.760000	754.785826
27.770000	712.689718
27.780000	690.874418
27.790000	688.212342
27.800000	681.188080
27.810000	652.706098
27.820000	597.153715
27.830000	547.927694
27.840000	518.017589
27.850000	499.045147
27.860000	469.466768
27.870000	416.809226
27.880000	351.935335
27.890000	297.895650
27.900000	272.010607
27.910000	251.494601
27.920000	230.756023
27.930000	178.312261
27.940000	77.498858
27.950000	-67.522593
27.960000	-216.368305
27.970000	-319.040295
27.980000	-390.456118
27.990000	-433.901506
28.000000	-460.607644
28.010000	-491.163405
28.020000	-508.029193
28.030000	-505.164726
28.040000	-508.913949
28.050000	-524.147748
28.060000	-562.524442
28.070000	-590.714047
28.080000	-619.629700
28.090000	-624.555476
28.100000	-595.481406
28.110000	-532.463673
28.120000	-429.354922
28.130000	-299.463879
28.140000	-158.272700
28.150000	-34.872810
28.160000	48.791423
28.170000	45.277449
28.180000	-17.641694
28.190000	-76.845413
28.200000	-87.494945
28.210000	-76.535072
28.220000	-61.357977
28.230000	-46.224396
28.240000	-49.294632
28.250000	-86.609726
28.260000	-143.515185
28.270000	-192.661439
28.280000	-242.869379
28.290000	-300.072563
28.300000	-341.846070
28.310000	-361.894748
28.320000	-376.250548
28.330000	-404.760248
28.340000	-469.025720
28.350000	-574.613945
28.360000	-713.462058
28.370000	-838.726090
28.380000	-925.322818
28.390000	-984.301815
28.400000	-1026.547143
28.410000	-1056.557030
28.420000	-1079.804175
28.430000	-1090.811865
28.440000	-1099.800337
28.450000	-1103.391685
28.460000	-1109.188633
28.470000	-1105.613770
28.480000	-1092.636551
28.490000	-1074.207653
28.500000	-1056.116665
28.510000	-1044.495896
28.520000	-1027.239708
28.530000	-1000.165184
28.540000	-963.400129
28.550000	-929.560559
28.560000	-899.887339
28.570000	-867.624905
28.580000	-831.078949
28.590000	-783.699306
28.600000	-715.951974
28.610000	-636.512880
28.620000	-547.495678
28.630000	-464.719004
28.640000	-379.994554
28.650000	-294.304290
28.660000	-200.491247
28.670000	-108.288997
28.680000	-21.992223
28.690000	51.366699
28.700000	124.877133
28.710000	193.956066
28.720000	237.684309
28.730000	259.930012
28.740000	264.809137
28.750000	259.563322
28.760000	211.475469
28.770000	131.969592
28.780000	38.142908
28.790000	-35.256330
28.800000	-88.633075
28.810000	-114.139322
28.820000	-125.815112
28.830000	-135.695610
28.840000	-151.329829
28.850000	-172.909557
28.860000	-182.137826
28.870000	-189.546273
28.880000	-201.945389
28.890000	-218.504649
28.900000	-237.760049
28.910000	-244.767697
28.920000	-218.231816
28.930000	-144.392182
28.940000	-43.470510
28.950000	35.564598
28.960000	80.385469
28.970000	94.225301
28.980000	99.288553
28.990000	96.489678
29.000000	103.901393
29.010000	105.323030
29.020000	109.245640
29.030000	114.460477
29.040000	126.606575
29.050000	146.583264
29.060000	171.622942
29.070000	223.773520
29.080000	292.883993
29.090000	374.646755
29.100000	451.776801
29.110000	522.563972
29.120000	558.597949
29.130000	554.212464
29.140000	512.445607
29.150000	457.923310
29.160000	396.244523
29.170000	341.327643
29.180000	293.343434
29.190000	236.359282
29.200000	171.828745
29.210000	119.446780
29.220000	109.348932
29.230000	103.019028
29.240000	86.944874
29.250000	58.629050
29.260000	36.940794
29.270000	14.842982
29.280000	-17.395181
29.290000	-50.548415
29.300000	-87.421153
29.310000	-125.581949
29.320000	-164.775850
29.330000	-195.913527
29.340000	-262.931387
29.350000	-353.411751
29.360000	-417.973052
29.370000	-428.956849
29.380000	-401.452223
29.390000	-398.954546
29.400000	-419.403872
29.410000	-442.888624
29.420000	-452.682560
29.430000	-433.143510
29.440000	-403.708297
29.450000	-382.378026
29.460000	-367.997860
29.470000	-350.570892
29.480000	-357.706210
29.490000	-414.739206
29.500000	-503.944171
29.510000	-567.110395
29.520000	-570.897364
29.530000	-527.586660
29.540000	-400.027404
29.550000	-183.798281
29.560000	73.721983
29.570000	262.506894
29.580000	397.838230
29.590000	531.936714
29.600000	707.619000
29.610000	907.224605
29.620000	1119.441873
29.630000	1333.204989
29.640000	1525.591144
29.650000	1714.657363
29.660000	1932.472130
29.670000	2172.363687
29.680000	2370.222823
29.690000	2502.877007
29.700000	2581.095051
29.710000	2616.421174
29.720000	2606.959469
29.730000	2552.666572
29.740000	2473.575528
29.750000	2397.296286
29.760000	2338.185683
29.770000	2349.396696
29.780000	2439.036550
29.790000	2594.805770
29.800000	2785.868147
29.810000	2986.928620
29.820000	3124.599777
29.830000	3152.157040
29.840000	3081.190775
29.850000	2972.553474
29.860000	2850.714714
29.870000	2716.584875
29.880000	2594.001420
29.890000	2484.922751
29.900000	2397.003757
29.910000	2299.856192
29.920000	2124.600483
29.930000	1804.161404
29.940000	1382.201533
29.950000	999.767609
29.960000	785.468610
29.970000	710.307785
29.980000	764.154337
29.990000	840.951308
30.000000	892.699648
30.010000	903.382766
30.020000	911.093635
30.030000	964.209157
30.040000	1005.230132
30.050000	1029.881655
30.060000	1070.166134
30.070000	1163.268188
30.080000	1281.289780
30.090000	1358.249779
30.100000	1341.482903
30.110000	1268.846142
30.120000	1121.218912
30.130000	941.645850
30.140000	742.235775
30.150000	689.568858
30.160000	780.819590
30.170000	883.835429
30.180000	870.112056
30.190000	708.735193
30.200000	509.823553
30.210000	315.145414
30.220000	145.174591
30.230000	54.346782
30.240000	4.301797
30.250000	-62.139330
30.260000	-180.480756
30.270000	-245.876081
30.280000	-110.448074
30.290000	197.600436
30.300000	564.379317
30.310000	782.182507
30.320000	655.937804
30.330000	269.894652
30.340000	-151.088123
30.350000	-475.954955
30.360000	-687.397421
30.370000	-738.026407
30.380000	-425.586001
30.390000	70.549161
30.400000	402.123273
30.410000	375.243567
30.420000	176.906728
30.430000	110.619184
30.440000	273.150072
30.450000	432.118308
30.460000	297.596067
30.470000	-151.617286
30.480000	-738.051911
30.490000	-1190.735878
30.500000	-1414.489360
30.510000	-1432.820601
30.520000	-1343.437578
30.530000	-1264.936487
30.540000	-1195.361961
30.550000	-1112.303598
30.560000	-1049.414527
30.570000	-1009.894719
30.580000	-988.418108
30.590000	-955.393736
30.600000	-927.523477
30.610000	-943.594813
30.620000	-914.920215
30.630000	-782.853306
30.640000	-574.527535
30.650000	-442.765399
30.660000	-469.916416
30.670000	-597.599481
30.680000	-751.236051
30.690000	-926.267843
30.700000	-1138.252954
30.710000	-1349.097577
30.720000	-1525.926295
30.730000	-1635.234389
30.740000	-1660.956367
30.750000	-1518.491814
30.760000	-1274.042820
30.770000	-1065.922819
30.780000	-973.609852
30.790000	-958.672132
30.800000	-913.629366
30.810000	-873.454800
30.820000	-847.554048
30.830000	-829.502669
30.840000	-773.011198
30.850000	-695.701314
30.860000	-636.502051
30.870000	-619.835228
30.880000	-617.155803
30.890000	-591.253646
30.900000	-536.872210
30.910000	-479.397703
30.920000	-462.613873
30.930000	-485.393045
30.940000	-507.221905
30.950000	-516.442090
30.960000	-536.567561
30.970000	-558.709724
30.980000	-559.848551
30.990000	-509.263582
31.000000	-445.627397
31.010000	-390.076424
31.020000	-345.997858
31.030000	-285.109195
31.040000	-216.778519
31.050000	-149.780333
31.060000	-99.884932
31.070000	-92.116632
31.080000	-132.578993
31.090000	-202.691285
31.100000	-247.813369
31.110000	-262.373265
31.120000	-277.454179
31.130000	-289.265084
31.140000	-290.390522
31.150000	-260.092329
31.160000	-225.095774
31.170000	-193.841092
31.180000	-175.441136
31.190000	-178.560075
31.200000	-188.025671
31.210000	-196.271108
31.220000	-179.870996
31.230000	-158.070205
31.240000	-141.998082
31.250000	-133.815234
31.260000	-115.038883
31.270000	-82.572785
31.280000	-37.728565
31.290000	10.344850
31.300000	50.272505
31.310000	81.656322
31.320000	109.652673
31.330000	159.052386
31.340000	229.995955
31.350000	298.747174
31.360000	361.090642
31.370000	448.237204
31.380000	593.556013
31.390000	762.906715
31.400000	924.058339
31.410000	1035.248565
31.420000	1105.732775
31.430000	1142.616626
31.440000	1156.114655
31.450000	1143.982824
31.460000	1098.848245
31.470000	1056.834386
31.480000	1036.566436
31.490000	1011.260646
31.500000	934.262882
31.510000	835.931331
31.520000	775.404685
31.530000	781.886169
31.540000	791.657702
31.550000	789.340256
31.560000	759.610737
31.570000	721.588851
31.580000	687.244079
31.590000	675.556679
31.600000	672.486736
31.610000	643.167338
31.620000	610.588355
31.630000	615.861172
31.640000	652.258664
31.650000	668.800218
31.660000	666.772624
31.670000	703.927777
31.680000	792.862654
31.690000	874.892974
31.700000	909.703206
31.710000	921.401837
31.720000	985.718904
31.730000	1110.758295
31.740000	1250.285326
31.750000	1321.046338
31.760000	1344.505910
31.770000	1382.812614
31.780000	1448.623657
31.790000	1489.098685
31.800000	1441.747843
31.810000	1345.028201
31.820000	1263.977790
31.830000	1203.157593
31.840000	1136.155199
31.850000	1043.672267
31.860000	981.571322
31.870000	981.485868
31.880000	977.417954
31.890000	934.750837
31.900000	882.136713
31.910000	868.436168
31.920000	885.062379
31.930000	882.707505
31.940000	850.792083
31.950000	826.808357
31.960000	819.139129
31.970000	805.187886
31.980000	771.207375
31.990000	745.045013
32.000000	738.594948
32.010000	742.874394
32.020000	758.036988
32.030000	793.090575
32.040000	835.448636
32.050000	854.953847
32.060000	870.690640
32.070000	902.848351
32.080000	938.536401
32.090000	948.057719
32.100000	953.886218
32.110000	976.622438
32.120000	1027.570723
32.130000	1080.109601
32.140000	1097.921590
32.150000	1100.776845
32.160000	1113.980058
32.170000	1107.317032
32.180000	1024.659135
32.190000	872.721288
32.200000	737.914909
32.210000	666.372389
32.220000	613.612277
32.230000	559.781262
32.240000	498.703660
32.250000	449.950281
32.260000	419.780895
32.270000	398.430677
32.280000	381.895648
32.290000	357.909713
32.300000	330.074953
32.310000	306.087262
32.320000	294.276232
32.330000	299.274517
32.340000	288.060243
32.350000	276.281227
32.360000	273.512978
32.370000	288.303471
32.380000	298.566216
32.390000	284.014920
32.400000	274.106621
32.410000	288.382624
32.420000	333.962678
32.430000	357.266323
32.440000	359.651950
32.450000	367.233276
32.460000	405.688224
32.470000	453.752433
32.480000	486.394887
32.490000	510.706815
32.500000	542.137766
32.510000	596.007022
32.520000	650.457643
32.530000	703.707724
32.540000	709.333177
32.550000	646.155613
32.560000	521.297196
32.570000	399.104328
32.580000	331.570507
32.590000	299.199474
32.600000	273.494773
32.610000	255.718252
32.620000	247.093721
32.630000	238.884011
32.640000	223.035103
32.650000	209.104916
32.660000	225.701798
32.670000	255.204718
32.680000	291.405253
32.690000	309.257742
32.700000	320.213451
32.710000	324.283386
32.720000	326.706255
32.730000	330.639766
32.740000	336.861843
32.750000	344.326655
32.760000	357.701505
32.770000	367.308724
32.780000	368.221655
32.790000	360.972749
32.800000	369.472499
32.810000	388.890507
32.820000	406.366811
32.830000	414.154009
32.840000	413.951619
32.850000	421.787593
32.860000	439.160087
32.870000	465.077410
32.880000	480.648635
32.890000	479.062479
32.900000	464.829851
32.910000	458.419108
32.920000	433.877457
32.930000	364.433532
32.940000	257.010470
32.950000	154.873450
32.960000	96.121117
32.970000	65.825698
32.980000	48.554493
32.990000	32.778928
33.000000	24.692948
33.010000	24.036978
33.020000	26.141311
33.030000	35.642084
33.040000	51.896146
33.050000	79.248005
33.060000	109.603408
33.070000	144.867454
33.080000	178.272388
33.090000	208.486847
33.100000	241.612937
33.110000	291.778909
33.120000	365.582899
33.130000	462.033021
33.140000	570.174526
33.150000	681.275063
33.160000	784.073831
33.170000	877.525912
33.180000	949.924052
33.190000	1006.135266
33.200000	1062.117161
33.210000	1092.609944
33.220000	1075.296313
33.230000	1031.849499
33.240000	993.478461
33.250000	1004.768677
33.260000	1026.740046
33.270000	1019.660812
33.280000	953.001318
33.290000	810.231865
33.300000	612.004560
33.310000	389.470977
33.320000	204.062892
33.330000	91.276812
33.340000	36.621250
33.350000	20.037372
33.360000	39.197684
33.370000	68.703303
33.380000	93.437123
33.390000	98.671092
33.400000	99.391658
33.410000	98.237812
33.420000	97.310251
33.430000	100.775098
33.440000	104.169393
33.450000	96.257388
33.460000	64.320759
33.470000	17.428505
33.480000	-29.216019
33.490000	-72.806734
33.500000	-120.820657
33.510000	-148.995059
33.520000	-147.171609
33.530000	-123.274602
33.540000	-100.272742
33.550000	-84.551435
33.560000	-59.688044
33.570000	-29.929157
33.580000	0.852921
33.590000	14.274529
33.600000	24.437067
33.610000	54.122042
33.620000	104.581426
33.630000	145.835813
33.640000	161.715111
33.650000	186.973541
33.660000	213.347424
33.670000	237.407351
33.680000	235.205542
33.690000	194.488126
33.700000	110.364750
33.710000	1.580703
33.720000	-88.462084
33.730000	-157.494107
33.740000	-215.043050
33.750000	-262.602565
33.760000	-298.003654
33.770000	-335.145499
33.780000	-359.276554
33.790000	-369.785570
33.800000	-363.267389
33.810000	-363.894299
33.820000	-374.927677
33.830000	-389.703287
33.840000	-403.989465
33.850000	-411.903190
33.860000	-416.806057
33.870000	-425.509272
33.880000	-437.666985
33.890000	-445.492866
33.900000	-441.259976
33.910000	-428.907683
33.920000	-421.611460
33.930000	-420.356087
33.940000	-413.997308
33.950000	-405.578405
33.960000	-388.425348
33.970000	-367.903271
33.980000	-339.897429
33.990000	-308.989360
34.000000	-290.135937
34.010000	-278.091817
34.020000	-263.435416
34.030000	-226.572695
34.040000	-178.893608
34.050000	-145.833010
34.060000	-135.044404
34.070000	-119.740755
34.080000	-106.028147
34.090000	-85.351412
34.100000	-68.475378
34.110000	-73.392923
34.120000	-127.025377
34.130000	-223.757224
34.140000	-316.540975
34.150000	-372.239701
34.160000	-405.267721
34.170000	-428.799889
34.180000	-454.739323
34.190000	-481.405017
34.200000	-481.222621
34.210000	-467.204995
34.220000	-453.459524
34.230000	-457.097710
34.240000	-464.697603
34.250000	-472.435711
34.260000	-480.365800
34.270000	-480.170732
34.280000	-478.161393
34.290000	-468.627158
34.300000	-451.059565
34.310000	-423.501761
34.320000	-403.433806
34.330000	-392.422535
34.340000	-377.859514
34.350000	-348.437805
34.360000	-309.756429
34.370000	-269.216647
34.380000	-237.087021
34.390000	-209.382655
34.400000	-174.490153
34.410000	-151.059117
34.420000	-148.629439
34.430000	-153.433243
34.440000	-126.461585
34.450000	-71.019611
34.460000	-25.486592
34.470000	8.063372
34.480000	32.404185
34.490000	68.097174
34.500000	109.123419
34.510000	124.964648
34.520000	134.211326
34.530000	132.000994
34.540000	112.863681
34.550000	41.186830
34.560000	-84.825979
34.570000	-232.969345
34.580000	-347.887963
34.590000	-419.686792
34.600000	-479.165300
34.610000	-571.882195
34.620000	-683.048138
34.630000	-764.758392
34.640000	-822.850824
34.650000	-862.405236
34.660000	-902.130825
34.670000	-949.795723
34.680000	-979.759902
34.690000	-977.658479
34.700000	-970.277098
34.710000	-1017.387387
34.720000	-1068.601069
34.730000	-1041.805610
34.740000	-968.681131
34.750000	-942.503659
34.760000	-972.307559
34.770000	-968.375305
34.780000	-916.586859
34.790000	-870.211019
34.800000	-885.988408
34.810000	-898.156710
34.820000	-865.905320
34.830000	-796.013660
34.840000	-728.360736
34.850000	-676.245572
34.860000	-624.185435
34.870000	-583.666923
34.880000	-544.065128
34.890000	-487.517809
34.900000	-439.179402
34.910000	-405.768173
34.920000	-393.074921
34.930000	-397.109140
34.940000	-415.425827
34.950000	-446.905228
34.960000	-465.827650
34.970000	-485.259992
34.980000	-475.564657
34.990000	-390.020639
35.000000	-212.171249
35.010000	-21.498237
35.020000	134.188716
35.030000	228.963518
35.040000	323.331667
35.050000	395.745186
35.060000	402.625737
35.070000	315.780415
35.080000	147.241268
35.090000	-65.236384
35.100000	-342.092712
35.110000	-587.724461
35.120000	-742.983814
35.130000	-753.349231
35.140000	-746.165401
35.150000	-791.942528
35.160000	-863.537048
35.170000	-886.865483
35.180000	-807.421352
35.190000	-734.029559
35.200000	-719.611590
35.210000	-806.290408
35.220000	-920.611102
35.230000	-1042.825763
35.240000	-1153.070897
35.250000	-1236.836691
35.260000	-1298.710943
35.270000	-1352.668119
35.280000	-1430.528301
35.290000	-1504.130005
35.300000	-1608.982634
35.310000	-1755.318118
35.320000	-1910.782534
35.330000	-1991.494106
35.340000	-1995.604001
35.350000	-1997.007900
35.360000	-2022.425830
35.370000	-2029.796202
35.380000	-1945.624893
35.390000	-1788.969064
35.400000	-1644.467891
35.410000	-1591.257393
35.420000	-1617.525101
35.430000	-1659.533866
35.440000	-1683.796227
35.450000	-1637.554974
35.460000	-1549.421785
35.470000	-1409.267333
35.480000	-1285.393783
35.490000	-1171.238448
35.500000	-1076.541616
35.510000	-984.935586
35.520000	-856.088026
35.530000	-687.534453
35.540000	-505.510972
35.550000	-394.089860
35.560000	-355.172560
35.570000	-384.091529
35.580000	-428.166552
35.590000	-456.951842
35.600000	-429.596173
35.610000	-376.471946
35.620000	-422.416045
35.630000	-572.460418
35.640000	-785.573441
35.650000	-941.695829
35.660000	-995.399760
35.670000	-940.502914
35.680000	-800.103657
35.690000	-685.348920
35.700000	-552.846782
35.710000	-403.780958
35.720000	-228.022355
35.730000	-61.469515
35.740000	127.524246
35.750000	277.456165
35.760000	258.754057
35.770000	-35.351934
35.780000	-510.927869
35.790000	-1024.486830
35.800000	-1503.935357
35.810000	-1906.832551
35.820000	-2209.122624
35.830000	-2392.322753
35.840000	-2517.657870
35.850000	-2628.893926
35.860000	-2731.884428
35.870000	-2790.812593
35.880000	-2831.074211
35.890000	-2870.171149
35.900000	-2917.369396
35.910000	-2960.933148
35.920000	-2988.122701
35.930000	-2992.172163
35.940000	-2970.681653
35.950000	-2936.579965
35.960000	-2882.310705
35.970000	-2812.480530
35.980000	-2742.093979
35.990000	-2664.781006
36.000000	-2575.672933
36.010000	-2471.209556
36.020000	-2378.460064
36.030000	-2306.044372
36.040000	-2243.317429
36.050000	-2191.701671
36.060000	-2158.981115
36.070000	-2143.788849
36.080000	-2132.064433
36.090000	-2103.312317
36.100000	-2061.000323
36.110000	-2009.290557
36.120000	-1977.791731
36.130000	-1953.938005
36.140000	-1919.351624
36.150000	-1892.470410
36.160000	-1906.401696
36.170000	-1965.372749
36.180000	-2028.777240
36.190000	-2069.426563
36.200000	-2092.020990
36.210000	-2098.920554
36.220000	-2101.736058
36.230000	-2114.533160
36.240000	-2137.524230
36.250000	-2162.566570
36.260000	-2179.750555
36.270000	-2199.096966
36.280000	-2218.050478
36.290000	-2244.429877
36.300000	-2267.739987
36.310000	-2290.571133
36.320000	-2306.509677
36.330000	-2319.845856
36.340000	-2326.024953
36.350000	-2319.553677
36.360000	-2305.002659
36.370000	-2281.680935
36.380000	-2254.094280
36.390000	-2214.874294
36.400000	-2186.031028
36.410000	-2171.448014
36.420000	-2167.041738
36.430000	-2153.742097
36.440000	-2136.879995
36.450000	-2123.466981
36.460000	-2108.109339
36.470000	-2114.696412
36.480000	-2134.004136
36.490000	-2158.352088
36.500000	-2165.279265
36.510000	-2156.828234
36.520000	-2151.351254
36.530000	-2174.074206
36.540000	-2241.148133
36.550000	-2340.324178
36.560000	-2436.630112
36.570000	-2521.726974
36.580000	-2594.543872
36.590000	-2653.204840
36.600000	-2690.519098
36.610000	-2704.438327
36.620000	-2708.945268
36.630000	-2706.378811
36.640000	-2702.785983
36.650000	-2690.016695
36.660000	-2672.061785
36.670000	-2648.710112
36.680000	-2610.377566
36.690000	-2535.434800
36.700000	-2425.152547
36.710000	-2300.608792
36.720000	-2175.968694
36.730000	-2054.478181
36.740000	-1885.026154
36.750000	-1643.143227
36.760000	-1344.916016
36.770000	-1074.715349
36.780000	-880.757945
36.790000	-793.287973
36.800000	-754.406138
36.810000	-772.756874
36.820000	-824.009084
36.830000	-870.900723
36.840000	-891.696944
36.850000	-850.713658
36.860000	-824.064390
36.870000	-833.414694
36.880000	-904.813304
36.890000	-981.255490
36.900000	-1033.003419
36.910000	-1064.555061
36.920000	-1096.266926
36.930000	-1109.776543
36.940000	-1094.578685
36.950000	-1074.784847
36.960000	-1097.309885
36.970000	-1114.889684
36.980000	-1099.113122
36.990000	-1033.713179
37.000000	-945.718952
37.010000	-863.221633
37.020000	-802.639789
37.030000	-766.036078
37.040000	-728.496971
37.050000	-697.949503
37.060000	-715.786521
37.070000	-768.049687
37.080000	-783.255188
37.090000	-763.687922
37.100000	-795.621630
37.110000	-884.101800
37.120000	-946.744993
37.130000	-957.331960
37.140000	-969.748696
37.150000	-995.103245
37.160000	-978.227271
37.170000	-903.304468
37.180000	-816.195376
37.190000	-765.832529
37.200000	-693.852116
37.210000	-610.530708
37.220000	-543.870720
37.230000	-528.558674
37.240000	-513.630421
37.250000	-445.554173
37.260000	-391.026497
37.270000	-372.398937
37.280000	-372.616969
37.290000	-348.138477
37.300000	-345.754638
37.310000	-410.169601
37.320000	-524.017365
37.330000	-694.896386
37.340000	-877.426564
37.350000	-1031.260522
37.360000	-1100.414556
37.370000	-1046.960864
37.380000	-875.805006
37.390000	-695.896643
37.400000	-628.176249
37.410000	-721.914952
37.420000	-878.084396
37.430000	-1032.304149
37.440000	-1160.042550
37.450000	-1229.612414
37.460000	-1233.671112
37.470000	-1184.910733
37.480000	-1106.260961
37.490000	-1010.445657
37.500000	-918.803902
37.510000	-847.895002
37.520000	-772.825318
37.530000	-669.269680
37.540000	-526.806797
37.550000	-412.443659
37.560000	-278.391045
37.570000	-58.149071
37.580000	307.757835
37.590000	801.688044
37.600000	1223.495034
37.610000	1494.951511
37.620000	1567.741116
37.630000	1558.429803
37.640000	1539.964583
37.650000	1502.446287
37.660000	1461.024453
37.670000	1402.153424
37.680000	1325.893011
37.690000	1275.418811
37.700000	1287.519024
37.710000	1323.253029
37.720000	1276.405572
37.730000	1136.798138
37.740000	1053.177542
37.750000	1083.210471
37.760000	1033.044532
37.770000	654.594800
37.780000	-6.826583
37.790000	-523.178516
37.800000	-632.694793
37.810000	-475.928809
37.820000	-455.820542
37.830000	-643.302324
37.840000	-824.029422
37.850000	-926.265747
37.860000	-1028.514052
37.870000	-1209.089977
37.880000	-1224.307143
37.890000	-864.197885
37.900000	-298.666175
37.910000	53.155566
37.920000	-1.255107
37.930000	-185.386561
37.940000	-200.297764
37.950000	-34.230969
37.960000	134.626191
37.970000	230.028081
37.980000	262.948321
37.990000	233.083265
38.000000	82.942310
38.010000	-186.871245
38.020000	-482.642064
38.030000	-634.448735
38.040000	-594.057797
38.050000	-403.101694
38.060000	-151.767042
38.070000	4.908902
38.080000	-20.446940
38.090000	-209.946060
38.100000	-393.194138
38.110000	-446.079142
38.120000	-358.403380
38.130000	-232.669097
38.140000	-123.961216
38.150000	-94.087840
38.160000	-145.163580
38.170000	-346.497777
38.180000	-754.802807
38.190000	-1238.861167
38.200000	-1635.154419
38.210000	-1838.183159
38.220000	-1967.254199
38.230000	-2087.819420
38.240000	-2210.998389
38.250000	-2280.729573
38.260000	-2279.304423
38.270000	-2264.635343
38.280000	-2232.225027
38.290000	-2244.174733
38.300000	-2250.285934
38.310000	-2285.394443
38.320000	-2289.196975
38.330000	-2231.138629
38.340000	-2092.247249
38.350000	-1937.886504
38.360000	-1812.342975
38.370000	-1774.776513
38.380000	-1754.514652
38.390000	-1735.580544
38.400000	-1688.410714
38.410000	-1650.996384
38.420000	-1666.411553
38.430000	-1742.069635
38.440000	-1925.275176
38.450000	-2029.251036
38.460000	-1951.118145
38.470000	-1671.408275
38.480000	-1408.358552
38.490000	-1303.430346
38.500000	-1405.752191
38.510000	-1651.212680
38.520000	-1962.177753
38.530000	-2114.994125
38.540000	-2095.576832
38.550000	-2031.560483
38.560000	-2051.705739
38.570000	-2132.767134
38.580000	-2114.848155
38.590000	-2011.169123
38.600000	-1841.392473
38.610000	-1747.956870
38.620000	-1776.383467
38.630000	-1875.857201
38.640000	-1940.932560
38.650000	-1948.355713
38.660000	-1949.723949
38.670000	-1951.431048
38.680000	-1959.546346
38.690000	-1986.553473
38.700000	-2059.101350
38.710000	-2183.645018
38.720000	-2362.667567
38.730000	-2614.800564
38.740000	-2931.175411
38.750000	-3212.723020
38.760000	-3385.096622
38.770000	-3430.142742
38.780000	-3443.336957
38.790000	-3410.933601
38.800000	-3378.408470
38.810000	-3303.816918
38.820000	-3232.382654
38.830000	-3151.869678
38.840000	-3059.373709
38.850000	-2997.368943
38.860000	-2897.713427
38.870000	-2824.213683
38.880000	-2760.814105
38.890000	-2719.780403
38.900000	-2635.007595
38.910000	-2508.171871
38.920000	-2404.010035
38.930000	-2325.693812
38.940000	-2228.510994
38.950000	-2065.837662
38.960000	-1884.225466
38.970000	-1712.554333
38.980000	-1550.812356
38.990000	-1402.228746
39.000000	-1294.077853
39.010000	-1219.418797
39.020000	-1097.079453
39.030000	-746.940766
39.040000	-252.071291
39.050000	100.713268
39.060000	118.600320
39.070000	-184.991351
39.080000	-494.152683
39.090000	-625.311881
39.100000	-561.278778
39.110000	-477.407701
39.120000	-420.963186
39.130000	-282.313047
39.140000	48.783292
39.150000	382.723620
39.160000	521.274623
39.170000	413.269113
39.180000	310.372276
39.190000	359.638190
39.200000	501.683505
39.210000	634.005739
39.220000	826.588376
39.230000	1199.634107
39.240000	1733.234295
39.250000	2165.727337
39.260000	2383.752697
39.270000	2360.526482
39.280000	2051.025411
39.290000	1649.122452
39.300000	1116.136331
39.310000	643.831201
39.320000	196.438394
39.330000	-143.984124
39.340000	-315.492928
39.350000	-448.503027
39.360000	-584.351954
39.370000	-701.351632
39.380000	-698.493033
39.390000	-584.331515
39.400000	-432.974943
39.410000	-276.353434
39.420000	-49.679517
39.430000	232.254009
39.440000	470.903395
39.450000	546.323095
39.460000	517.835347
39.470000	522.799426
39.480000	606.710803
39.490000	718.542701
39.500000	758.654351
39.510000	750.495227
39.520000	689.728981
39.530000	539.568909
39.540000	283.405527
39.550000	44.576341
39.560000	-30.970242
39.570000	17.296296
39.580000	89.044820
39.590000	219.616415
39.600000	457.325915
39.610000	711.788856
39.620000	904.208308
39.630000	1073.189421
39.640000	1284.406914
39.650000	1569.407637
39.660000	1870.942537
39.670000	2129.871066
39.680000	2305.448592
39.690000	2401.379302
39.700000	2483.383842
39.710000	2641.215200
39.720000	2833.891117
39.730000	2966.837764
39.740000	2827.009605
39.750000	2440.055252
39.760000	2017.246630
39.770000	1697.017419
39.780000	1502.781826
39.790000	1244.008715
39.800000	992.657372
39.810000	875.773355
39.820000	978.709755
39.830000	1218.369312
39.840000	1448.217840
39.850000	1610.508351
39.860000	1691.481906
39.870000	1702.688000
39.880000	1701.846471
39.890000	1614.480832
39.900000	1463.457238
39.910000	1262.897717
39.920000	1088.554562
39.930000	942.097623
39.940000	768.150900
39.950000	598.862809
39.960000	441.339199
39.970000	361.786913
39.980000	333.605033
39.990000	334.390827
40.000000	305.776206
40.010000	226.102192
40.020000	96.686280
40.030000	-8.642322
40.040000	-45.136058
40.050000	-14.832039
40.060000	42.624102
40.070000	82.987237
40.080000	125.248738
40.090000	183.152057
40.100000	267.895505
40.110000	361.267718
40.120000	434.213269
40.130000	502.208967
40.140000	572.213405
40.150000	641.832785
40.160000	696.891926
40.170000	740.216524
40.180000	798.351297
40.190000	875.590664
40.200000	958.816828
40.210000	1030.676283
40.220000	1091.389533
40.230000	1175.250181
40.240000	1273.908923
40.250000	1373.541955
40.260000	1440.108131
40.270000	1463.637614
40.280000	1466.803850
40.290000	1473.813413
40.300000	1498.883793
40.310000	1533.006134
40.320000	1562.366969
40.330000	1609.718084
40.340000	1670.195457
40.350000	1760.579662
40.360000	1874.385898
40.370000	2005.871462
40.380000	2151.345814
40.390000	2292.556077
40.400000	2430.794518
40.410000	2558.988440
40.420000	2698.093193
40.430000	2858.834615
40.440000	3034.120408
40.450000	3211.111370
40.460000	3384.951448
40.470000	3554.515789
40.480000	3732.272736
40.490000	3913.996076
40.500000	4110.425634
40.510000	4315.890558
40.520000	4540.750570
40.530000	4807.949658
40.540000	5141.209714
40.550000	5563.139763
40.560000	6040.986157
40.570000	6538.792356
40.580000	7013.549741
40.590000	7420.247816
40.600000	7777.765650
40.610000	8128.914291
40.620000	8492.729935
40.630000	8842.938337
40.640000	9117.078474
40.650000	9337.681036
40.660000	9543.625319
40.670000	9755.862693
40.680000	9974.939053
40.690000	10180.812080
40.700000	10407.226077
40.710000	10644.134641
40.720000	10892.705173
40.730000	11133.563147
40.740000	11370.076791
40.750000	11610.502761
40.760000	11844.228487
40.770000	12062.948100
40.780000	12254.536494
40.790000	12406.560064
40.800000	12526.400328
40.810000	12595.937242
40.820000	12605.122029
40.830000	12554.847203
40.840000	12448.687449
40.850000	12316.666368
40.860000	12157.670708
40.870000	11979.346336
40.880000	11782.137575
40.890000	11590.930055
40.900000	11428.100666
40.910000	11290.279261
40.920000	11177.241614
40.930000	11093.811154
40.940000	11023.826621
40.950000	10936.804876
40.960000	10813.944277
40.970000	10678.079517
40.980000	10552.228261
40.990000	10449.491944
41.000000	10379.333067
41.010000	10333.017604
41.020000	10298.591238
41.030000	10255.347035
41.040000	10210.084970
41.050000	10170.170168
41.060000	10141.398616
41.070000	10120.123598
41.080000	10094.845539
41.090000	10070.609198
41.100000	10040.411254
41.110000	10006.938385
41.120000	9973.126321
41.130000	9949.435206
41.140000	9930.610095
41.150000	9907.063504
41.160000	9883.608243
41.170000	9864.830719
41.180000	9864.101377
41.190000	9878.354913
41.200000	9901.051621
41.210000	9935.704506
41.220000	9962.065468
41.230000	9989.261324
41.240000	10018.849354
41.250000	10025.867023
41.260000	10030.543240
41.270000	10023.173818
41.280000	10006.385007
41.290000	9962.202017
41.300000	9900.745837
41.310000	9875.120685
41.320000	9873.364155
41.330000	9857.400888
41.340000	9803.786243
41.350000	9713.174468
41.360000	9594.655562
41.370000	9450.015526
41.380000	9285.621755
41.390000	9139.023212
41.400000	9038.640494
41.410000	9020.124950
41.420000	9081.292695
41.430000	9195.560179
41.440000	9311.607199
41.450000	9392.093732
41.460000	9439.420404
41.470000	9487.767019
41.480000	9540.531022
41.490000	9590.790036
41.500000	9626.334581
41.510000	9677.967986
41.520000	9789.874291
41.530000	9954.699658
41.540000	10091.235578
41.550000	10148.868876
41.560000	10124.075406
41.570000	10040.123186
41.580000	9910.562283
41.590000	9743.364755
41.600000	9602.534409
41.610000	9504.803223
41.620000	9445.436298
41.630000	9436.605442
41.640000	9469.259079
41.650000	9526.025803
41.660000	9563.981084
41.670000	9562.471765
41.680000	9559.155975
41.690000	9563.795408
41.700000	9623.716519
41.710000	9697.485863
41.720000	9763.938054
41.730000	9802.444448
41.740000	9832.531138
41.750000	9878.338177
41.760000	9924.265361
41.770000	9978.876318
41.780000	10038.872742
41.790000	10106.663504
41.800000	10163.650031
41.810000	10216.408280
41.820000	10271.309313
41.830000	10339.375770
41.840000	10409.110665
41.850000	10462.857515
41.860000	10523.214275
41.870000	10592.803216
41.880000	10663.467490
41.890000	10704.860842
41.900000	10683.879595
41.910000	10630.251029
41.920000	10568.764924
41.930000	10507.408578
41.940000	10453.789382
41.950000	10394.642234
41.960000	10360.393807
41.970000	10361.273513
41.980000	10423.822530
41.990000	10550.611452
42.000000	10679.171384
42.010000	10782.805949
42.020000	10865.355219
42.030000	10913.363457
42.040000	10965.752770
42.050000	11003.825168
42.060000	11061.349421
42.070000	11124.871309
42.080000	11159.259732
42.090000	11212.845545
42.100000	11291.410969
42.110000	11435.933093
42.120000	11601.668871
42.130000	11737.671088
42.140000	11826.010257
42.150000	11883.823434
42.160000	11930.668166
42.170000	11975.916106
42.180000	12027.281510
42.190000	12072.238119
42.200000	12146.303280
42.210000	12250.399716
42.220000	12424.357901
42.230000	12623.580056
42.240000	12803.989153
42.250000	12918.652243
42.260000	12985.355597
42.270000	13037.315245
42.280000	13072.163663
42.290000	13075.475320
42.300000	13077.281447
42.310000	13076.394607
42.320000	13141.426490
42.330000	13226.826401
42.340000	13430.448565
42.350000	13805.275126
42.360000	14543.316265
42.370000	15542.035476
42.380000	16654.840342
42.390000	17631.612200
42.400000	18622.220302
42.410000	19460.735311
42.420000	19875.379653
42.430000	18876.613387
42.440000	16237.973425
42.450000	10559.048823
42.460000	-10144.508039
42.470000	-32240.861996
42.480000	-43378.183849
42.490000	-39224.383957
42.500000	-15408.308167
42.510000	-7132.802738
42.520000	-3866.370027
42.530000	-3237.792317
42.540000	-4906.838027
42.550000	-7538.013635
42.560000	-9078.746163
42.570000	-10138.967329
42.580000	-10458.694532
42.590000	-11236.031811
42.600000	-11628.153174
42.610000	-11883.218340
42.620000	-11694.222250
42.630000	-10896.273357
42.640000	-10015.008931
42.650000	-9092.163093
42.660000	-8565.055294
42.670000	-8438.714675
42.680000	-8568.214884
42.690000	-8889.355608
42.700000	-9131.016268
42.710000	-9224.772475
42.720000	-9063.272325
42.730000	-8821.869725
42.740000	-8593.882570
42.750000	-8736.279491
42.760000	-9453.003048
42.770000	-10923.895692
42.780000	-12781.234264
42.790000	-14353.634510
42.800000	-15023.578648
42.810000	-14890.315699
42.820000	-14363.424169
42.830000	-13803.853771
42.840000	-13273.446844
42.850000	-12908.937689
42.860000	-12785.983302
42.870000	-12880.771246
42.880000	-13007.772990
42.890000	-13053.173640
42.900000	-12995.863564
42.910000	-12869.112636
42.920000	-12767.517387
42.930000	-12794.478108
42.940000	-12969.015823
42.950000	-13229.037820
42.960000	-13412.664456
42.970000	-13535.850735
42.980000	-13583.332523
42.990000	-13520.054803
43.000000	-13297.415809
43.010000	-12950.949210
43.020000	-12609.220613
43.030000	-12336.807198
43.040000	-12145.025045
43.050000	-11991.670607
43.060000	-11884.793008
43.070000	-11819.664115
43.080000	-11791.064425
43.090000	-11779.128402
43.100000	-11767.529360
43.110000	-11756.160422
43.120000	-11730.818077
43.130000	-11692.101506
43.140000	-11639.979302
43.150000	-11574.589723
43.160000	-11501.039864
43.170000	-11418.619936
43.180000	-11335.688848
43.190000	-11242.836998
43.200000	-11148.293999
43.210000	-11055.286704
43.220000	-10983.195160
43.230000	-10936.285064
43.240000	-10890.948386
43.250000	-10830.569637
43.260000	-10739.309067
43.270000	-10642.243500
43.280000	-10543.895051
43.290000	-10451.210562
43.300000	-10361.412249
43.310000	-10258.437043
43.320000	-10152.970072
43.330000	-10054.632280
43.340000	-9953.450213
43.350000	-9849.836572
43.360000	-9731.212866
43.370000	-9620.460720
43.380000	-9509.550621
43.390000	-9399.106116
43.400000	-9299.917870
43.410000	-9212.729514
43.420000	-9147.653750
43.430000	-9108.348658
43.440000	-9109.771326
43.450000	-9139.580618
43.460000	-9169.202513
43.470000	-9180.870807
43.480000	-9182.068553
43.490000	-9188.887044
43.500000	-9209.284838
43.510000	-9229.887391
43.520000	-9231.197071
43.530000	-9190.929521
43.540000	-9124.933425
43.550000	-9058.052300
43.560000	-9022.749818
43.570000	-9008.118175
43.580000	-8986.919966
43.590000	-8948.297307
43.600000	-8909.237805
43.610000	-8887.887049
43.620000	-8871.213605
43.630000	-8836.195715
43.640000	-8785.007690
43.650000	-8732.624619
43.660000	-8677.176529
43.670000	-8613.467961
43.680000	-8539.112488
43.690000	-8478.479975
43.700000	-8413.696661
43.710000	-8344.306404
43.720000	-8255.008926
43.730000	-8193.410038
43.740000	-8148.266165
43.750000	-8096.924406
43.760000	-7975.186779
43.770000	-7763.674716
43.780000	-7535.476178
43.790000	-7327.776495
43.800000	-7200.613634
43.810000	-7046.204465
43.820000	-6885.226160
43.830000	-6757.141348
43.840000	-6703.637143
43.850000	-6696.346490
43.860000	-6662.388145
43.870000	-6628.622765
43.880000	-6590.184051
43.890000	-6545.708859
43.900000	-6488.433435
43.910000	-6438.003872
43.920000	-6382.066006
43.930000	-6321.474231
43.940000	-6253.495741
43.950000	-6205.167949
43.960000	-6175.992645
43.970000	-6143.946509
43.980000	-6104.014686
43.990000	-6035.829076
44.000000	-5971.327613
44.010000	-5895.063064
44.020000	-5825.883945
44.030000	-5747.016025
44.040000	-5677.355962
44.050000	-5609.715917
44.060000	-5543.331691
44.070000	-5470.550417
44.080000	-5378.781477
44.090000	-5291.639365
44.100000	-5218.013182
44.110000	-5168.221925
44.120000	-5132.680524
44.130000	-5107.310504
44.140000	-5080.485255
44.150000	-5051.253716
44.160000	-5000.398954
44.170000	-4957.156271
44.180000	-4904.679449
44.190000	-4838.586822
44.200000	-4771.500776
44.210000	-4721.861151
44.220000	-4696.451529
44.230000	-4597.342931
44.240000	-4372.022320
44.250000	-4010.102597
44.260000	-3656.849666
44.270000	-3471.730475
44.280000	-3415.961849
44.290000	-3369.631655
44.300000	-3237.638399
44.310000	-3097.168998
44.320000	-2980.688462
44.330000	-2861.373211
44.340000	-2722.930505
44.350000	-2599.211530
44.360000	-2536.369360
44.370000	-2588.568169
44.380000	-2751.811397
44.390000	-2975.626676
44.400000	-3213.092614
44.410000	-3433.893444
44.420000	-3629.930710
44.430000	-3741.179970
44.440000	-3764.754616
44.450000	-3735.064286
44.460000	-3712.144043
44.470000	-3734.384055
44.480000	-3776.519947
44.490000	-3830.244758
44.500000	-3846.611617
44.510000	-3799.328072
44.520000	-3681.583497
44.530000	-3537.043012
44.540000	-3416.400605
44.550000	-3337.493207
44.560000	-3276.261027
44.570000	-3221.804133
44.580000	-3183.334118
44.590000	-3141.526938
44.600000	-3116.338154
44.610000	-3098.324843
44.620000	-3113.929360
44.630000	-3165.210465
44.640000	-3262.029410
44.650000	-3386.172429
44.660000	-3486.190984
44.670000	-3531.343406
44.680000	-3560.027239
44.690000	-3600.303400
44.700000	-3653.607040
44.710000	-3687.987620
44.720000	-3686.710445
44.730000	-3662.901534
44.740000	-3616.591406
44.750000	-3578.713003
44.760000	-3551.873044
44.770000	-3554.044263
44.780000	-3559.177114
44.790000	-3562.242330
44.800000	-3563.971790
44.810000	-3563.242440
44.820000	-3563.251134
44.830000	-3544.652415
44.840000	-3510.061527
44.850000	-3456.850988
44.860000	-3402.061181
44.870000	-3357.502660
44.880000	-3324.832611
44.890000	-3304.616508
44.900000	-3277.346240
44.910000	-3239.570595
44.920000	-3200.690087
44.930000	-3162.296917
44.940000	-3124.823172
44.950000	-3071.433627
44.960000	-3000.454415
44.970000	-2916.710051
44.980000	-2837.239737
44.990000	-2763.730152
45.000000	-2688.450330
45.010000	-2629.270314
45.020000	-2590.070839
45.030000	-2570.245066
45.040000	-2574.818961
45.050000	-2629.052744
45.060000	-2713.553651
45.070000	-2769.860839
45.080000	-2773.487869
45.090000	-2766.289171
45.100000	-2773.813789
45.110000	-2804.104349
45.120000	-2834.488703
45.130000	-2848.367971
45.140000	-2841.962313
45.150000	-2817.075455
45.160000	-2809.288912
45.170000	-2816.772071
45.180000	-2843.053772
45.190000	-2869.162063
45.200000	-2894.622898
45.210000	-2909.611434
45.220000	-2910.291786
45.230000	-2895.482974
45.240000	-2873.065317
45.250000	-2850.096873
45.260000	-2819.542937
45.270000	-2782.473989
45.280000	-2737.753591
45.290000	-2706.984112
45.300000	-2683.622269
45.310000	-2658.888175
45.320000	-2618.540770
45.330000	-2570.248627
45.340000	-2520.516993
45.350000	-2461.963209
45.360000	-2394.570396
45.370000	-2322.744880
45.380000	-2261.037912
45.390000	-2208.200699
45.400000	-2131.801941
45.410000	-2037.140237
45.420000	-1949.665993
45.430000	-1889.440888
45.440000	-1866.543100
45.450000	-1876.072088
45.460000	-1934.849426
45.470000	-2011.271031
45.480000	-2060.818875
45.490000	-2083.622360
45.500000	-2094.188727
45.510000	-2118.697803
45.520000	-2144.475044
45.530000	-2169.490111
45.540000	-2199.133810
45.550000	-2210.888923
45.560000	-2216.233509
45.570000	-2215.936946
45.580000	-2241.092834
45.590000	-2285.556730
45.600000	-2324.907017
45.610000	-2346.545051
45.620000	-2350.756979
45.630000	-2354.911657
45.640000	-2366.575680
45.650000	-2382.241122
45.660000	-2389.026178
45.670000	-2381.245482
45.680000	-2350.120880
45.690000	-2314.308780
45.700000	-2277.154657
45.710000	-2247.699709
45.720000	-2208.759236
45.730000	-2151.086103
45.740000	-2080.376003
45.750000	-2008.792210
45.760000	-1917.206231
45.770000	-1786.796009
45.780000	-1633.426010
45.790000	-1508.522515
45.800000	-1403.436562
45.810000	-1332.598918
45.820000	-1300.704269
45.830000	-1290.563155
45.840000	-1280.906082
45.850000	-1257.155113
45.860000	-1258.529014
45.870000	-1287.918002
45.880000	-1336.721769
45.890000	-1393.271175
45.900000	-1421.777648
45.910000	-1410.951653
45.920000	-1389.534129
45.930000	-1390.230976
45.940000	-1415.793581
45.950000	-1419.623944
45.960000	-1415.799474
45.970000	-1400.879186
45.980000	-1412.158227
45.990000	-1441.915673
46.000000	-1492.780863
46.010000	-1571.195313
46.020000	-1657.561882
46.030000	-1761.783084
46.040000	-1854.459261
46.050000	-1937.344583
46.060000	-2022.938157
46.070000	-2127.799739
46.080000	-2240.219066
46.090000	-2324.733121
46.100000	-2371.778368
46.110000	-2386.578156
46.120000	-2406.293529
46.130000	-2429.850066
46.140000	-2448.316070
46.150000	-2452.313431
46.160000	-2440.216291
46.170000	-2412.970607
46.180000	-2374.976422
46.190000	-2343.844817
46.200000	-2313.515934
46.210000	-2292.934933
46.220000	-2297.244109
46.230000	-2336.178776
46.240000	-2382.369206
46.250000	-2406.245648
46.260000	-2411.745629
46.270000	-2412.495306
46.280000	-2416.593240
46.290000	-2430.891422
46.300000	-2445.875950
46.310000	-2460.119949
46.320000	-2448.233176
46.330000	-2449.997931
46.340000	-2481.325396
46.350000	-2546.641683
46.360000	-2611.103816
46.370000	-2636.065769
46.380000	-2656.872948
46.390000	-2645.767386
46.400000	-2628.904348
46.410000	-2605.505880
46.420000	-2591.422248
46.430000	-2588.309511
46.440000	-2581.997413
46.450000	-2597.651844
46.460000	-2618.551439
46.470000	-2641.455004
46.480000	-2652.162381
46.490000	-2654.390922
46.500000	-2649.847862
46.510000	-2630.376303
46.520000	-2613.343149
46.530000	-2588.354940
46.540000	-2513.484442
46.550000	-2392.187271
46.560000	-2243.393699
46.570000	-2094.431194
46.580000	-1965.668759
46.590000	-1876.386746
46.600000	-1844.651460
46.610000	-1837.242090
46.620000	-1820.336166
46.630000	-1821.298802
46.640000	-1869.054778
46.650000	-1965.975171
46.660000	-2102.095050
46.670000	-2236.585253
46.680000	-2373.941225
46.690000	-2519.207844
46.700000	-2696.513717
46.710000	-2896.074078
46.720000	-3100.063787
46.730000	-3290.936931
46.740000	-3434.894572
46.750000	-3478.066161
46.760000	-3375.400551
46.770000	-3127.969151
46.780000	-2859.887650
46.790000	-2745.315495
46.800000	-2849.042979
46.810000	-3082.872967
46.820000	-3239.164244
46.830000	-3255.452503
46.840000	-3183.552018
46.850000	-3130.465542
46.860000	-3129.682409
46.870000	-3145.562488
46.880000	-3138.404651
46.890000	-3107.365040
46.900000	-3049.382208
46.910000	-2982.482756
46.920000	-2920.267338
46.930000	-2837.074832
46.940000	-2769.902540
46.950000	-2733.178658
46.960000	-2734.755832
46.970000	-2748.086548
46.980000	-2754.859335
46.990000	-2744.906754
47.000000	-2694.812072
47.010000	-2621.051146
47.020000	-2585.767164
47.030000	-2613.297586
47.040000	-2700.180731
47.050000	-2783.912282
47.060000	-2854.932378
47.070000	-2890.679490
47.080000	-2886.583870
47.090000	-2850.660551
47.100000	-2761.663122
47.110000	-2617.865509
47.120000	-2348.719103
47.130000	-2037.654592
47.140000	-1849.154344
47.150000	-1836.289747
47.160000	-1956.808587
47.170000	-2070.131051
47.180000	-2113.815708
47.190000	-2089.615643
47.200000	-1994.605649
47.210000	-1893.744367
47.220000	-1802.379014
47.230000	-1735.319959
47.240000	-1717.624177
47.250000	-1716.174727
47.260000	-1753.122047
47.270000	-1798.315368
47.280000	-1858.479321
47.290000	-1897.759109
47.300000	-1883.594269
47.310000	-1815.033526
47.320000	-1723.203069
47.330000	-1618.318135
47.340000	-1421.630349
47.350000	-1127.862553
47.360000	-531.895274
47.370000	388.041079
47.380000	1305.506554
47.390000	1600.098628
47.400000	997.157465
47.410000	-64.580121
47.420000	-1074.351338
47.430000	-1758.930671
47.440000	-2242.633253
47.450000	-2619.875514
47.460000	-2843.197068
47.470000	-2901.252945
47.480000	-2881.360399
47.490000	-2958.528213
47.500000	-3132.360720
47.510000	-3285.128383
47.520000	-3366.856035
47.530000	-3312.658214
47.540000	-3094.417975
47.550000	-2611.950747
47.560000	-1834.459452
47.570000	-1110.235067
47.580000	-631.684994
47.590000	-456.422984
47.600000	-359.737191
47.610000	-136.261044
47.620000	157.900527
47.630000	278.798113
47.640000	199.886922
47.650000	-125.106949
47.660000	-437.527457
47.670000	-696.844318
47.680000	-858.157965
47.690000	-768.842190
47.700000	-651.370009
47.710000	-491.736766
47.720000	-509.431141
47.730000	-586.574088
47.740000	-650.814903
47.750000	-553.728276
47.760000	-362.979544
47.770000	-275.419539
47.780000	-348.271162
47.790000	-573.771004
47.800000	-796.657905
47.810000	-1008.019543
47.820000	-1136.362754
47.830000	-1116.102500
47.840000	-880.210025
47.850000	-491.015327
47.860000	-146.566149
47.870000	83.627277
47.880000	191.453917
47.890000	246.028030
47.900000	302.653921
47.910000	406.958564
47.920000	572.326889
47.930000	664.717521
47.940000	510.462844
47.950000	20.953736
47.960000	-796.221536
47.970000	-1741.696051
47.980000	-2478.268269
47.990000	-2708.858479
48.000000	-2415.478830
48.010000	-1902.966344
48.020000	-1545.934624
48.030000	-1465.426140
48.040000	-1525.059886
48.050000	-1551.823267
48.060000	-1479.511210
48.070000	-1329.488373
48.080000	-1188.163391
48.090000	-1104.066388
48.100000	-1051.289462
48.110000	-897.358105
48.120000	-622.726810
48.130000	-323.296052
48.140000	-97.494956
48.150000	-58.593312
48.160000	-241.694995
48.170000	-620.697073
48.180000	-1031.819530
48.190000	-1310.763404
48.200000	-1509.162490
48.210000	-1802.456475
48.220000	-2219.049645
48.230000	-2694.503916
48.240000	-3115.072056
48.250000	-3493.163180
48.260000	-3789.880164
48.270000	-3907.248066
48.280000	-3830.165019
48.290000	-3565.637361
48.300000	-3134.726701
48.310000	-2583.661848
48.320000	-1988.932053
48.330000	-1478.716667
48.340000	-1153.276877
48.350000	-1007.693193
48.360000	-916.161374
48.370000	-717.772752
48.380000	-393.629782
48.390000	-76.791284
48.400000	116.431786
48.410000	106.113021
48.420000	-36.930785
48.430000	-233.124523
48.440000	-366.019056
48.450000	-326.871281
48.460000	-110.875249
48.470000	159.221439
48.480000	304.309167
48.490000	278.547873
48.500000	225.888137
48.510000	284.403710
48.520000	490.739664
48.530000	787.558149
48.540000	1102.779697
48.550000	1388.012231
48.560000	1525.536149
48.570000	1450.858246
48.580000	1218.203315
48.590000	1005.968851
48.600000	946.005061
48.610000	1080.434315
48.620000	1352.475334
48.630000	1735.595229
48.640000	2105.294430
48.650000	2305.626515
48.660000	2233.554425
48.670000	1928.015483
48.680000	1549.120448
48.690000	1180.172174
48.700000	847.848415
48.710000	564.946989
48.720000	328.528174
48.730000	158.785788
48.740000	73.206371
48.750000	100.667172
48.760000	239.818269
48.770000	417.038870
48.780000	603.580980
48.790000	781.138902
48.800000	912.663949
48.810000	980.669813
48.820000	1012.586176
48.830000	1060.322589
48.840000	1247.431868
48.850000	1618.156283
48.860000	2134.789952
48.870000	2562.859048
48.880000	2744.105574
48.890000	2630.952699
48.900000	2259.075416
48.910000	1701.914292
48.920000	1109.023832
48.930000	628.647097
48.940000	280.399058
48.950000	46.395612
48.960000	-90.432840
48.970000	-85.557448
48.980000	111.218672
48.990000	461.385628
49.000000	919.997549
49.010000	1369.947482
49.020000	1813.593448
49.030000	2182.141403
49.040000	2500.613091
49.050000	2712.950608
49.060000	2833.669769
49.070000	2992.591582
49.080000	3066.217619
49.090000	3088.523843
49.100000	2959.929239
49.110000	2873.462177
49.120000	2778.178285
49.130000	2687.122210
49.140000	2564.510920
49.150000	2436.842731
49.160000	2334.415131
49.170000	2328.241255
49.180000	2447.107889
49.190000	2623.284211
49.200000	2819.465392
49.210000	3025.654987
49.220000	3262.163906
49.230000	3499.150722
49.240000	3741.893168
49.250000	3946.116212
49.260000	4141.101858
49.270000	4335.641004
49.280000	4577.705236
49.290000	4852.953194
49.300000	5156.631603
49.310000	5476.880599
49.320000	5813.562950
49.330000	6145.059802
49.340000	6451.481159
49.350000	6720.245806
49.360000	6967.469489
49.370000	7193.718272
49.380000	7412.159426
49.390000	7620.820603
49.400000	7829.223450
49.410000	8027.550026
49.420000	8200.623943
49.430000	8332.967404
49.440000	8418.075411
49.450000	8453.760464
49.460000	8451.933534
49.470000	8391.167282
49.480000	8289.609684
49.490000	8169.298065
49.500000	8082.419157
49.510000	8044.047949
49.520000	8055.582560
49.530000	8099.808622
49.540000	8138.086056
49.550000	8146.679484
49.560000	8113.026422
49.570000	8056.715044
49.580000	7994.706126
49.590000	7949.850114
49.600000	7927.758542
49.610000	7928.393070
49.620000	7950.567839
49.630000	7993.700962
49.640000	8035.417084
49.650000	8077.845777
49.660000	8119.696316
49.670000	8179.153176
49.680000	8244.004151
49.690000	8299.234578
49.700000	8348.481140
49.710000	8412.149473
49.720000	8513.422651
49.730000	8645.107236
49.740000	8785.787418
49.750000	8919.879302
49.760000	9048.331790
49.770000	9163.430961
49.780000	9265.704655
49.790000	9352.448679
49.800000	9435.929260
49.810000	9512.569134
49.820000	9578.969515
49.830000	9631.172059
49.840000	9649.452595
49.850000	9616.269167
49.860000	9546.849202
49.870000	9460.536379
49.880000	9362.032942
49.890000	9235.910804
49.900000	9099.470842
49.910000	8960.759115
49.920000	8814.707006
49.930000	8629.369484
49.940000	8407.208417
49.950000	8210.315858
49.960000	8026.345696
49.970000	7830.737042
49.980000	7594.647566
49.990000	7352.509637
50.000000	7163.863910
50.010000	7040.999142
50.020000	6985.231272
50.030000	6992.990802
50.040000	7065.461637
50.050000	7240.266826
50.060000	7512.426893
50.070000	7855.336261
50.080000	8233.220640
50.090000	8601.569526
50.100000	8928.905441
50.110000	9171.291212
50.120000	9341.268671
50.130000	9458.556521
50.140000	9512.406016
50.150000	9496.692820
50.160000	9412.755916
50.170000	9300.794951
50.180000	9204.641873
50.190000	9107.590481
50.200000	9013.109782
50.210000	8922.239353
50.220000	8870.198333
50.230000	8853.642436
50.240000	8825.025582
50.250000	8785.038024
50.260000	8761.453769
50.270000	8814.382114
50.280000	8922.517788
50.290000	9038.179568
50.300000	9096.393095
50.310000	9102.027224
50.320000	9089.875161
50.330000	9068.660657
50.340000	9024.485222
50.350000	8943.483671
50.360000	8849.721592
50.370000	8754.459559
50.380000	8677.501998
50.390000	8610.544620
50.400000	8562.180941
50.410000	8526.440834
50.420000	8484.675190
50.430000	8395.122622
50.440000	8202.981544
50.450000	7917.827963
50.460000	7670.132110
50.470000	7591.714562
50.480000	7723.542687
50.490000	7999.147573
50.500000	8411.623586
50.510000	8870.857293
50.520000	9234.732035
50.530000	9403.853148
50.540000	9462.512149
50.550000	9510.390066
50.560000	9593.976541
50.570000	9681.206452
50.580000	9760.323398
50.590000	9838.232179
50.600000	9909.459016
50.610000	9946.351029
50.620000	9891.999539
50.630000	9740.426177
50.640000	9463.292825
50.650000	8913.654105
50.660000	8075.755955
50.670000	6989.508685
50.680000	5649.900331
50.690000	4302.186083
50.700000	3214.239707
50.710000	2747.250056
50.720000	2686.123932
50.730000	2787.695261
50.740000	2869.630906
50.750000	2903.014818
50.760000	2937.470540
50.770000	3006.404056
50.780000	3189.883153
50.790000	3417.488699
50.800000	3620.406124
50.810000	3735.358371
50.820000	3826.713351
50.830000	3941.277305
50.840000	4098.373058
50.850000	4245.423840
50.860000	4394.967106
50.870000	4577.706164
50.880000	4799.576058
50.890000	5017.266505
50.900000	5284.528515
50.910000	5622.811999
50.920000	6105.694934
50.930000	6622.251744
50.940000	7042.540310
50.950000	7313.965262
50.960000	7451.295477
50.970000	7575.023988
50.980000	7701.482737
50.990000	7852.479235
51.000000	8038.015641
51.010000	8225.859758
51.020000	8411.997148
51.030000	8576.230040
51.040000	8706.698821
51.050000	8880.204103
51.060000	9079.498737
51.070000	9305.915312
51.080000	9458.032054
51.090000	9579.369690
51.100000	9720.592793
51.110000	9896.061490
51.120000	10088.399440
51.130000	10275.736571
51.140000	10471.293909
51.150000	10677.703097
51.160000	10910.205900
51.170000	11165.263221
51.180000	11448.116082
51.190000	11747.414007
51.200000	12048.314994
51.210000	12348.893942
51.220000	12618.056070
51.230000	12854.072014
51.240000	13063.432332
51.250000	13274.250463
51.260000	13430.179237
51.270000	13525.498804
51.280000	13522.764651
51.290000	13412.744995
51.300000	13271.165069
51.310000	13225.375861
51.320000	13374.057423
51.330000	13663.486542
51.340000	13887.089330
51.350000	13787.678462
51.360000	13364.707172
51.370000	12886.483913
51.380000	12710.438858
51.390000	12811.769142
51.400000	13085.807932
51.410000	13393.476984
51.420000	13614.071566
51.430000	13556.830060
51.440000	13108.713127
51.450000	12307.755919
51.460000	11266.042555
51.470000	10073.431779
51.480000	9085.572857
51.490000	8595.399327
51.500000	8618.799191
51.510000	8884.361034
51.520000	9145.870882
51.530000	9466.274204
51.540000	9883.636029
51.550000	10436.944434
51.560000	11113.339304
51.570000	11893.002031
51.580000	12734.381917
51.590000	13600.797841
51.600000	14439.430780
51.610000	15219.697620
51.620000	15925.220461
51.630000	16548.649481
51.640000	17150.215096
51.650000	17707.719575
51.660000	18225.619420
51.670000	18686.056607
51.680000	19067.667310
51.690000	19371.098812
51.700000	19570.946437
51.710000	19718.311892
51.720000	19826.740993
51.730000	19886.737978
51.740000	19913.871605
51.750000	19944.479120
51.760000	19988.846019
51.770000	20048.435270
51.780000	20111.346730
51.790000	20186.669037
51.800000	20261.664307
51.810000	20325.775660
51.820000	20384.549572
51.830000	20450.748695
51.840000	20538.942731
51.850000	20630.790480
51.860000	20728.541005
51.870000	20829.957799
51.880000	20934.604571
51.890000	21078.675104
51.900000	21250.976268
51.910000	21433.801575
51.920000	21595.057477
51.930000	21749.795067
51.940000	21919.214820
51.950000	22100.102319
51.960000	22293.419220
51.970000	22495.085946
51.980000	22701.636689
51.990000	22918.760458
52.000000	23144.152160
52.010000	23360.033171
52.020000	23554.979717
52.030000	23716.584937
52.040000	23867.505643
52.050000	23982.928549
52.060000	24071.699589
52.070000	24117.431629
52.080000	24150.570655
52.090000	24165.704277
52.100000	24179.690361
52.110000	24175.724542
52.120000	24184.767111
52.130000	24193.768751
52.140000	24235.433159
52.150000	24259.701275
52.160000	24312.129296
52.170000	24344.127724
52.180000	24401.822957
52.190000	24415.625121
52.200000	24442.236835
52.210000	24466.950818
52.220000	24608.358864
52.230000	24816.138731
52.240000	25108.646304
52.250000	25312.092830
52.260000	25474.821425
52.270000	25507.262551
52.280000	25542.519219
52.290000	25366.038345
52.300000	25081.635395
52.310000	24660.309506
52.320000	24445.617695
52.330000	24243.262159
52.340000	24149.539281
52.350000	23816.785501
52.360000	23473.816364
52.370000	22868.408398
52.380000	22359.507964
52.390000	21661.645567
52.400000	21151.049350
52.410000	20367.265144
52.420000	19883.758793
52.430000	18915.462827
52.440000	18051.533039
52.450000	16098.368615
52.460000	13159.600847
52.470000	4492.920859
52.480000	-32511.427921
52.490000	-73750.824311
52.500000	-55765.259204
52.510000	-43753.640635
52.520000	-52299.217538
52.530000	-64886.604479
52.540000	-72048.877641
52.550000	-76615.912513
52.560000	-85269.156596
52.570000	-94086.040306
52.580000	-103886.330226
52.590000	-111720.192847
52.600000	-116132.224939
52.610000	-116423.254811
52.620000	-113334.437151
52.630000	-103883.466167
52.640000	-93503.688393
52.650000	-86972.970818
52.660000	-84610.696371
52.670000	-84103.065579
52.680000	-83777.416287
52.690000	-82417.216306
52.700000	-77289.259269
52.710000	-66446.454091
52.720000	-50283.433755
52.730000	-36357.029662
52.740000	-30406.377121
52.750000	-24884.884687
52.760000	-20160.169400
52.770000	-17360.581663
52.780000	-16076.170751
52.790000	-15868.568205
52.800000	-16054.551076
52.810000	-16343.831857
52.820000	-17513.065687
52.830000	-19098.565189
52.840000	-19898.434884
52.850000	-18850.235994
52.860000	-16755.149295
52.870000	-15136.789742
52.880000	-14598.239417
52.890000	-14748.188201
52.900000	-15807.926406
52.910000	-17494.454239
52.920000	-18521.114328
52.930000	-18256.114606
52.940000	-16859.076319
52.950000	-15484.111397
52.960000	-15426.702721
52.970000	-17207.070429
52.980000	-21356.813372
52.990000	-23483.497043
53.000000	-25244.965889
53.010000	-27237.799856
53.020000	-28253.644077
53.030000	-26918.831525
53.040000	-23799.771467
53.050000	-21619.808641
53.060000	-20304.110804
53.070000	-18604.739460
53.080000	-16426.937457
53.090000	-14165.337158
53.100000	-12803.707555
53.110000	-12648.402120
53.120000	-13226.333771
53.130000	-13224.826988
53.140000	-11365.078547
53.150000	-6817.609443
53.160000	-2210.707733
53.170000	-892.812458
53.180000	-555.459337
53.190000	633.204815
53.200000	3062.883623
53.210000	5416.518742
53.220000	6941.760045
53.230000	7994.189496
53.240000	8672.910498
53.250000	8881.633342
53.260000	8773.720966
53.270000	8638.422590
53.280000	8663.890409
53.290000	8777.128964
53.300000	8916.723739
53.310000	9019.125858
53.320000	9028.873241
53.330000	8773.091758
53.340000	7884.778512
53.350000	6296.834406
53.360000	4752.192332
53.370000	3926.673778
53.380000	3915.957741
53.390000	3757.214782
53.400000	2662.476207
53.410000	1438.071295
53.420000	764.917375
53.430000	1061.805504
53.440000	1590.776232
53.450000	1996.515939
53.460000	2539.582348
53.470000	3305.999848
53.480000	4332.503036
53.490000	5338.525972
53.500000	6233.857320
53.510000	7173.968029
53.520000	8096.852444
53.530000	8830.342640
53.540000	9141.245339
53.550000	8984.462795
53.560000	8407.117268
53.570000	7092.472764
53.580000	5171.103661
53.590000	3071.851167
53.600000	1361.347686
53.610000	-0.895498
53.620000	-2305.636577
53.630000	-5877.800722
53.640000	-11364.519110
53.650000	-15960.227004
53.660000	-21831.118918
53.670000	-24583.282423
53.680000	-24909.092042
53.690000	-23150.460373
53.700000	-20130.732920
53.710000	-17115.032884
53.720000	-14901.408555
53.730000	-14198.212063
53.740000	-14267.171406
53.750000	-13812.693713
53.760000	-13081.004397
53.770000	-12722.456218
53.780000	-12613.551555
53.790000	-11059.653329
53.800000	-4963.631661
53.810000	-3607.000071
53.820000	-3131.553039
53.830000	-2736.468743
53.840000	-2245.325282
53.850000	-2545.377680
53.860000	-3562.978782
53.870000	-5380.904995
53.880000	-7095.112270
53.890000	-7990.142228
53.900000	-8030.640558
53.910000	-7423.907623
53.920000	-6455.580499
53.930000	-5220.346478
53.940000	-4262.621618
53.950000	-4469.259832
53.960000	-5431.974140
53.970000	-7245.090196
53.980000	-9242.442370
53.990000	-11201.344269
54.000000	-13058.889599
54.010000	-15061.322030
54.020000	-16752.616945
54.030000	-16744.281931
54.040000	-15006.620416
54.050000	-12889.575968
54.060000	-11297.278274
54.070000	-10152.052824
54.080000	-8951.984162
54.090000	-7961.180613
54.100000	-7249.035930
54.110000	-7233.814243
54.120000	-7736.327972
54.130000	-8796.598031
54.140000	-10316.121116
54.150000	-11771.429623
54.160000	-12611.386641
54.170000	-12709.642950
54.180000	-12843.014374
54.190000	-13353.209317
54.200000	-13762.606272
54.210000	-14272.855542
54.220000	-15066.024827
54.230000	-16654.622626
54.240000	-18325.957634
54.250000	-19529.045855
54.260000	-20270.633504
54.270000	-20716.449388
54.280000	-20941.603106
54.290000	-20063.430468
54.300000	-18356.959267
54.310000	-16165.471150
54.320000	-14322.532649
54.330000	-12659.962772
54.340000	-10831.484122
54.350000	-9088.628409
54.360000	-7485.089066
54.370000	-6207.520778
54.380000	-4877.334374
54.390000	-3543.444756
54.400000	-2441.614861
54.410000	-1393.751890
54.420000	-219.406548
54.430000	1194.573987
54.440000	2652.105795
54.450000	3662.245577
54.460000	4129.194519
54.470000	4228.823252
54.480000	4560.943034
54.490000	5208.144542
54.500000	6072.027411
54.510000	7088.060559
54.520000	8246.098235
54.530000	9281.115603
54.540000	10002.547925
54.550000	10329.314277
54.560000	10317.218349
54.570000	9858.911396
54.580000	8974.085980
54.590000	7552.668708
54.600000	5938.050624
54.610000	4548.150468
54.620000	3490.350274
54.630000	2456.346564
54.640000	834.340499
54.650000	-1547.055491
54.660000	-4614.573653
54.670000	-7206.750565
54.680000	-8618.718482
54.690000	-8940.908974
54.700000	-9417.603071
54.710000	-10495.342131
54.720000	-11918.690513
54.730000	-12996.374135
