Time(s)	RED_denoised_wiener
0.000000	743.070485
0.010000	1047.814298
0.020000	929.828535
0.030000	839.547952
0.040000	772.701212
0.050000	729.690936
0.060000	706.290068
0.070000	706.918962
0.080000	716.218279
0.090000	726.226708
0.100000	742.241356
0.110000	770.260542
0.120000	803.285268
0.130000	816.634713
0.140000	811.120464
0.150000	808.787496
0.160000	823.652922
0.170000	844.589544
0.180000	859.232651
0.190000	875.162715
0.200000	898.189526
0.210000	926.429091
0.220000	949.168810
0.230000	963.094763
0.240000	982.240360
0.250000	1011.445441
0.260000	1044.323631
0.270000	1081.189373
0.280000	1110.748822
0.290000	1145.371045
0.300000	1180.164962
0.310000	1226.300785
0.320000	1281.914850
0.330000	1325.210911
0.340000	1366.119254
0.350000	1403.122541
0.360000	1439.702561
0.370000	1466.696835
0.380000	1479.996017
0.390000	1459.255007
0.400000	1381.977562
0.410000	1261.938983
0.420000	1144.069700
0.430000	1053.592687
0.440000	988.442902
0.450000	951.615118
0.460000	943.495916
0.470000	954.295380
0.480000	961.866236
0.490000	964.715743
0.500000	961.920277
0.510000	966.856321
0.520000	972.932523
0.530000	972.338702
0.540000	971.661558
0.550000	964.461308
0.560000	951.418234
0.570000	925.235501
0.580000	903.582386
0.590000	893.317640
0.600000	878.018958
0.610000	840.733405
0.620000	798.549494
0.630000	769.818483
0.640000	750.349332
0.650000	706.485882
0.660000	624.866857
0.670000	508.525613
0.680000	385.445564
0.690000	255.479419
0.700000	103.305946
0.710000	-70.200264
0.720000	-256.826145
0.730000	-420.484007
0.740000	-574.776660
0.750000	-741.473448
0.760000	-946.422966
0.770000	-1163.338934
0.780000	-1345.700914
0.790000	-1505.386670
0.800000	-1686.423650
0.810000	-1895.690151
0.820000	-2086.357935
0.830000	-2229.068609
0.840000	-2340.446771
0.850000	-2421.433491
0.860000	-2470.559718
0.870000	-2500.201683
0.880000	-2535.407288
0.890000	-2575.266251
0.900000	-2586.534895
0.910000	-2575.141742
0.920000	-2567.757279
0.930000	-2581.028634
0.940000	-2598.595711
0.950000	-2605.293271
0.960000	-2604.193105
0.970000	-2590.245534
0.980000	-2556.496244
0.990000	-2500.254844
1.000000	-2438.900852
1.010000	-2382.625084
1.020000	-2349.375087
1.030000	-2333.646867
1.040000	-2327.559696
1.050000	-2319.710144
1.060000	-2312.166730
1.070000	-2309.499955
1.080000	-2303.459104
1.090000	-2277.989764
1.100000	-2230.510777
1.110000	-2175.583130
1.120000	-2127.953601
1.130000	-2086.524439
1.140000	-2039.760025
1.150000	-1997.918669
1.160000	-1964.608694
1.170000	-1932.343702
1.180000	-1921.596184
1.190000	-1976.563338
1.200000	-2115.576136
1.210000	-2271.612768
1.220000	-2388.651227
1.230000	-2451.172397
1.240000	-2484.905911
1.250000	-2502.763783
1.260000	-2498.843196
1.270000	-2481.128223
1.280000	-2454.841759
1.290000	-2434.922144
1.300000	-2407.832164
1.310000	-2381.512345
1.320000	-2359.882704
1.330000	-2351.854641
1.340000	-2350.294756
1.350000	-2339.579711
1.360000	-2320.826039
1.370000	-2287.691364
1.380000	-2244.794968
1.390000	-2198.549267
1.400000	-2143.138742
1.410000	-2086.854771
1.420000	-2022.850205
1.430000	-1954.264034
1.440000	-1881.965483
1.450000	-1809.089945
1.460000	-1734.479753
1.470000	-1670.698006
1.480000	-1609.682177
1.490000	-1555.083369
1.500000	-1498.597208
1.510000	-1443.579842
1.520000	-1381.893385
1.530000	-1308.497825
1.540000	-1240.664120
1.550000	-1168.421201
1.560000	-1088.868083
1.570000	-1034.522588
1.580000	-1057.206041
1.590000	-1151.548110
1.600000	-1252.461430
1.610000	-1306.019292
1.620000	-1303.589784
1.630000	-1261.641519
1.640000	-1203.151654
1.650000	-1154.689446
1.660000	-1118.730037
1.670000	-1088.795652
1.680000	-1052.374889
1.690000	-1010.020947
1.700000	-980.820676
1.710000	-969.958242
1.720000	-976.667116
1.730000	-988.614237
1.740000	-993.932104
1.750000	-985.366968
1.760000	-957.285728
1.770000	-900.527643
1.780000	-824.441265
1.790000	-752.478232
1.800000	-708.014537
1.810000	-684.431140
1.820000	-664.978107
1.830000	-645.169271
1.840000	-627.044554
1.850000	-606.308361
1.860000	-581.871571
1.870000	-572.587389
1.880000	-585.417823
1.890000	-616.923135
1.900000	-638.981627
1.910000	-631.365957
1.920000	-589.340088
1.930000	-543.992662
1.940000	-524.111089
1.950000	-518.261126
1.960000	-542.041938
1.970000	-604.597489
1.980000	-717.063913
1.990000	-828.849990
2.000000	-907.220628
2.010000	-951.944143
2.020000	-979.843239
2.030000	-992.749513
2.040000	-989.877719
2.050000	-973.649407
2.060000	-961.706371
2.070000	-950.576993
2.080000	-932.943449
2.090000	-915.963295
2.100000	-906.264659
2.110000	-915.783048
2.120000	-923.915324
2.130000	-937.430084
2.140000	-949.614338
2.150000	-956.503311
2.160000	-946.711540
2.170000	-923.702481
2.180000	-893.567701
2.190000	-865.996515
2.200000	-831.790207
2.210000	-793.073103
2.220000	-757.780017
2.230000	-728.887305
2.240000	-703.839083
2.250000	-670.760240
2.260000	-638.372254
2.270000	-603.350829
2.280000	-571.347349
2.290000	-540.003216
2.300000	-513.089601
2.310000	-487.720828
2.320000	-454.898423
2.330000	-417.220164
2.340000	-391.830249
2.350000	-376.415618
2.360000	-368.845306
2.370000	-396.441201
2.380000	-494.297445
2.390000	-639.723640
2.400000	-773.397701
2.410000	-858.817308
2.420000	-903.701120
2.430000	-923.680902
2.440000	-921.717742
2.450000	-919.009059
2.460000	-912.080879
2.470000	-920.481186
2.480000	-922.745230
2.490000	-912.742406
2.500000	-895.520371
2.510000	-881.097136
2.520000	-878.706317
2.530000	-869.788249
2.540000	-864.383289
2.550000	-857.851265
2.560000	-853.828294
2.570000	-842.956967
2.580000	-823.706235
2.590000	-797.816155
2.600000	-766.326477
2.610000	-739.444464
2.620000	-703.290885
2.630000	-661.865242
2.640000	-611.310114
2.650000	-565.410576
2.660000	-517.348549
2.670000	-471.060934
2.680000	-424.779821
2.690000	-379.794547
2.700000	-349.986886
2.710000	-324.868778
2.720000	-313.655294
2.730000	-292.258441
2.740000	-250.434968
2.750000	-204.126266
2.760000	-159.593969
2.770000	-128.748519
2.780000	-124.828530
2.790000	-185.175215
2.800000	-314.043457
2.810000	-456.176026
2.820000	-564.016766
2.830000	-624.007104
2.840000	-655.483637
2.850000	-657.184472
2.860000	-633.368186
2.870000	-595.450325
2.880000	-566.687059
2.890000	-552.401697
2.900000	-528.994231
2.910000	-498.156573
2.920000	-481.757151
2.930000	-484.263610
2.940000	-498.554481
2.950000	-503.732002
2.960000	-509.167086
2.970000	-509.224261
2.980000	-499.848725
2.990000	-472.100733
3.000000	-426.286322
3.010000	-370.395139
3.020000	-318.136055
3.030000	-277.068676
3.040000	-233.656790
3.050000	-190.180853
3.060000	-139.546562
3.070000	-90.063043
3.080000	-43.144688
3.090000	-3.347401
3.100000	20.519046
3.110000	44.711047
3.120000	76.432293
3.130000	116.359697
3.140000	155.594453
3.150000	195.980147
3.160000	244.045524
3.170000	287.492012
3.180000	333.493616
3.190000	377.248267
3.200000	388.148526
3.210000	319.571970
3.220000	181.905190
3.230000	37.985312
3.240000	-70.784369
3.250000	-142.764179
3.260000	-181.207250
3.270000	-196.586317
3.280000	-188.987353
3.290000	-167.485156
3.300000	-141.152393
3.310000	-114.756709
3.320000	-92.700562
3.330000	-73.395532
3.340000	-66.997638
3.350000	-76.063058
3.360000	-88.637361
3.370000	-94.784888
3.380000	-90.675536
3.390000	-77.568634
3.400000	-56.761343
3.410000	-30.401835
3.420000	-1.563061
3.430000	31.732542
3.440000	63.901906
3.450000	100.518760
3.460000	134.286467
3.470000	170.962853
3.480000	210.945404
3.490000	254.028131
3.500000	298.222696
3.510000	339.043542
3.520000	367.779112
3.530000	385.042366
3.540000	399.649597
3.550000	420.332895
3.560000	443.779334
3.570000	467.251068
3.580000	494.219247
3.590000	526.792343
3.600000	551.242897
3.610000	577.693405
3.620000	603.860469
3.630000	587.446271
3.640000	493.794442
3.650000	324.928998
3.660000	161.574052
3.670000	36.242488
3.680000	-41.412249
3.690000	-81.534497
3.700000	-94.100494
3.710000	-80.322791
3.720000	-60.877215
3.730000	-46.117392
3.740000	-22.622936
3.750000	15.366367
3.760000	59.893429
3.770000	83.764079
3.780000	77.759651
3.790000	67.892737
3.800000	58.534306
3.810000	58.000466
3.820000	56.227075
3.830000	70.151312
3.840000	96.834569
3.850000	141.293683
3.860000	183.342876
3.870000	226.471471
3.880000	259.448167
3.890000	292.011293
3.900000	323.496346
3.910000	363.885502
3.920000	399.785820
3.930000	431.436332
3.940000	456.708318
3.950000	488.334518
3.960000	518.213807
3.970000	546.228517
3.980000	566.009680
3.990000	468.481644
4.000000	320.262995
4.010000	156.623880
4.020000	85.691951
4.030000	56.638719
4.040000	32.134157
4.050000	27.106919
4.060000	25.133733
4.070000	26.264162
4.080000	28.104048
4.090000	47.117637
4.100000	69.970608
4.110000	80.608715
4.120000	75.516999
4.130000	73.807650
4.140000	82.676687
4.150000	96.952290
4.160000	106.135068
4.170000	111.442752
4.180000	98.865579
4.190000	88.006470
4.200000	77.185553
4.210000	71.570559
4.220000	67.463050
4.230000	80.503283
4.240000	113.688320
4.250000	160.392387
4.260000	214.230706
4.270000	267.929144
4.280000	322.446107
4.290000	369.758613
4.300000	410.335851
4.310000	446.243788
4.320000	480.880878
4.330000	520.388419
4.340000	560.048296
4.350000	593.848674
4.360000	630.241574
4.370000	678.631297
4.380000	713.659409
4.390000	731.125682
4.400000	758.819027
4.410000	781.155130
4.420000	745.197179
4.430000	611.208887
4.440000	438.502349
4.450000	292.935851
4.460000	186.983037
4.470000	125.965559
4.480000	108.768677
4.490000	130.975737
4.500000	172.501061
4.510000	210.635396
4.520000	240.940555
4.530000	281.346992
4.540000	321.961031
4.550000	357.729520
4.560000	369.600930
4.570000	371.861716
4.580000	380.570696
4.590000	389.257260
4.600000	401.226096
4.610000	413.293992
4.620000	441.259526
4.630000	479.932523
4.640000	519.941130
4.650000	554.237308
4.660000	583.637751
4.670000	603.186527
4.680000	614.345823
4.690000	629.827333
4.700000	658.370537
4.710000	689.409524
4.720000	708.044612
4.730000	720.711763
4.740000	748.420339
4.750000	791.619331
4.760000	837.421408
4.770000	874.526729
4.780000	904.119061
4.790000	938.794590
4.800000	963.068856
4.810000	978.438504
4.820000	999.718114
4.830000	1017.010896
4.840000	976.911014
4.850000	856.998322
4.860000	695.266555
4.870000	556.723430
4.880000	455.144974
4.890000	389.738878
4.900000	357.013092
4.910000	355.089299
4.920000	374.190146
4.930000	406.108082
4.940000	432.336380
4.950000	455.850084
4.960000	485.496374
4.970000	514.547015
4.980000	533.312684
4.990000	528.231163
5.000000	523.898387
5.010000	516.501939
5.020000	528.554443
5.030000	559.373782
5.040000	603.528950
5.050000	648.892112
5.060000	685.507685
5.070000	724.466553
5.080000	774.143975
5.090000	840.699960
5.100000	905.376907
5.110000	953.275738
5.120000	976.962137
5.130000	1002.274714
5.140000	1040.171652
5.150000	1085.895685
5.160000	1129.699283
5.170000	1162.182758
5.180000	1194.281229
5.190000	1233.124488
5.200000	1278.508110
5.210000	1324.716121
5.220000	1377.097043
5.230000	1427.268317
5.240000	1476.377032
5.250000	1523.145331
5.260000	1546.600995
5.270000	1491.927366
5.280000	1343.931668
5.290000	1153.555485
5.300000	999.670043
5.310000	906.698259
5.320000	867.318634
5.330000	868.155002
5.340000	886.939925
5.350000	913.976577
5.360000	935.212740
5.370000	953.842178
5.380000	968.803693
5.390000	985.053961
5.400000	989.675028
5.410000	977.616645
5.420000	956.577147
5.430000	940.191208
5.440000	939.467426
5.450000	950.720577
5.460000	974.363911
5.470000	1007.903358
5.480000	1049.256030
5.490000	1091.734430
5.500000	1123.461262
5.510000	1147.600605
5.520000	1167.995230
5.530000	1199.490278
5.540000	1232.789238
5.550000	1266.728363
5.560000	1294.894623
5.570000	1317.309628
5.580000	1343.350915
5.590000	1368.845247
5.600000	1396.149738
5.610000	1429.376627
5.620000	1467.591978
5.630000	1504.216106
5.640000	1537.370389
5.650000	1563.373538
5.660000	1596.186461
5.670000	1638.154564
5.680000	1680.961695
5.690000	1720.267894
5.700000	1751.390300
5.710000	1737.948062
5.720000	1640.463872
5.730000	1467.412969
5.740000	1284.681047
5.750000	1154.185774
5.760000	1075.712568
5.770000	1036.909767
5.780000	1021.717947
5.790000	1017.961313
5.800000	1021.060581
5.810000	1027.665457
5.820000	1036.724911
5.830000	1047.685834
5.840000	1051.680751
5.850000	1039.686269
5.860000	1017.657681
5.870000	982.641645
5.880000	948.325848
5.890000	917.211274
5.900000	900.328527
5.910000	898.396434
5.920000	889.913459
5.930000	871.273450
5.940000	833.124733
5.950000	802.224511
5.960000	786.592152
5.970000	775.096653
5.980000	765.390102
5.990000	749.926985
6.000000	739.209475
6.010000	719.328171
6.020000	699.396026
6.030000	693.045088
6.040000	712.213948
6.050000	746.001326
6.060000	776.982029
6.070000	785.251520
6.080000	778.459239
6.090000	776.501481
6.100000	796.226883
6.110000	834.996055
6.120000	856.867195
6.130000	856.538247
6.140000	843.510952
6.150000	822.362346
6.160000	740.960362
6.170000	592.605276
6.180000	417.832858
6.190000	280.538344
6.200000	193.189374
6.210000	149.377460
6.220000	149.187572
6.230000	168.105480
6.240000	186.488235
6.250000	189.802570
6.260000	192.489465
6.270000	207.449030
6.280000	225.382607
6.290000	227.020264
6.300000	206.931867
6.310000	174.917380
6.320000	151.460463
6.330000	129.020124
6.340000	116.984095
6.350000	107.690519
6.360000	104.150793
6.370000	110.309832
6.380000	121.238742
6.390000	145.577974
6.400000	167.537085
6.410000	187.500639
6.420000	205.443666
6.430000	235.738142
6.440000	272.235112
6.450000	302.899970
6.460000	328.334351
6.470000	353.011443
6.480000	377.026502
6.490000	397.051040
6.500000	418.345691
6.510000	447.029026
6.520000	490.603964
6.530000	528.865438
6.540000	552.158319
6.550000	578.377196
6.560000	605.256219
6.570000	584.360298
6.580000	459.597135
6.590000	277.889614
6.600000	114.946279
6.610000	6.905300
6.620000	-59.579552
6.630000	-92.136485
6.640000	-94.836236
6.650000	-79.273676
6.660000	-61.514053
6.670000	-46.790752
6.680000	-28.904218
6.690000	-7.401473
6.700000	0.912909
6.710000	-13.404732
6.720000	-39.293848
6.730000	-63.148647
6.740000	-83.281765
6.750000	-104.325792
6.760000	-115.978647
6.770000	-112.934085
6.780000	-96.110831
6.790000	-84.343903
6.800000	-85.633013
6.810000	-93.133482
6.820000	-93.224559
6.830000	-93.737397
6.840000	-106.583502
6.850000	-127.386874
6.860000	-146.686214
6.870000	-161.479265
6.880000	-172.558626
6.890000	-173.979867
6.900000	-166.877968
6.910000	-160.597938
6.920000	-147.579898
6.930000	-129.671633
6.940000	-110.717864
6.950000	-87.156300
6.960000	-54.619029
6.970000	-21.442033
6.980000	10.731251
6.990000	25.798155
7.000000	-16.753973
7.010000	-145.030133
7.020000	-318.821552
7.030000	-469.216999
7.040000	-573.788305
7.050000	-644.269959
7.060000	-678.489880
7.070000	-682.786731
7.080000	-667.644025
7.090000	-654.107776
7.100000	-653.547595
7.110000	-661.829644
7.120000	-662.528207
7.130000	-661.724860
7.140000	-676.651699
7.150000	-706.349753
7.160000	-727.828367
7.170000	-726.779560
7.180000	-713.521110
7.190000	-700.999058
7.200000	-688.292271
7.210000	-673.332604
7.220000	-652.510417
7.230000	-623.454790
7.240000	-598.889273
7.250000	-568.299746
7.260000	-534.759379
7.270000	-497.254745
7.280000	-466.115908
7.290000	-441.303859
7.300000	-418.249916
7.310000	-394.148392
7.320000	-364.169593
7.330000	-327.796649
7.340000	-291.902093
7.350000	-268.920020
7.360000	-256.721744
7.370000	-234.787336
7.380000	-194.703077
7.390000	-150.177816
7.400000	-111.471309
7.410000	-84.018721
7.420000	-99.108193
7.430000	-196.013169
7.440000	-365.744765
7.450000	-549.670812
7.460000	-698.206361
7.470000	-792.212881
7.480000	-843.220285
7.490000	-867.235965
7.500000	-874.019716
7.510000	-860.360033
7.520000	-838.665933
7.530000	-827.304950
7.540000	-813.030399
7.550000	-795.424104
7.560000	-782.557770
7.570000	-793.379965
7.580000	-815.138815
7.590000	-827.456193
7.600000	-824.902795
7.610000	-807.690351
7.620000	-781.491431
7.630000	-749.060033
7.640000	-714.561362
7.650000	-673.884944
7.660000	-632.803599
7.670000	-592.509632
7.680000	-558.537312
7.690000	-526.921636
7.700000	-495.423023
7.710000	-466.494303
7.720000	-437.108636
7.730000	-406.889712
7.740000	-369.594103
7.750000	-345.173539
7.760000	-324.149042
7.770000	-314.990802
7.780000	-298.445805
7.790000	-288.718420
7.800000	-292.540998
7.810000	-282.505044
7.820000	-281.594530
7.830000	-322.806255
7.840000	-446.154909
7.850000	-601.681735
7.860000	-737.866199
7.870000	-844.493008
7.880000	-920.759494
7.890000	-970.807818
7.900000	-987.111160
7.910000	-983.004138
7.920000	-974.628535
7.930000	-960.978473
7.940000	-940.637000
7.950000	-904.089889
7.960000	-871.553540
7.970000	-855.005516
7.980000	-850.587174
7.990000	-845.390624
8.000000	-825.111714
8.010000	-798.333737
8.020000	-767.448121
8.030000	-738.115090
8.040000	-712.270613
8.050000	-683.035596
8.060000	-648.604113
8.070000	-602.440555
8.080000	-556.820424
8.090000	-509.637524
8.100000	-455.192068
8.110000	-398.696692
8.120000	-349.741649
8.130000	-313.576868
8.140000	-281.085048
8.150000	-247.636328
8.160000	-218.957527
8.170000	-191.170383
8.180000	-164.676412
8.190000	-132.853470
8.200000	-84.885773
8.210000	-41.458743
8.220000	-0.869644
8.230000	35.090050
8.240000	38.571577
8.250000	-28.559748
8.260000	-165.383944
8.270000	-313.221919
8.280000	-429.220948
8.290000	-509.496132
8.300000	-558.252182
8.310000	-576.266606
8.320000	-578.160775
8.330000	-568.515830
8.340000	-560.265620
8.350000	-555.910022
8.360000	-542.501978
8.370000	-513.496045
8.380000	-479.961269
8.390000	-463.619517
8.400000	-463.199230
8.410000	-470.232007
8.420000	-466.252143
8.430000	-450.402226
8.440000	-426.494202
8.450000	-400.421435
8.460000	-373.233177
8.470000	-339.600292
8.480000	-308.188031
8.490000	-275.590377
8.500000	-242.665921
8.510000	-213.768321
8.520000	-185.969004
8.530000	-159.466983
8.540000	-131.777108
8.550000	-107.029807
8.560000	-79.404134
8.570000	-56.810193
8.580000	-39.189385
8.590000	-25.768992
8.600000	-6.797276
8.610000	19.402469
8.620000	54.747672
8.630000	100.056160
8.640000	137.392770
8.650000	178.943978
8.660000	203.430418
8.670000	184.635774
8.680000	108.652480
8.690000	25.653915
8.700000	-11.969290
8.710000	-10.673092
8.720000	-7.859847
8.730000	-22.466773
8.740000	-41.179477
8.750000	-60.806179
8.760000	-76.679912
8.770000	-102.380824
8.780000	-122.619775
8.790000	-128.826240
8.800000	-134.807016
8.810000	-146.101798
8.820000	-168.180509
8.830000	-172.470562
8.840000	-166.172557
8.850000	-151.345765
8.860000	-142.051724
8.870000	-134.693547
8.880000	-119.435090
8.890000	-107.286845
8.900000	-94.633466
8.910000	-87.762779
8.920000	-83.327737
8.930000	-93.470532
8.940000	-93.777801
8.950000	-72.068332
8.960000	-41.821713
8.970000	-37.246684
8.980000	-53.950139
8.990000	-57.199160
9.000000	-31.321955
9.010000	11.246545
9.020000	53.769542
9.030000	94.876000
9.040000	138.349827
9.050000	186.308591
9.060000	235.723440
9.070000	280.540083
9.080000	307.551030
9.090000	327.978710
9.100000	345.497671
9.110000	332.136611
9.120000	261.253894
9.130000	139.525021
9.140000	27.296267
9.150000	-54.389378
9.160000	-92.545280
9.170000	-98.900385
9.180000	-77.227299
9.190000	-43.641215
9.200000	-28.143646
9.210000	-33.837955
9.220000	-42.531554
9.230000	-24.533428
9.240000	-9.947605
9.250000	-30.096423
9.260000	-76.117726
9.270000	-107.437021
9.280000	-123.262078
9.290000	-141.026239
9.300000	-171.252942
9.310000	-197.741141
9.320000	-214.805366
9.330000	-226.014399
9.340000	-230.879844
9.350000	-231.494866
9.360000	-224.807230
9.370000	-218.873139
9.380000	-220.264755
9.390000	-216.399935
9.400000	-215.647873
9.410000	-216.100134
9.420000	-228.266977
9.430000	-237.600297
9.440000	-240.117468
9.450000	-235.646872
9.460000	-223.502731
9.470000	-212.589545
9.480000	-206.409821
9.490000	-202.720004
9.500000	-189.493845
9.510000	-184.135332
9.520000	-161.331481
9.530000	-139.207804
9.540000	-157.098770
9.550000	-250.474626
9.560000	-395.240985
9.570000	-520.819195
9.580000	-607.729192
9.590000	-649.405103
9.600000	-654.130943
9.610000	-639.556375
9.620000	-616.721057
9.630000	-602.263084
9.640000	-594.133445
9.650000	-587.502625
9.660000	-574.745487
9.670000	-570.009489
9.680000	-582.217560
9.690000	-608.358143
9.700000	-628.852213
9.710000	-638.621554
9.720000	-637.375120
9.730000	-622.086060
9.740000	-603.477902
9.750000	-578.722285
9.760000	-553.814018
9.770000	-536.907028
9.780000	-536.360105
9.790000	-542.585371
9.800000	-542.105210
9.810000	-529.829928
9.820000	-518.108194
9.830000	-511.262560
9.840000	-503.961579
9.850000	-498.259188
9.860000	-492.013946
9.870000	-489.484020
9.880000	-484.247726
9.890000	-479.613105
9.900000	-470.001407
9.910000	-464.326414
9.920000	-449.572718
9.930000	-436.650066
9.940000	-430.672843
9.950000	-419.805328
9.960000	-421.732309
9.970000	-465.202664
9.980000	-575.326892
9.990000	-729.012806
10.000000	-873.719206
10.010000	-1002.827775
10.020000	-1117.678820
10.030000	-1208.491041
10.040000	-1283.901261
10.050000	-1331.642526
10.060000	-1370.755373
10.070000	-1398.279309
10.080000	-1427.533292
10.090000	-1452.074266
10.100000	-1473.545889
10.110000	-1496.088557
10.120000	-1522.433760
10.130000	-1545.287779
10.140000	-1556.531811
10.150000	-1563.408276
10.160000	-1568.830350
10.170000	-1580.754956
10.180000	-1592.300406
10.190000	-1596.647346
10.200000	-1593.333382
10.210000	-1589.439159
10.220000	-1594.919528
10.230000	-1609.748728
10.240000	-1632.714132
10.250000	-1658.592204
10.260000	-1679.044967
10.270000	-1696.008536
10.280000	-1714.261423
10.290000	-1734.290728
10.300000	-1757.357472
10.310000	-1784.449447
10.320000	-1823.683511
10.330000	-1867.776065
10.340000	-1910.555914
10.350000	-1940.297168
10.360000	-1958.340368
10.370000	-1974.383799
10.380000	-1999.002867
10.390000	-2025.966290
10.400000	-2061.574846
10.410000	-2149.860498
10.420000	-2311.289868
10.430000	-2517.828932
10.440000	-2699.095668
10.450000	-2825.783577
10.460000	-2887.493083
10.470000	-2919.068448
10.480000	-2941.725281
10.490000	-2973.215593
10.500000	-3006.761448
10.510000	-3039.577916
10.520000	-3075.686704
10.530000	-3098.754224
10.540000	-3111.533754
10.550000	-3126.826962
10.560000	-3161.593832
10.570000	-3205.024455
10.580000	-3252.872365
10.590000	-3288.053166
10.600000	-3316.078800
10.610000	-3323.227564
10.620000	-3319.548360
10.630000	-3307.578469
10.640000	-3293.557839
10.650000	-3285.463153
10.660000	-3279.396286
10.670000	-3271.876451
10.680000	-3259.428079
10.690000	-3251.517804
10.700000	-3248.626859
10.710000	-3247.005006
10.720000	-3232.988329
10.730000	-3218.417940
10.740000	-3199.160683
10.750000	-3187.396159
10.760000	-3176.133232
10.770000	-3169.256113
10.780000	-3164.940965
10.790000	-3162.301813
10.800000	-3156.586873
10.810000	-3144.198413
10.820000	-3142.804502
10.830000	-3141.194572
10.840000	-3159.953883
10.850000	-3212.681490
10.860000	-3332.331876
10.870000	-3492.178759
10.880000	-3638.141138
10.890000	-3752.280475
10.900000	-3825.812810
10.910000	-3877.293278
10.920000	-3902.255963
10.930000	-3913.854538
10.940000	-3924.529213
10.950000	-3942.902673
10.960000	-3969.609832
10.970000	-3984.387975
10.980000	-3994.258517
10.990000	-4009.373543
11.000000	-4036.722029
11.010000	-4068.807997
11.020000	-4096.334396
11.030000	-4112.067026
11.040000	-4122.468371
11.050000	-4129.462634
11.060000	-4140.431409
11.070000	-4151.974374
11.080000	-4152.181799
11.090000	-4154.030141
11.100000	-4142.997263
11.110000	-4133.637939
11.120000	-4123.235668
11.130000	-4119.409350
11.140000	-4120.582200
11.150000	-4122.972886
11.160000	-4120.719301
11.170000	-4113.011330
11.180000	-4099.984753
11.190000	-4093.539198
11.200000	-4090.664369
11.210000	-4089.857632
11.220000	-4087.121511
11.230000	-4082.636511
11.240000	-4067.333451
11.250000	-4047.903423
11.260000	-4036.335871
11.270000	-4024.221392
11.280000	-4011.466014
11.290000	-4023.378457
11.300000	-4113.106359
11.310000	-4268.788432
11.320000	-4435.056369
11.330000	-4562.641996
11.340000	-4655.243000
11.350000	-4715.915895
11.360000	-4754.200457
11.370000	-4764.899900
11.380000	-4761.290096
11.390000	-4765.654258
11.400000	-4766.697263
11.410000	-4758.831487
11.420000	-4737.846153
11.430000	-4736.846533
11.440000	-4764.995295
11.450000	-4813.208132
11.460000	-4863.513992
11.470000	-4884.590957
11.480000	-4879.849883
11.490000	-4837.651446
11.500000	-4758.602249
11.510000	-4600.307146
11.520000	-4387.917234
11.530000	-4191.126035
11.540000	-4045.509754
11.550000	-3951.550136
11.560000	-3882.392462
11.570000	-3832.728998
11.580000	-3802.314941
11.590000	-3787.253957
11.600000	-3783.590289
11.610000	-3776.432124
11.620000	-3750.210543
11.630000	-3713.687384
11.640000	-3672.495947
11.650000	-3619.912566
11.660000	-3551.120547
11.670000	-3482.192487
11.680000	-3442.442264
11.690000	-3403.304215
11.700000	-3334.413157
11.710000	-3242.836190
11.720000	-3188.509993
11.730000	-3163.158157
11.740000	-3120.142066
11.750000	-3056.236534
11.760000	-2994.479996
11.770000	-2934.213409
11.780000	-2850.711924
11.790000	-2732.516643
11.800000	-2587.617001
11.810000	-2434.464803
11.820000	-2280.437624
11.830000	-2108.956219
11.840000	-1886.818055
11.850000	-1604.113468
11.860000	-1235.420788
11.870000	-819.374598
11.880000	-395.617261
11.890000	-36.980879
11.900000	231.400263
11.910000	419.930429
11.920000	522.128378
11.930000	569.373012
11.940000	566.213743
11.950000	522.598343
11.960000	441.384536
11.970000	365.375262
11.980000	321.290002
11.990000	293.150727
12.000000	213.172627
12.010000	59.843031
12.020000	-76.845109
12.030000	-128.393359
12.040000	-88.900803
12.050000	-23.019263
12.060000	22.901665
12.070000	54.642872
12.080000	83.868780
12.090000	122.791962
12.100000	161.263557
12.110000	185.423567
12.120000	215.247602
12.130000	242.477589
12.140000	234.000303
12.150000	177.763337
12.160000	96.693246
12.170000	34.620959
12.180000	-10.220971
12.190000	-55.376385
12.200000	-77.163305
12.210000	-47.165117
12.220000	41.367410
12.230000	124.387885
12.240000	152.478103
12.250000	124.282984
12.260000	38.134978
12.270000	-109.944271
12.280000	-297.915742
12.290000	-458.823594
12.300000	-578.215818
12.310000	-688.265840
12.320000	-786.852940
12.330000	-858.766410
12.340000	-886.240357
12.350000	-927.228626
12.360000	-983.222730
12.370000	-1042.066411
12.380000	-1063.537419
12.390000	-1046.417065
12.400000	-1009.977129
12.410000	-962.803439
12.420000	-916.820735
12.430000	-890.264854
12.440000	-907.735838
12.450000	-951.995010
12.460000	-981.296916
12.470000	-970.480293
12.480000	-914.285185
12.490000	-716.417688
12.500000	-461.468685
12.510000	-362.736608
12.520000	-545.768788
12.530000	-871.683133
12.540000	-983.820890
12.550000	-882.957771
12.560000	-781.463459
12.570000	-884.217389
12.580000	-1232.993170
12.590000	-1610.429965
12.600000	-1911.492308
12.610000	-2084.780325
12.620000	-2192.623825
12.630000	-2344.910849
12.640000	-2591.903969
12.650000	-2932.542307
12.660000	-3206.384417
12.670000	-3171.918626
12.680000	-2846.873869
12.690000	-2428.079943
12.700000	-2192.205105
12.710000	-2240.043443
12.720000	-2562.515851
12.730000	-3042.654607
12.740000	-3503.602115
12.750000	-3851.095303
12.760000	-4103.262402
12.770000	-4310.552734
12.780000	-4482.066357
12.790000	-4637.626101
12.800000	-4746.647570
12.810000	-4820.058383
12.820000	-4851.087571
12.830000	-4888.880779
12.840000	-4915.575836
12.850000	-4881.844799
12.860000	-4751.991970
12.870000	-4573.924549
12.880000	-4426.374526
12.890000	-4338.746198
12.900000	-4304.531419
12.910000	-4339.831820
12.920000	-4448.853051
12.930000	-4636.111216
12.940000	-4883.300406
12.950000	-5105.056962
12.960000	-5174.479630
12.970000	-5073.476243
12.980000	-4924.214135
12.990000	-4802.266264
13.000000	-4695.869449
13.010000	-4611.261682
13.020000	-4581.081804
13.030000	-4596.289032
13.040000	-4596.962670
13.050000	-4582.282115
13.060000	-4600.777619
13.070000	-4678.339984
13.080000	-4813.639840
13.090000	-4966.073724
13.100000	-5117.676322
13.110000	-5244.899193
13.120000	-5339.189336
13.130000	-5435.273796
13.140000	-5546.067587
13.150000	-5656.992885
13.160000	-5733.305264
13.170000	-5739.118434
13.180000	-5682.401069
13.190000	-5587.688542
13.200000	-5516.325038
13.210000	-5487.865580
13.220000	-5538.009663
13.230000	-5645.597334
13.240000	-5828.841183
13.250000	-6070.932825
13.260000	-6385.450554
13.270000	-6770.915782
13.280000	-7217.052308
13.290000	-7780.092308
13.300000	-8286.361147
13.310000	-8584.329129
13.320000	-8623.273882
13.330000	-8574.831193
13.340000	-8603.148013
13.350000	-8707.857431
13.360000	-8858.576398
13.370000	-8975.043989
13.380000	-9016.069972
13.390000	-9001.349494
13.400000	-8933.796294
13.410000	-8792.528879
13.420000	-8638.012284
13.430000	-8572.081754
13.440000	-8608.907590
13.450000	-8617.817077
13.460000	-8534.559054
13.470000	-8377.680274
13.480000	-8208.221042
13.490000	-8063.030803
13.500000	-7931.633399
13.510000	-7801.248550
13.520000	-7661.251699
13.530000	-7547.119365
13.540000	-7494.723912
13.550000	-7479.670475
13.560000	-7499.428281
13.570000	-7547.041104
13.580000	-7591.892196
13.590000	-7599.886184
13.600000	-7561.901471
13.610000	-7514.325742
13.620000	-7454.265005
13.630000	-7361.171582
13.640000	-7254.853389
13.650000	-7166.154271
13.660000	-7113.506703
13.670000	-7080.800207
13.680000	-7073.302581
13.690000	-7064.434866
13.700000	-7022.820444
13.710000	-6947.881537
13.720000	-6881.842167
13.730000	-6830.272676
13.740000	-6769.821721
13.750000	-6671.343919
13.760000	-6538.245408
13.770000	-6338.665026
13.780000	-6112.538310
13.790000	-5825.111597
13.800000	-5561.817127
13.810000	-5258.795785
13.820000	-4524.373884
13.830000	-2528.732327
13.840000	-189.117146
13.850000	523.234125
13.860000	550.841013
13.870000	822.800740
13.880000	1998.869709
13.890000	5120.357890
13.900000	8390.884542
13.910000	11411.227308
13.920000	13296.323355
13.930000	14628.436312
13.940000	16037.462524
13.950000	17901.373806
13.960000	19197.295620
13.970000	20064.950788
13.980000	20578.063229
13.990000	21118.175010
14.000000	21999.485523
14.010000	23262.983146
14.020000	24491.810212
14.030000	25491.343793
14.040000	26247.471305
14.050000	26922.551525
14.060000	27538.294506
14.070000	28103.612329
14.080000	28688.847632
14.090000	29160.681102
14.100000	29486.918479
14.110000	29553.771530
14.120000	29440.103155
14.130000	28981.784685
14.140000	28170.979126
14.150000	27199.613593
14.160000	26150.494018
14.170000	24987.882297
14.180000	23518.245351
14.190000	23432.723083
14.200000	24664.711750
14.210000	27308.572772
14.220000	30501.478050
14.230000	31295.172646
14.240000	30430.081249
14.250000	28137.715000
14.260000	26386.053838
14.270000	24809.329380
14.280000	22069.257407
14.290000	17739.584819
14.300000	16940.557620
14.310000	17225.871266
14.320000	17772.185953
14.330000	17481.935517
14.340000	15146.143588
14.350000	14101.077131
14.360000	13749.750510
14.370000	13888.837482
14.380000	14158.003666
14.390000	14332.978756
14.400000	14475.384079
14.410000	14640.445899
14.420000	15177.918178
14.430000	16220.700647
14.440000	18140.414999
14.450000	19980.692389
14.460000	21570.963592
14.470000	22947.349127
14.480000	24251.366963
14.490000	25598.555149
14.500000	27056.850426
14.510000	28422.795838
14.520000	29577.525879
14.530000	30413.953323
14.540000	31015.140328
14.550000	31264.611004
14.560000	31312.504248
14.570000	31055.589173
14.580000	30768.254048
14.590000	30358.909685
14.600000	30054.892608
14.610000	29503.982961
14.620000	28846.894505
14.630000	27730.798868
14.640000	25999.058481
14.650000	22997.106764
14.660000	18233.537643
14.670000	15341.563615
14.680000	29443.042570
14.690000	42813.654738
14.700000	44660.416864
14.710000	41300.469243
14.720000	37760.262911
14.730000	34535.595117
14.740000	31504.423717
14.750000	30941.876588
14.760000	30641.409899
14.770000	30069.958350
14.780000	26531.699720
14.790000	24823.600723
14.800000	24060.245879
14.810000	23825.950444
14.820000	24446.215110
14.830000	25906.209484
14.840000	28328.640798
14.850000	30502.375294
14.860000	32243.108799
14.870000	33651.629778
14.880000	34829.561980
14.890000	35779.110150
14.900000	36771.648855
14.910000	37630.243588
14.920000	38394.868857
14.930000	38733.886132
14.940000	38531.537059
14.950000	37661.151750
14.960000	32500.658080
14.970000	24380.766222
14.980000	33457.541195
14.990000	36087.420723
15.000000	27648.136014
15.010000	27115.296681
15.020000	26243.872945
15.030000	24882.952698
15.040000	23646.711350
15.050000	22588.112997
15.060000	21633.777371
15.070000	20828.437880
15.080000	20149.716081
15.090000	19639.652721
15.100000	19200.305889
15.110000	18789.378386
15.120000	18358.559469
15.130000	17924.952850
15.140000	17473.716500
15.150000	16999.867529
15.160000	16531.933877
15.170000	16125.145579
15.180000	15753.205649
15.190000	15357.601645
15.200000	14917.502162
15.210000	14521.935347
15.220000	14267.048682
15.230000	14046.932329
15.240000	13763.823528
15.250000	13422.069998
15.260000	13102.322373
15.270000	12717.582407
15.280000	12180.308952
15.290000	11610.474605
15.300000	11075.280959
15.310000	10458.313309
15.320000	9616.952198
15.330000	8575.368302
15.340000	7449.620921
15.350000	6152.824445
15.360000	4459.112792
15.370000	2392.942983
15.380000	321.480108
15.390000	-1827.188457
15.400000	-3990.531332
15.410000	-6196.881286
15.420000	-8224.062529
15.430000	-9508.809206
15.440000	-10396.613625
15.450000	-10963.026487
15.460000	-11330.753748
15.470000	-11436.827406
15.480000	-11189.254100
15.490000	-10550.898554
15.500000	-9652.013289
15.510000	-8801.940147
15.520000	-8240.405908
15.530000	-7926.047015
15.540000	-7679.268797
15.550000	-7363.467797
15.560000	-7058.267257
15.570000	-6811.355024
15.580000	-6655.792127
15.590000	-6516.524270
15.600000	-6353.671577
15.610000	-6184.119694
15.620000	-6024.833770
15.630000	-5878.303435
15.640000	-5782.400061
15.650000	-5744.723091
15.660000	-5716.141701
15.670000	-5653.836646
15.680000	-5628.884760
15.690000	-5699.281531
15.700000	-5786.298182
15.710000	-5811.785819
15.720000	-5805.745011
15.730000	-5839.485118
15.740000	-5940.163945
15.750000	-6059.749722
15.760000	-6208.526612
15.770000	-6372.743583
15.780000	-6504.936959
15.790000	-6633.096587
15.800000	-6791.528148
15.810000	-7010.613862
15.820000	-7238.413119
15.830000	-7479.818587
15.840000	-7827.749306
15.850000	-8511.953279
15.860000	-9624.312890
15.870000	-11352.616477
15.880000	-13261.980308
15.890000	-14828.692738
15.900000	-16294.635855
15.910000	-17524.708957
15.920000	-18375.978109
15.930000	-18892.778904
15.940000	-19409.155230
15.950000	-19906.210430
15.960000	-20162.116420
15.970000	-20124.793309
15.980000	-20023.880067
15.990000	-20111.810935
16.000000	-20373.624749
16.010000	-20639.127518
16.020000	-20811.639725
16.030000	-20886.107078
16.040000	-20942.977005
16.050000	-20965.249139
16.060000	-20893.303260
16.070000	-20708.619206
16.080000	-20452.584803
16.090000	-20196.203523
16.100000	-19934.800095
16.110000	-19640.875330
16.120000	-19320.265570
16.130000	-19031.859796
16.140000	-18782.429714
16.150000	-18538.583843
16.160000	-18287.842479
16.170000	-18051.934207
16.180000	-17817.031006
16.190000	-17528.052303
16.200000	-17154.508946
16.210000	-16780.380723
16.220000	-16494.904531
16.230000	-16287.344942
16.240000	-16046.942844
16.250000	-15744.123222
16.260000	-15413.756108
16.270000	-15106.215464
16.280000	-14861.819799
16.290000	-14752.345390
16.300000	-14762.936641
16.310000	-14734.042039
16.320000	-14532.429537
16.330000	-14190.169334
16.340000	-13824.806601
16.350000	-13507.491289
16.360000	-13251.352324
16.370000	-13050.762256
16.380000	-12908.260095
16.390000	-12780.586059
16.400000	-12615.494071
16.410000	-12376.141904
16.420000	-12102.634557
16.430000	-11857.459748
16.440000	-11645.990640
16.450000	-11419.005313
16.460000	-11176.197206
16.470000	-10956.713763
16.480000	-10793.446095
16.490000	-10681.382532
16.500000	-10585.682324
16.510000	-10476.806577
16.520000	-10308.284142
16.530000	-10071.417779
16.540000	-9785.718090
16.550000	-9470.788407
16.560000	-9132.210487
16.570000	-8771.917035
16.580000	-8419.885601
16.590000	-8105.821550
16.600000	-7859.341330
16.610000	-7680.429709
16.620000	-7541.510511
16.630000	-7409.816831
16.640000	-7262.838439
16.650000	-7092.712069
16.660000	-6918.044216
16.670000	-6744.380466
16.680000	-6564.695005
16.690000	-6405.290406
16.700000	-6324.587768
16.710000	-6343.922626
16.720000	-6401.747366
16.730000	-6433.711930
16.740000	-6426.214722
16.750000	-6392.079072
16.760000	-6334.497736
16.770000	-6260.970295
16.780000	-6162.918945
16.790000	-6058.119647
16.800000	-5949.488443
16.810000	-5845.810875
16.820000	-5769.624747
16.830000	-5724.983612
16.840000	-5710.949494
16.850000	-5689.593406
16.860000	-5643.204894
16.870000	-5569.122755
16.880000	-5465.677638
16.890000	-5354.934942
16.900000	-5243.996591
16.910000	-5136.962484
16.920000	-5042.554768
16.930000	-4972.561202
16.940000	-4941.018072
16.950000	-4923.288815
16.960000	-4904.078278
16.970000	-4868.257567
16.980000	-4820.101864
16.990000	-4764.808310
17.000000	-4699.685921
17.010000	-4624.617571
17.020000	-4548.214685
17.030000	-4483.361890
17.040000	-4426.624506
17.050000	-4387.737457
17.060000	-4374.961190
17.070000	-4372.313159
17.080000	-4371.254153
17.090000	-4410.623914
17.100000	-4541.187183
17.110000	-4735.663324
17.120000	-4900.550350
17.130000	-4995.462950
17.140000	-5045.376306
17.150000	-5065.855586
17.160000	-5072.155817
17.170000	-5060.151586
17.180000	-5046.283899
17.190000	-5037.382059
17.200000	-5031.684684
17.210000	-5016.547670
17.220000	-5001.780864
17.230000	-4999.354936
17.240000	-5017.504470
17.250000	-5027.032349
17.260000	-5015.916777
17.270000	-4992.743097
17.280000	-4974.998778
17.290000	-4969.070409
17.300000	-4959.001578
17.310000	-4938.742177
17.320000	-4906.334585
17.330000	-4880.457946
17.340000	-4850.910577
17.350000	-4813.179940
17.360000	-4769.163036
17.370000	-4726.912602
17.380000	-4696.081851
17.390000	-4675.946896
17.400000	-4666.668038
17.410000	-4660.960463
17.420000	-4658.942362
17.430000	-4657.634715
17.440000	-4659.234788
17.450000	-4648.265639
17.460000	-4647.973418
17.470000	-4637.449742
17.480000	-4612.767719
17.490000	-4613.430038
17.500000	-4723.027874
17.510000	-4927.488008
17.520000	-5148.124275
17.530000	-5288.512066
17.540000	-5373.569828
17.550000	-5409.835883
17.560000	-5429.436903
17.570000	-5424.401780
17.580000	-5420.081981
17.590000	-5563.322080
17.600000	-5718.639874
17.610000	-5850.205161
17.620000	-5815.594880
17.630000	-5766.586928
17.640000	-5739.256800
17.650000	-5714.843472
17.660000	-5691.658322
17.670000	-5640.049878
17.680000	-5586.240553
17.690000	-5524.195481
17.700000	-5482.947407
17.710000	-5443.571483
17.720000	-5406.403054
17.730000	-5353.259594
17.740000	-5292.628631
17.750000	-5237.657524
17.760000	-5183.167870
17.770000	-5119.741411
17.780000	-5064.812038
17.790000	-5008.448192
17.800000	-4953.522942
17.810000	-4935.275583
17.820000	-5015.338164
17.830000	-5175.248234
17.840000	-5325.991576
17.850000	-5409.337422
17.860000	-5442.216736
17.870000	-5435.775988
17.880000	-5414.844667
17.890000	-5381.851441
17.900000	-5350.535263
17.910000	-5322.591905
17.920000	-5286.888500
17.930000	-5242.056820
17.940000	-5203.317987
17.950000	-5190.564940
17.960000	-5201.717153
17.970000	-5205.021216
17.980000	-5200.566355
17.990000	-5190.846231
18.000000	-5176.772875
18.010000	-5149.338491
18.020000	-5113.043782
18.030000	-5078.541026
18.040000	-5050.992386
18.050000	-5023.736562
18.060000	-4992.973657
18.070000	-4960.638627
18.080000	-4930.984678
18.090000	-4899.539347
18.100000	-4862.352295
18.110000	-4823.148822
18.120000	-4786.074554
18.130000	-4755.444702
18.140000	-4720.106021
18.150000	-4677.782379
18.160000	-4629.496323
18.170000	-4588.502426
18.180000	-4545.840020
18.190000	-4482.541673
18.200000	-4392.899063
18.210000	-4311.034797
18.220000	-4238.879689
18.230000	-4169.846687
18.240000	-4130.626009
18.250000	-4168.722149
18.260000	-4296.614615
18.270000	-4450.725923
18.280000	-4573.956919
18.290000	-4644.494519
18.300000	-4650.660273
18.310000	-4609.005811
18.320000	-4554.745297
18.330000	-4510.812342
18.340000	-4488.793316
18.350000	-4460.168045
18.360000	-4416.554443
18.370000	-4378.258781
18.380000	-4355.275234
18.390000	-4363.017444
18.400000	-4372.191301
18.410000	-4371.809454
18.420000	-4359.445586
18.430000	-4337.260380
18.440000	-4323.388313
18.450000	-4300.924527
18.460000	-4253.640552
18.470000	-4178.263414
18.480000	-4089.579694
18.490000	-3996.555065
18.500000	-3906.146828
18.510000	-3819.462222
18.520000	-3734.334584
18.530000	-3643.984338
18.540000	-3543.820640
18.550000	-3434.811981
18.560000	-3320.602248
18.570000	-3217.627553
18.580000	-3130.635783
18.590000	-3049.684690
18.600000	-2966.286419
18.610000	-2887.060937
18.620000	-2808.518061
18.630000	-2729.048930
18.640000	-2659.053717
18.650000	-2575.213109
18.660000	-2475.581296
18.670000	-2417.805253
18.680000	-2471.403489
18.690000	-2616.411336
18.700000	-2746.913680
18.710000	-2806.408208
18.720000	-2802.853647
18.730000	-2760.366494
18.740000	-2679.309698
18.750000	-2563.245832
18.760000	-2434.727759
18.770000	-2312.020816
18.780000	-2182.967239
18.790000	-2047.397914
18.800000	-1942.208565
18.810000	-1882.947270
18.820000	-1847.909297
18.830000	-1794.665582
18.840000	-1715.595653
18.850000	-1616.976214
18.860000	-1510.180945
18.870000	-1408.173591
18.880000	-1321.305539
18.890000	-1234.511728
18.900000	-1145.339421
18.910000	-1051.388729
18.920000	-972.303299
18.930000	-911.421122
18.940000	-852.076462
18.950000	-774.306061
18.960000	-664.392422
18.970000	-548.490191
18.980000	-446.879288
18.990000	-370.833984
19.000000	-305.810328
19.010000	-235.017378
19.020000	-167.990130
19.030000	-112.703623
19.040000	-64.305851
19.050000	6.508800
19.060000	89.771386
19.070000	163.190864
19.080000	239.116571
19.090000	300.300431
19.100000	280.171068
19.110000	136.992311
19.120000	-65.969284
19.130000	-216.996666
19.140000	-294.501796
19.150000	-316.904158
19.160000	-307.854658
19.170000	-275.238343
19.180000	-228.011135
19.190000	-180.050731
19.200000	-141.285458
19.210000	-108.954302
19.220000	-67.314167
19.230000	-31.730695
19.240000	-0.079557
19.250000	4.641856
19.260000	5.836434
19.270000	-0.170027
19.280000	16.069326
19.290000	61.518265
19.300000	113.786182
19.310000	156.456884
19.320000	179.423614
19.330000	214.750569
19.340000	264.219774
19.350000	327.950915
19.360000	391.556640
19.370000	460.455532
19.380000	539.143499
19.390000	618.845545
19.400000	683.300958
19.410000	723.181738
19.420000	753.120673
19.430000	784.441259
19.440000	816.175011
19.450000	841.622718
19.460000	860.520659
19.470000	889.125804
19.480000	944.146411
19.490000	1004.138908
19.500000	1057.082117
19.510000	1118.180126
19.520000	1170.552292
19.530000	1139.688236
19.540000	994.101722
19.550000	797.421239
19.560000	649.383209
19.570000	581.936834
19.580000	576.497225
19.590000	616.097411
19.600000	662.195065
19.610000	716.681329
19.620000	765.831504
19.630000	815.302502
19.640000	868.782417
19.650000	920.553577
19.660000	954.696898
19.670000	959.476908
19.680000	964.053638
19.690000	979.349251
19.700000	1010.730051
19.710000	1046.846435
19.720000	1067.722673
19.730000	1082.098198
19.740000	1093.044573
19.750000	1120.410015
19.760000	1157.643730
19.770000	1199.076465
19.780000	1254.306141
19.790000	1311.708382
19.800000	1357.655900
19.810000	1385.053508
19.820000	1390.045569
19.830000	1388.820436
19.840000	1397.136534
19.850000	1418.592160
19.860000	1452.255628
19.870000	1490.722379
19.880000	1530.764827
19.890000	1585.946364
19.900000	1661.634840
19.910000	1739.156638
19.920000	1804.572497
19.930000	1868.491288
19.940000	1927.196729
19.950000	1902.683439
19.960000	1776.047105
19.970000	1595.124985
19.980000	1450.750577
19.990000	1372.468778
20.000000	1351.755639
20.010000	1381.224065
20.020000	1431.778329
20.030000	1484.419878
20.040000	1515.870924
20.050000	1530.441977
20.060000	1557.451563
20.070000	1592.793802
20.080000	1619.420345
20.090000	1620.906513
20.100000	1615.579222
20.110000	1609.749668
20.120000	1608.500291
20.130000	1612.013709
20.140000	1625.872635
20.150000	1644.686145
20.160000	1668.032578
20.170000	1701.484397
20.180000	1731.919253
20.190000	1762.440677
20.200000	1790.238521
20.210000	1821.539308
20.220000	1851.981589
20.230000	1875.087011
20.240000	1896.882553
20.250000	1920.084486
20.260000	1950.586413
20.270000	1978.835667
20.280000	2004.446863
20.290000	2029.727591
20.300000	2060.117853
20.310000	2105.769637
20.320000	2136.483760
20.330000	2161.728263
20.340000	2196.674836
20.350000	2229.758149
20.360000	2183.163828
20.370000	2040.438272
20.380000	1866.359453
20.390000	1751.006548
20.400000	1702.149462
20.410000	1684.612440
20.420000	1688.499576
20.430000	1697.693673
20.440000	1717.736688
20.450000	1731.207751
20.460000	1743.199944
20.470000	1768.915619
20.480000	1801.102589
20.490000	1824.103157
20.500000	1819.836352
20.510000	1799.544012
20.520000	1786.444115
20.530000	1790.457768
20.540000	1813.541062
20.550000	1840.838036
20.560000	1873.195441
20.570000	1905.384191
20.580000	1939.052878
20.590000	1971.771560
20.600000	2005.777118
20.610000	2045.019175
20.620000	2092.355447
20.630000	2145.778716
20.640000	2197.110299
20.650000	2235.392270
20.660000	2273.460309
20.670000	2312.170875
20.680000	2353.011470
20.690000	2388.124684
20.700000	2422.132548
20.710000	2463.292208
20.720000	2515.780891
20.730000	2575.643926
20.740000	2621.255272
20.750000	2682.011717
20.760000	2745.492077
20.770000	2761.487665
20.780000	2673.257529
20.790000	2515.429113
20.800000	2375.049451
20.810000	2290.453863
20.820000	2243.571453
20.830000	2225.055476
20.840000	2222.305304
20.850000	2219.202749
20.860000	2211.962874
20.870000	2186.211960
20.880000	2167.956866
20.890000	2130.302533
20.900000	2038.490389
20.910000	1911.101857
20.920000	1800.346297
20.930000	1779.189308
20.940000	1823.166808
20.950000	1891.130875
20.960000	1948.573221
20.970000	1986.377562
20.980000	2017.610310
20.990000	2046.169845
21.000000	2077.222670
21.010000	2096.147231
21.020000	2105.455862
21.030000	2110.039230
21.040000	2132.312897
21.050000	2160.747988
21.060000	2181.741827
21.070000	2184.710216
21.080000	2187.494918
21.090000	2194.883571
21.100000	2206.147386
21.110000	2218.967955
21.120000	2226.704231
21.130000	2241.353954
21.140000	2262.812416
21.150000	2300.685350
21.160000	2322.056670
21.170000	2333.044264
21.180000	2340.223257
21.190000	2311.886531
21.200000	2189.906517
21.210000	1980.829730
21.220000	1762.710189
21.230000	1611.358142
21.240000	1539.599600
21.250000	1528.726014
21.260000	1549.386517
21.270000	1563.998668
21.280000	1570.532451
21.290000	1563.523896
21.300000	1567.022076
21.310000	1586.260693
21.320000	1615.077589
21.330000	1632.554746
21.340000	1629.764404
21.350000	1615.830660
21.360000	1588.352410
21.370000	1559.078841
21.380000	1543.885700
21.390000	1544.890387
21.400000	1550.984343
21.410000	1554.313066
21.420000	1559.386316
21.430000	1570.672165
21.440000	1582.363756
21.450000	1599.331425
21.460000	1617.922424
21.470000	1635.264589
21.480000	1644.743021
21.490000	1644.483422
21.500000	1638.519589
21.510000	1638.329528
21.520000	1633.509960
21.530000	1627.822173
21.540000	1616.418040
21.550000	1599.938291
21.560000	1567.904345
21.570000	1497.295751
21.580000	1424.496612
21.590000	1380.247519
21.600000	1352.915967
21.610000	1257.942775
21.620000	1088.492896
21.630000	914.794093
21.640000	811.693877
21.650000	770.026312
21.660000	764.128146
21.670000	779.568257
21.680000	802.844115
21.690000	827.408723
21.700000	835.141307
21.710000	842.624439
21.720000	861.037178
21.730000	884.406813
21.740000	903.872458
21.750000	884.398207
21.760000	862.184536
21.770000	837.572477
21.780000	832.504197
21.790000	887.746920
21.800000	960.877379
21.810000	1038.951209
21.820000	1065.078941
21.830000	1073.688913
21.840000	1084.857206
21.850000	1090.632606
21.860000	1110.326824
21.870000	1132.775901
21.880000	1167.804220
21.890000	1200.133868
21.900000	1218.910862
21.910000	1250.210497
21.920000	1266.821845
21.930000	1227.867073
21.940000	1100.372136
21.950000	925.010300
21.960000	786.995901
21.970000	701.245013
21.980000	670.871906
21.990000	660.993433
22.000000	653.077633
22.010000	640.726733
22.020000	613.891619
22.030000	581.463741
22.040000	549.984232
22.050000	536.514782
22.060000	529.617092
22.070000	505.149508
22.080000	459.926130
22.090000	411.459750
22.100000	372.841730
22.110000	339.339782
22.120000	315.401322
22.130000	308.179389
22.140000	313.214527
22.150000	325.302487
22.160000	328.283205
22.170000	334.121753
22.180000	346.615058
22.190000	365.883219
22.200000	383.542537
22.210000	388.255569
22.220000	391.484983
22.230000	389.872904
22.240000	381.383426
22.250000	364.778136
22.260000	348.594430
22.270000	341.970731
22.280000	340.721216
22.290000	353.818508
22.300000	375.426366
22.310000	408.643190
22.320000	437.698714
22.330000	453.772638
22.340000	479.008436
22.350000	490.397050
22.360000	442.542296
22.370000	299.332567
22.380000	114.608797
22.390000	-27.697050
22.400000	-102.868486
22.410000	-124.546528
22.420000	-114.081483
22.430000	-93.779868
22.440000	-79.992721
22.450000	-73.017074
22.460000	-73.954155
22.470000	-66.922318
22.480000	-59.361019
22.490000	-67.900875
22.500000	-91.768175
22.510000	-130.595336
22.520000	-150.130412
22.530000	-168.816030
22.540000	-184.818487
22.550000	-193.076076
22.560000	-191.563141
22.570000	-186.072524
22.580000	-184.695722
22.590000	-176.732324
22.600000	-161.236744
22.610000	-141.117709
22.620000	-128.518142
22.630000	-113.490783
22.640000	-99.217309
22.650000	-86.238323
22.660000	-72.290506
22.670000	-61.719090
22.680000	-44.372306
22.690000	-23.618756
22.700000	3.849124
22.710000	21.378305
22.720000	29.736609
22.730000	47.375467
22.740000	70.848806
22.750000	98.997089
22.760000	132.918708
22.770000	165.213528
22.780000	136.798140
22.790000	23.477259
22.800000	-142.215161
22.810000	-277.837156
22.820000	-356.095168
22.830000	-372.262134
22.840000	-350.436270
22.850000	-326.434567
22.860000	-309.419439
22.870000	-309.658648
22.880000	-311.045450
22.890000	-314.979426
22.900000	-330.741722
22.910000	-365.008327
22.920000	-414.459144
22.930000	-466.393394
22.940000	-513.239241
22.950000	-557.187182
22.960000	-596.055890
22.970000	-624.688004
22.980000	-628.896257
22.990000	-611.951937
23.000000	-588.482946
23.010000	-575.938717
23.020000	-571.395404
23.030000	-560.943677
23.040000	-542.388345
23.050000	-518.343439
23.060000	-494.772026
23.070000	-468.432741
23.080000	-445.897422
23.090000	-426.884588
23.100000	-412.073427
23.110000	-396.034227
23.120000	-382.321943
23.130000	-365.874628
23.140000	-345.294879
23.150000	-322.438240
23.160000	-293.633499
23.170000	-260.062632
23.180000	-254.773676
23.190000	-328.115156
23.200000	-470.128743
23.210000	-619.406810
23.220000	-730.240610
23.230000	-791.841294
23.240000	-813.120074
23.250000	-814.019464
23.260000	-807.694175
23.270000	-801.227460
23.280000	-798.639581
23.290000	-788.773366
23.300000	-771.661858
23.310000	-749.370859
23.320000	-744.787188
23.330000	-771.655635
23.340000	-805.854093
23.350000	-839.363399
23.360000	-855.275188
23.370000	-857.841059
23.380000	-846.728637
23.390000	-835.735635
23.400000	-823.184178
23.410000	-807.341140
23.420000	-787.687281
23.430000	-762.320214
23.440000	-729.568188
23.450000	-693.692553
23.460000	-656.485742
23.470000	-620.777625
23.480000	-582.092901
23.490000	-544.595875
23.500000	-511.072163
23.510000	-477.103335
23.520000	-444.443812
23.530000	-409.304100
23.540000	-376.213271
23.550000	-335.173020
23.560000	-294.741510
23.570000	-262.413254
23.580000	-224.585793
23.590000	-192.762850
23.600000	-214.903694
23.610000	-319.766281
23.620000	-467.740134
23.630000	-577.360820
23.640000	-631.124720
23.650000	-634.724617
23.660000	-606.917139
23.670000	-560.443576
23.680000	-510.755080
23.690000	-468.186289
23.700000	-438.952569
23.710000	-412.587096
23.720000	-375.177558
23.730000	-339.096774
23.740000	-316.103915
23.750000	-317.975930
23.760000	-325.313781
23.770000	-326.578848
23.780000	-309.557000
23.790000	-275.921484
23.800000	-238.866469
23.810000	-203.275598
23.820000	-167.191146
23.830000	-129.331928
23.840000	-87.881068
23.850000	-50.781472
23.860000	-11.564170
23.870000	22.030839
23.880000	54.086390
23.890000	84.466396
23.900000	115.044282
23.910000	151.882248
23.920000	187.266770
23.930000	226.636966
23.940000	257.743726
23.950000	282.734582
23.960000	301.518195
23.970000	333.857362
23.980000	380.879081
23.990000	435.261506
24.000000	483.193679
24.010000	535.037205
24.020000	548.001079
24.030000	483.797686
24.040000	350.909638
24.050000	216.024348
24.060000	139.106330
24.070000	110.366304
24.080000	121.280319
24.090000	162.346339
24.100000	214.402149
24.110000	253.287293
24.120000	272.547532
24.130000	290.939351
24.140000	329.340873
24.150000	374.807580
24.160000	410.098414
24.170000	421.996460
24.180000	426.245360
24.190000	430.807423
24.200000	444.705598
24.210000	464.227376
24.220000	499.180525
24.230000	535.559728
24.240000	571.333054
24.250000	601.528966
24.260000	635.503468
24.270000	675.457321
24.280000	713.291262
24.290000	753.733473
24.300000	795.374989
24.310000	833.981541
24.320000	871.789714
24.330000	907.199173
24.340000	945.537106
24.350000	986.715774
24.360000	1023.244869
24.370000	1067.601439
24.380000	1107.198196
24.390000	1150.860497
24.400000	1200.447139
24.410000	1244.397611
24.420000	1274.019026
24.430000	1306.320532
24.440000	1360.913415
24.450000	1394.720093
24.460000	1334.039303
24.470000	1192.007219
24.480000	1040.642751
24.490000	948.935290
24.500000	914.031567
24.510000	920.143944
24.520000	943.715231
24.530000	966.349700
24.540000	989.436228
24.550000	992.144150
24.560000	997.928636
24.570000	1010.200038
24.580000	1030.398836
24.590000	1033.834059
24.600000	1009.556714
24.610000	976.199287
24.620000	942.671197
24.630000	919.552425
24.640000	907.073916
24.650000	906.892806
24.660000	913.774358
24.670000	925.558272
24.680000	931.768585
24.690000	934.240818
24.700000	936.751378
24.710000	942.237595
24.720000	946.029772
24.730000	953.244364
24.740000	967.955031
24.750000	979.527072
24.760000	985.552489
24.770000	987.804130
24.780000	992.478221
24.790000	999.713927
24.800000	1005.374828
24.810000	1014.297560
24.820000	1031.253680
24.830000	1050.835550
24.840000	1066.110545
24.850000	1089.742779
24.860000	1118.906820
24.870000	1096.816954
24.880000	993.090626
24.890000	840.379123
24.900000	712.702768
24.910000	631.444605
24.920000	589.885445
24.930000	585.836748
24.940000	597.996336
24.950000	611.894858
24.960000	611.416390
24.970000	605.000579
24.980000	599.812922
24.990000	608.100040
25.000000	608.764126
25.010000	594.550244
25.020000	559.030118
25.030000	530.407878
25.040000	508.530324
25.050000	494.246817
25.060000	488.342019
25.070000	485.045863
25.080000	494.842911
25.090000	510.106158
25.100000	529.672318
25.110000	538.104444
25.120000	541.203683
25.130000	541.069281
25.140000	552.078577
25.150000	566.282356
25.160000	580.943765
25.170000	591.800298
25.180000	596.121961
25.190000	602.324057
25.200000	611.254314
25.210000	629.170681
25.220000	650.996602
25.230000	668.315590
25.240000	683.408784
25.250000	703.113239
25.260000	722.094141
25.270000	732.877995
25.280000	760.842410
25.290000	785.489132
25.300000	740.770985
25.310000	596.503870
25.320000	403.894559
25.330000	251.926831
25.340000	157.123254
25.350000	104.567258
25.360000	79.990554
25.370000	66.837899
25.380000	53.507624
25.390000	38.772871
25.400000	19.655389
25.410000	4.373772
25.420000	6.786824
25.430000	10.860415
25.440000	3.560681
25.450000	-27.350237
25.460000	-65.286108
25.470000	-91.254424
25.480000	-105.887272
25.490000	-109.525283
25.500000	-97.843423
25.510000	-82.207369
25.520000	-56.787472
25.530000	-38.654474
25.540000	-19.363892
25.550000	-0.498563
25.560000	17.359334
25.570000	48.327626
25.580000	87.660326
25.590000	130.115034
25.600000	160.563085
25.610000	176.565891
25.620000	166.401947
25.630000	127.336031
25.640000	67.230855
25.650000	-9.943915
25.660000	-148.445755
25.670000	-378.558874
25.680000	-664.314119
25.690000	-857.238888
25.700000	-906.825935
25.710000	-826.469119
25.720000	-684.530419
25.730000	-530.021545
25.740000	-371.833694
25.750000	-246.693046
25.760000	-100.597371
25.770000	89.507225
25.780000	299.800016
25.790000	474.241848
25.800000	577.209355
25.810000	602.011513
25.820000	554.608715
25.830000	424.022958
25.840000	285.532978
25.850000	180.896680
25.860000	133.360428
25.870000	103.217877
25.880000	52.479319
25.890000	-10.714485
25.900000	-79.118161
25.910000	-110.264339
25.920000	-119.923483
25.930000	-116.174609
25.940000	-115.132736
25.950000	-87.676145
25.960000	-2.384840
25.970000	119.628554
25.980000	234.584334
25.990000	287.853339
26.000000	276.645455
26.010000	206.049009
26.020000	102.380474
26.030000	15.257283
26.040000	7.767439
26.050000	79.238390
26.060000	166.931567
26.070000	226.550791
26.080000	259.501535
26.090000	288.200892
26.100000	291.899270
26.110000	278.542473
26.120000	283.651744
26.130000	317.426507
26.140000	283.723808
26.150000	128.036228
26.160000	-92.285908
26.170000	-267.934023
26.180000	-368.903124
26.190000	-434.484628
26.200000	-484.858212
26.210000	-519.702960
26.220000	-546.893509
26.230000	-580.329201
26.240000	-614.266546
26.250000	-639.337502
26.260000	-645.697274
26.270000	-653.153228
26.280000	-673.164703
26.290000	-696.304860
26.300000	-720.044653
26.310000	-739.176344
26.320000	-762.356855
26.330000	-778.387756
26.340000	-781.411808
26.350000	-779.031166
26.360000	-766.494808
26.370000	-753.777268
26.380000	-731.921659
26.390000	-707.963404
26.400000	-679.719559
26.410000	-648.221658
26.420000	-617.923730
26.430000	-588.864901
26.440000	-568.211500
26.450000	-545.524049
26.460000	-519.589103
26.470000	-477.549272
26.480000	-438.118368
26.490000	-404.263084
26.500000	-362.668306
26.510000	-330.793697
26.520000	-362.383728
26.530000	-477.965781
26.540000	-611.928812
26.550000	-708.564854
26.560000	-754.991512
26.570000	-769.650153
26.580000	-749.395314
26.590000	-714.199531
26.600000	-680.523574
26.610000	-656.794463
26.620000	-635.342087
26.630000	-600.769479
26.640000	-561.627851
26.650000	-535.170036
26.660000	-538.648753
26.670000	-551.869706
26.680000	-557.078475
26.690000	-556.025217
26.700000	-548.906348
26.710000	-534.579616
26.720000	-510.132065
26.730000	-489.583366
26.740000	-466.705148
26.750000	-437.997721
26.760000	-403.023214
26.770000	-367.833267
26.780000	-332.728974
26.790000	-290.719060
26.800000	-247.205837
26.810000	-205.670086
26.820000	-173.096281
26.830000	-149.004684
26.840000	-124.033180
26.850000	-90.080372
26.860000	-63.775741
26.870000	-43.176229
26.880000	-9.543461
26.890000	5.518248
26.900000	-59.798974
26.910000	-201.344392
26.920000	-344.933852
26.930000	-423.966350
26.940000	-456.707086
26.950000	-455.310225
26.960000	-429.545905
26.970000	-395.410097
26.980000	-363.442065
26.990000	-344.249245
27.000000	-322.339050
27.010000	-292.856876
27.020000	-272.701802
27.030000	-266.837828
27.040000	-283.813918
27.050000	-304.816559
27.060000	-323.366253
27.070000	-334.205065
27.080000	-331.323018
27.090000	-320.031233
27.100000	-293.653497
27.110000	-265.652756
27.120000	-234.683411
27.130000	-214.723205
27.140000	-195.720897
27.150000	-177.895493
27.160000	-160.161827
27.170000	-137.129708
27.180000	-112.033588
27.190000	-83.759180
27.200000	-62.343233
27.210000	-41.751826
27.220000	-19.403060
27.230000	8.183909
27.240000	28.418828
27.250000	54.115219
27.260000	96.829678
27.270000	108.809323
27.280000	39.826034
27.290000	-106.757132
27.300000	-256.389896
27.310000	-352.447350
27.320000	-395.504181
27.330000	-399.582474
27.340000	-375.684863
27.350000	-335.126530
27.360000	-295.958833
27.370000	-263.376773
27.380000	-230.942394
27.390000	-194.040271
27.400000	-163.710576
27.410000	-161.474214
27.420000	-178.136089
27.430000	-204.984549
27.440000	-224.612819
27.450000	-235.279710
27.460000	-231.153478
27.470000	-216.678289
27.480000	-191.422636
27.490000	-167.854214
27.500000	-145.397916
27.510000	-122.101661
27.520000	-98.789481
27.530000	-73.416579
27.540000	-54.284838
27.550000	-33.763132
27.560000	-15.219154
27.570000	5.167955
27.580000	33.443849
27.590000	67.668295
27.600000	93.998660
27.610000	126.168854
27.620000	168.451942
27.630000	178.131454
27.640000	99.794765
27.650000	-50.451793
27.660000	-190.757476
27.670000	-279.220424
27.680000	-318.173565
27.690000	-322.766634
27.700000	-297.302261
27.710000	-262.433505
27.720000	-234.160614
27.730000	-207.785981
27.740000	-173.748078
27.750000	-129.232806
27.760000	-104.167965
27.770000	-103.018869
27.780000	-124.314062
27.790000	-149.166291
27.800000	-178.590691
27.810000	-199.684696
27.820000	-208.300582
27.830000	-198.273450
27.840000	-181.469224
27.850000	-163.587833
27.860000	-154.391590
27.870000	-145.929466
27.880000	-129.721738
27.890000	-110.717215
27.900000	-90.117493
27.910000	-74.261638
27.920000	-54.882358
27.930000	-32.238702
27.940000	-13.074252
27.950000	4.064199
27.960000	25.671827
27.970000	50.269327
27.980000	66.648651
27.990000	96.488919
28.000000	108.738120
28.010000	54.249625
28.020000	-85.831730
28.030000	-253.186884
28.040000	-360.731753
28.050000	-420.638517
28.060000	-439.692818
28.070000	-437.868868
28.080000	-420.690012
28.090000	-402.198425
28.100000	-394.424139
28.110000	-391.554753
28.120000	-380.547497
28.130000	-371.049132
28.140000	-374.417931
28.150000	-398.275597
28.160000	-428.972259
28.170000	-455.585172
28.180000	-474.622583
28.190000	-485.311095
28.200000	-485.344205
28.210000	-480.467934
28.220000	-474.803451
28.230000	-469.692510
28.240000	-472.019906
28.250000	-469.272405
28.260000	-464.353913
28.270000	-452.573253
28.280000	-435.112467
28.290000	-425.650106
28.300000	-411.874584
28.310000	-402.192070
28.320000	-387.663861
28.330000	-377.191089
28.340000	-362.146305
28.350000	-340.616443
28.360000	-335.772120
28.370000	-313.960117
28.380000	-313.001880
28.390000	-370.042810
28.400000	-516.623697
28.410000	-691.945909
28.420000	-813.927648
28.430000	-887.495137
28.440000	-915.967570
28.450000	-923.508557
28.460000	-917.702114
28.470000	-918.963924
28.480000	-928.122771
28.490000	-941.145716
28.500000	-940.245290
28.510000	-939.153575
28.520000	-948.431779
28.530000	-980.238343
28.540000	-1016.942143
28.550000	-1050.087173
28.560000	-1078.878903
28.570000	-1101.337921
28.580000	-1118.896688
28.590000	-1128.982461
28.600000	-1140.684429
28.610000	-1145.650149
28.620000	-1150.250112
28.630000	-1148.019868
28.640000	-1145.254562
28.650000	-1137.764275
28.660000	-1131.690632
28.670000	-1122.549157
28.680000	-1119.232848
28.690000	-1111.684463
28.700000	-1104.216732
28.710000	-1097.879397
28.720000	-1084.911390
28.730000	-1055.469960
28.740000	-1013.377962
28.750000	-986.527374
28.760000	-955.448216
28.770000	-949.117966
28.780000	-1010.623678
28.790000	-1155.365304
28.800000	-1327.669720
28.810000	-1455.299258
28.820000	-1532.964736
28.830000	-1563.319762
28.840000	-1559.018252
28.850000	-1541.428192
28.860000	-1527.456454
28.870000	-1527.247924
28.880000	-1532.573660
28.890000	-1520.757028
28.900000	-1511.535989
28.910000	-1515.970492
28.920000	-1554.919650
28.930000	-1595.430120
28.940000	-1628.094817
28.950000	-1647.627427
28.960000	-1643.982792
28.970000	-1624.598138
28.980000	-1586.232990
28.990000	-1546.015830
29.000000	-1510.177104
29.010000	-1495.853458
29.020000	-1492.100195
29.030000	-1481.729493
29.040000	-1448.413974
29.050000	-1382.010266
29.060000	-1279.133490
29.070000	-1140.020906
29.080000	-986.297739
29.090000	-831.060171
29.100000	-684.505463
29.110000	-526.734260
29.120000	-341.774169
29.130000	-146.882519
29.140000	59.292632
29.150000	270.566885
29.160000	476.299522
29.170000	590.094516
29.180000	604.811019
29.190000	563.380564
29.200000	563.427584
29.210000	617.053856
29.220000	696.891832
29.230000	781.700681
29.240000	849.979349
29.250000	919.078804
29.260000	958.895051
29.270000	1000.918555
29.280000	1045.351195
29.290000	1104.752545
29.300000	1149.652778
29.310000	1167.260457
29.320000	1178.007624
29.330000	1193.373015
29.340000	1222.318679
29.350000	1245.705390
29.360000	1256.293285
29.370000	1251.013952
29.380000	1234.922120
29.390000	1207.940851
29.400000	1148.792328
29.410000	1031.488245
29.420000	851.689253
29.430000	613.693771
29.440000	331.581261
29.450000	32.904994
29.460000	-234.167621
29.470000	-449.323996
29.480000	-632.724240
29.490000	-782.521985
29.500000	-840.154052
29.510000	-833.318728
29.520000	-811.003689
29.530000	-797.408256
29.540000	-783.455645
29.550000	-796.958992
29.560000	-914.400662
29.570000	-1099.224811
29.580000	-1262.226116
29.590000	-1381.032053
29.600000	-1496.582802
29.610000	-1613.429492
29.620000	-1667.106199
29.630000	-1606.218557
29.640000	-1461.209536
29.650000	-1269.381062
29.660000	-1056.301336
29.670000	-818.818122
29.680000	-596.864318
29.690000	-416.569515
29.700000	-290.073850
29.710000	-198.252737
29.720000	-105.923030
29.730000	5.000609
29.740000	140.177804
29.750000	230.700573
29.760000	222.972732
29.770000	131.908025
29.780000	23.561392
29.790000	-67.985125
29.800000	-78.780085
29.810000	68.814420
29.820000	311.146089
29.830000	476.974793
29.840000	480.630894
29.850000	388.543799
29.860000	254.739786
29.870000	42.522385
29.880000	-234.687644
29.890000	-520.053155
29.900000	-772.497801
29.910000	-995.757278
29.920000	-1175.262581
29.930000	-1271.396892
29.940000	-1305.866125
29.950000	-1347.502322
29.960000	-1453.774210
29.970000	-1599.382202
29.980000	-1744.643922
29.990000	-1867.978941
30.000000	-1953.529159
30.010000	-1996.605486
30.020000	-1989.070030
30.030000	-1941.614821
30.040000	-1835.527165
30.050000	-1698.748597
30.060000	-1558.979201
30.070000	-1469.280178
30.080000	-1472.396959
30.090000	-1553.981567
30.100000	-1670.059187
30.110000	-1710.492957
30.120000	-1687.381398
30.130000	-1619.345708
30.140000	-1561.125439
30.150000	-1519.053975
30.160000	-1501.195194
30.170000	-1509.732870
30.180000	-1516.166592
30.190000	-1506.436479
30.200000	-1482.833742
30.210000	-1453.806955
30.220000	-1418.123360
30.230000	-1381.511370
30.240000	-1359.085998
30.250000	-1359.511051
30.260000	-1383.338408
30.270000	-1405.083665
30.280000	-1417.952314
30.290000	-1426.329523
30.300000	-1421.170907
30.310000	-1410.930706
30.320000	-1430.769129
30.330000	-1543.580016
30.340000	-1725.098916
30.350000	-1894.711163
30.360000	-1999.473626
30.370000	-2046.642206
30.380000	-2059.525938
30.390000	-2054.854301
30.400000	-2037.176185
30.410000	-2024.400065
30.420000	-2021.419901
30.430000	-2030.232647
30.440000	-2029.560012
30.450000	-2030.780782
30.460000	-2039.976957
30.470000	-2056.935183
30.480000	-2061.628536
30.490000	-2047.079966
30.500000	-2030.299341
30.510000	-2014.472249
30.520000	-1998.241919
30.530000	-1979.478758
30.540000	-1959.809919
30.550000	-1944.442278
30.560000	-1932.306589
30.570000	-1913.659934
30.580000	-1882.757571
30.590000	-1825.797484
30.600000	-1753.884333
30.610000	-1673.862707
30.620000	-1600.637933
30.630000	-1532.485603
30.640000	-1452.953065
30.650000	-1378.800330
30.660000	-1325.864891
30.670000	-1287.985807
30.680000	-1268.733214
30.690000	-1293.158645
30.700000	-1399.564877
30.710000	-1538.014644
30.720000	-1633.251083
30.730000	-1664.609896
30.740000	-1649.964327
30.750000	-1616.149493
30.760000	-1577.561666
30.770000	-1546.934634
30.780000	-1532.060718
30.790000	-1522.249461
30.800000	-1495.106563
30.810000	-1467.248852
30.820000	-1447.373209
30.830000	-1448.166883
30.840000	-1446.113216
30.850000	-1430.691850
30.860000	-1404.124560
30.870000	-1375.136108
30.880000	-1352.703107
30.890000	-1333.110425
30.900000	-1316.522292
30.910000	-1293.620402
30.920000	-1273.953383
30.930000	-1245.964204
30.940000	-1215.656194
30.950000	-1178.835178
30.960000	-1143.613001
30.970000	-1112.241928
30.980000	-1082.106644
30.990000	-1051.533130
31.000000	-1015.805451
31.010000	-984.742752
31.020000	-961.362381
31.030000	-948.159378
31.040000	-939.102627
31.050000	-932.459498
31.060000	-933.732716
31.070000	-947.959922
31.080000	-958.837373
31.090000	-994.112784
31.100000	-1099.186890
31.110000	-1270.325320
31.120000	-1434.539067
31.130000	-1526.082195
31.140000	-1558.632062
31.150000	-1561.402642
31.160000	-1543.522335
31.170000	-1511.232474
31.180000	-1474.271056
31.190000	-1449.930082
31.200000	-1423.109346
31.210000	-1389.500700
31.220000	-1358.827700
31.230000	-1351.607303
31.240000	-1364.652094
31.250000	-1373.825645
31.260000	-1367.010230
31.270000	-1347.919648
31.280000	-1317.858702
31.290000	-1283.857758
31.300000	-1250.192744
31.310000	-1210.257195
31.320000	-1171.721956
31.330000	-1135.124393
31.340000	-1105.415366
31.350000	-1073.436298
31.360000	-1041.622120
31.370000	-1014.232753
31.380000	-986.281044
31.390000	-955.846553
31.400000	-923.754446
31.410000	-891.266500
31.420000	-855.018094
31.430000	-820.177501
31.440000	-791.746895
31.450000	-758.507546
31.460000	-726.986014
31.470000	-699.953501
31.480000	-669.653748
31.490000	-615.486341
31.500000	-595.658059
31.510000	-668.470863
31.520000	-809.217086
31.530000	-943.766970
31.540000	-1024.627882
31.550000	-1065.340593
31.560000	-1065.775617
31.570000	-1033.708343
31.580000	-998.419423
31.590000	-973.133584
31.600000	-958.795669
31.610000	-933.927978
31.620000	-903.673669
31.630000	-882.507865
31.640000	-886.981785
31.650000	-916.797103
31.660000	-953.994901
31.670000	-984.849343
31.680000	-992.749331
31.690000	-981.036815
31.700000	-957.594514
31.710000	-933.308664
31.720000	-905.476341
31.730000	-882.014818
31.740000	-860.064866
31.750000	-839.128241
31.760000	-809.359654
31.770000	-775.678630
31.780000	-745.388543
31.790000	-717.598534
31.800000	-691.139819
31.810000	-661.897957
31.820000	-628.617677
31.830000	-594.593055
31.840000	-558.463711
31.850000	-519.000580
31.860000	-484.044493
31.870000	-461.783330
31.880000	-427.573806
31.890000	-398.383500
31.900000	-436.595412
31.910000	-578.276704
31.920000	-760.374511
31.930000	-898.472047
31.940000	-974.026433
31.950000	-1002.450288
31.960000	-993.349781
31.970000	-966.474827
31.980000	-943.026610
31.990000	-930.475534
32.000000	-925.685900
32.010000	-912.115383
32.020000	-894.410386
32.030000	-880.435432
32.040000	-891.507537
32.050000	-918.672404
32.060000	-947.253381
32.070000	-966.248218
32.080000	-974.018026
32.090000	-973.159743
32.100000	-968.777956
32.110000	-961.712267
32.120000	-952.186551
32.130000	-937.571615
32.140000	-919.251792
32.150000	-901.415245
32.160000	-877.929554
32.170000	-857.605062
32.180000	-834.870571
32.190000	-816.462373
32.200000	-801.087486
32.210000	-788.952680
32.220000	-778.592941
32.230000	-754.695665
32.240000	-726.788243
32.250000	-688.681344
32.260000	-647.637250
32.270000	-621.978389
32.280000	-596.673196
32.290000	-565.241690
32.300000	-577.804919
32.310000	-698.147050
32.320000	-923.021277
32.330000	-1174.112508
32.340000	-1385.869840
32.350000	-1539.801894
32.360000	-1634.691377
32.370000	-1690.472415
32.380000	-1730.442697
32.390000	-1753.661067
32.400000	-1775.821894
32.410000	-1805.075324
32.420000	-1837.077228
32.430000	-1882.104307
32.440000	-1942.549585
32.450000	-2024.713458
32.460000	-2095.146282
32.470000	-2137.935029
32.480000	-2137.639255
32.490000	-2103.115690
32.500000	-2052.714690
32.510000	-2020.894329
32.520000	-2035.991054
32.530000	-2105.163203
32.540000	-2144.897429
32.550000	-2038.216513
32.560000	-1767.283067
32.570000	-1418.761085
32.580000	-1124.661423
32.590000	-940.627998
32.600000	-840.678249
32.610000	-751.558307
32.620000	-604.898951
32.630000	-412.897583
32.640000	-205.352898
32.650000	-3.395166
32.660000	145.942681
32.670000	220.331894
32.680000	230.822853
32.690000	260.418948
32.700000	286.578294
32.710000	248.569052
32.720000	127.619708
32.730000	-10.207666
32.740000	-99.497698
32.750000	-121.600424
32.760000	-91.525700
32.770000	-43.862325
32.780000	-19.717526
32.790000	-41.549476
32.800000	-108.987005
32.810000	-213.685634
32.820000	-328.673444
32.830000	-427.956483
32.840000	-513.566078
32.850000	-582.005248
32.860000	-630.918825
32.870000	-670.208528
32.880000	-706.714550
32.890000	-746.524996
32.900000	-778.909864
32.910000	-812.002914
32.920000	-836.163185
32.930000	-851.946179
32.940000	-869.544159
32.950000	-887.622807
32.960000	-883.963293
32.970000	-857.784330
32.980000	-821.842780
32.990000	-793.044234
33.000000	-771.760989
33.010000	-747.355169
33.020000	-722.794973
33.030000	-684.696727
33.040000	-648.982106
33.050000	-619.407986
33.060000	-576.839928
33.070000	-551.318315
33.080000	-596.824622
33.090000	-741.215109
33.100000	-918.941428
33.110000	-1050.124963
33.120000	-1119.953119
33.130000	-1135.474790
33.140000	-1121.724552
33.150000	-1084.813391
33.160000	-1043.568728
33.170000	-998.135555
33.180000	-950.449750
33.190000	-901.149797
33.200000	-851.692368
33.210000	-811.876668
33.220000	-781.594518
33.230000	-757.612054
33.240000	-732.499261
33.250000	-714.067098
33.260000	-705.399161
33.270000	-719.220435
33.280000	-753.594268
33.290000	-811.720349
33.300000	-889.097686
33.310000	-952.467727
33.320000	-970.931011
33.330000	-967.684085
33.340000	-997.501772
33.350000	-1079.784286
33.360000	-1181.573353
33.370000	-1278.549790
33.380000	-1358.984699
33.390000	-1422.314750
33.400000	-1476.050605
33.410000	-1502.974429
33.420000	-1509.139976
33.430000	-1529.001897
33.440000	-1606.876444
33.450000	-1722.134548
33.460000	-1816.790743
33.470000	-1861.623499
33.480000	-1865.751163
33.490000	-1839.052195
33.500000	-1786.967216
33.510000	-1724.104045
33.520000	-1657.757966
33.530000	-1583.047361
33.540000	-1480.764398
33.550000	-1371.351385
33.560000	-1288.388819
33.570000	-1238.493344
33.580000	-1194.495855
33.590000	-1135.892425
33.600000	-1060.555575
33.610000	-968.529742
33.620000	-859.844242
33.630000	-751.104954
33.640000	-642.309698
33.650000	-548.607549
33.660000	-463.598433
33.670000	-388.008875
33.680000	-309.059248
33.690000	-217.960354
33.700000	-117.420853
33.710000	-15.458973
33.720000	81.693213
33.730000	176.540491
33.740000	263.261820
33.750000	345.045431
33.760000	420.301355
33.770000	471.326819
33.780000	457.435116
33.790000	379.549827
33.800000	306.920519
33.810000	295.570462
33.820000	319.350824
33.830000	359.451821
33.840000	402.974566
33.850000	457.904376
33.860000	503.703769
33.870000	534.584536
33.880000	565.346573
33.890000	593.744893
33.900000	607.826345
33.910000	607.805584
33.920000	588.494805
33.930000	569.140187
33.940000	551.993329
33.950000	540.691939
33.960000	529.683218
33.970000	524.493990
33.980000	524.245304
33.990000	542.228006
34.000000	573.654034
34.010000	668.010638
34.020000	849.897196
34.030000	1122.640875
34.040000	1383.424758
34.050000	1549.238007
34.060000	1621.098832
34.070000	1672.954378
34.080000	1693.795039
34.090000	1627.137856
34.100000	1475.916293
34.110000	1299.073532
34.120000	1133.578722
34.130000	893.609972
34.140000	547.330593
34.150000	179.744967
34.160000	-29.710727
34.170000	126.908843
34.180000	525.957589
34.190000	1151.324913
34.200000	1940.458317
34.210000	2955.045309
34.220000	3990.527319
34.230000	4796.943648
34.240000	5227.518788
34.250000	5385.504158
34.260000	5345.409803
34.270000	5204.776076
34.280000	4783.857019
34.290000	3876.494793
34.300000	2786.554825
34.310000	2154.682147
34.320000	2149.144046
34.330000	2126.504237
34.340000	2058.090106
34.350000	2058.056430
34.360000	2001.052286
34.370000	1898.327191
34.380000	1728.270365
34.390000	1608.997295
34.400000	1484.027217
34.410000	1398.634590
34.420000	1323.937495
34.430000	1301.157576
34.440000	1285.975343
34.450000	1289.531431
34.460000	1293.633857
34.470000	1316.709773
34.480000	1325.523723
34.490000	1346.093433
34.500000	1364.682964
34.510000	1391.590980
34.520000	1407.477980
34.530000	1414.534134
34.540000	1406.973517
34.550000	1402.600453
34.560000	1399.141550
34.570000	1415.789299
34.580000	1421.237038
34.590000	1422.485422
34.600000	1429.411724
34.610000	1490.026805
34.620000	1597.177973
34.630000	1791.110652
34.640000	2076.260680
34.650000	2421.179939
34.660000	2726.576891
34.670000	2907.377280
34.680000	2948.510191
34.690000	2832.996663
34.700000	2611.057791
34.710000	2402.572861
34.720000	2338.737712
34.730000	2441.619632
34.740000	2636.257152
34.750000	2812.344373
34.760000	2932.086478
34.770000	2979.575624
34.780000	2989.503492
34.790000	2981.215737
34.800000	2959.667604
34.810000	2923.627741
34.820000	2823.824229
34.830000	2659.633377
34.840000	2460.859983
34.850000	2290.862248
34.860000	2197.319256
34.870000	2167.727897
34.880000	2180.557951
34.890000	2220.416748
34.900000	2266.590490
34.910000	2321.646768
34.920000	2368.047119
34.930000	2405.071031
34.940000	2442.683205
34.950000	2472.931572
34.960000	2504.184967
34.970000	2538.597908
34.980000	2573.832584
34.990000	2611.769338
35.000000	2653.974815
35.010000	2693.080319
35.020000	2713.928347
35.030000	2716.266850
35.040000	2720.441631
35.050000	2718.547517
35.060000	2655.331801
35.070000	2535.501649
35.080000	2416.878468
35.090000	2349.613812
35.100000	2336.810143
35.110000	2337.788411
35.120000	2338.332289
35.130000	2343.535592
35.140000	2360.046659
35.150000	2411.519162
35.160000	2466.133396
35.170000	2503.727845
35.180000	2513.106198
35.190000	2511.210255
35.200000	2528.982215
35.210000	2565.805718
35.220000	2619.388315
35.230000	2688.941602
35.240000	2761.298293
35.250000	2831.305617
35.260000	2888.401088
35.270000	2934.580001
35.280000	2972.382779
35.290000	3006.739852
35.300000	3056.282487
35.310000	3111.036322
35.320000	3167.082126
35.330000	3224.562008
35.340000	3298.141124
35.350000	3392.614778
35.360000	3495.374549
35.370000	3590.548829
35.380000	3686.566287
35.390000	3775.664618
35.400000	3853.327766
35.410000	3922.696856
35.420000	3983.309334
35.430000	4001.535866
35.440000	3938.508904
35.450000	3836.497943
35.460000	3779.725056
35.470000	3781.835313
35.480000	3792.669526
35.490000	3784.806428
35.500000	3809.067901
35.510000	3883.260221
35.520000	3940.140367
35.530000	3931.006930
35.540000	3890.350933
35.550000	3963.635627
35.560000	4229.957309
35.570000	4579.658197
35.580000	4841.307169
35.590000	4863.984407
35.600000	4693.445311
35.610000	4486.531252
35.620000	4424.901212
35.630000	4538.912838
35.640000	4753.318040
35.650000	4951.432246
35.660000	5044.062625
35.670000	4977.969909
35.680000	4755.212489
35.690000	4399.153349
35.700000	3993.783300
35.710000	3801.414796
35.720000	3893.418350
35.730000	4120.659701
35.740000	4240.051501
35.750000	4158.239043
35.760000	3939.708368
35.770000	3650.078673
35.780000	3414.786995
35.790000	3358.173024
35.800000	3445.687200
35.810000	3656.563432
35.820000	3867.230108
35.830000	3824.857401
35.840000	3455.857385
35.850000	2920.051312
35.860000	2425.542917
35.870000	2032.765367
35.880000	1785.775941
35.890000	1109.520510
