Time(s)	RED_denoised_median
0.000000	399.328059
0.010000	415.108505
0.020000	416.666084
0.030000	417.644504
0.040000	450.918513
0.050000	483.503117
0.060000	483.503117
0.070000	483.503117
0.080000	483.503117
0.090000	483.503117
0.100000	561.859124
0.110000	596.339429
0.120000	596.339429
0.130000	596.339429
0.140000	585.482844
0.150000	574.406661
0.160000	567.820576
0.170000	528.833265
0.180000	469.081206
0.190000	417.205075
0.200000	379.729495
0.210000	329.500559
0.220000	302.567326
0.230000	272.640546
0.240000	223.448158
0.250000	199.964007
0.260000	183.168250
0.270000	163.327762
0.280000	138.925458
0.290000	112.717565
0.300000	80.678111
0.310000	33.105613
0.320000	14.593480
0.330000	-25.755261
0.340000	-82.322819
0.350000	-105.482393
0.360000	-110.136224
0.370000	-110.136224
0.380000	-110.136224
0.390000	-108.610310
0.400000	-90.860671
0.410000	-81.086965
0.420000	-69.643704
0.430000	-69.643704
0.440000	-69.643704
0.450000	-74.790124
0.460000	-75.425893
0.470000	-85.440296
0.480000	-86.352177
0.490000	-86.352177
0.500000	-86.352177
0.510000	-74.656935
0.520000	-53.315805
0.530000	-41.820680
0.540000	-37.027081
0.550000	-32.712017
0.560000	-4.571857
0.570000	-4.571857
0.580000	-4.571857
0.590000	-7.419897
0.600000	-291.986813
0.610000	-308.761346
0.620000	-308.761346
0.630000	-308.761346
0.640000	-304.593533
0.650000	-308.761346
0.660000	-312.520868
0.670000	-326.926092
0.680000	-329.427579
0.690000	-352.131928
0.700000	-357.174230
0.710000	-365.082353
0.720000	-534.071621
0.730000	-598.094417
0.740000	-598.094417
0.750000	-598.094417
0.760000	-472.868579
0.770000	-455.690367
0.780000	-420.372972
0.790000	-388.689755
0.800000	-361.818036
0.810000	-341.357354
0.820000	-339.458548
0.830000	-336.262891
0.840000	-339.458548
0.850000	-339.458548
0.860000	-355.663997
0.870000	-402.066772
0.880000	-427.152890
0.890000	-469.107034
0.900000	-501.463171
0.910000	-511.183294
0.920000	-518.865107
0.930000	-534.229103
0.940000	-534.229103
0.950000	-534.229103
0.960000	-526.511125
0.970000	-517.801641
0.980000	-515.526970
0.990000	-510.487294
1.000000	-510.200956
1.010000	-500.545712
1.020000	-498.637605
1.030000	-495.143786
1.040000	-492.499165
1.050000	-482.351360
1.060000	-469.760562
1.070000	-443.122695
1.080000	-429.492111
1.090000	-393.724631
1.100000	-273.483190
1.110000	-270.287915
1.120000	-256.996180
1.130000	-256.996180
1.140000	-256.318482
1.150000	-205.052587
1.160000	-204.991819
1.170000	-189.316451
1.180000	-165.194791
1.190000	-154.623383
1.200000	-121.239900
1.210000	-100.248886
1.220000	-97.120792
1.230000	-68.400575
1.240000	-56.582598
1.250000	-46.481801
1.260000	-23.930597
1.270000	-5.650847
1.280000	14.781920
1.290000	54.205575
1.300000	94.394924
1.310000	94.394924
1.320000	94.394924
1.330000	79.235541
1.340000	53.360515
1.350000	22.150910
1.360000	22.150910
1.370000	22.150910
1.380000	110.335869
1.390000	110.335869
1.400000	110.335869
1.410000	103.536421
1.420000	60.031044
1.430000	39.475622
1.440000	38.033464
1.450000	38.033464
1.460000	38.033464
1.470000	76.421622
1.480000	133.471562
1.490000	197.394395
1.500000	250.889680
1.510000	311.457822
1.520000	340.147733
1.530000	372.151669
1.540000	375.240009
1.550000	375.729611
1.560000	375.240009
1.570000	375.240009
1.580000	375.945681
1.590000	381.481459
1.600000	524.578427
1.610000	524.578427
1.620000	524.578427
1.630000	517.457284
1.640000	458.119880
1.650000	428.495188
1.660000	398.346784
1.670000	393.515013
1.680000	393.515013
1.690000	393.515013
1.700000	393.773935
1.710000	409.840277
1.720000	422.939729
1.730000	423.018717
1.740000	423.018717
1.750000	423.018717
1.760000	419.482699
1.770000	419.482699
1.780000	412.828086
1.790000	411.895918
1.800000	419.482699
1.810000	419.663327
1.820000	419.663327
1.830000	429.766776
1.840000	436.249855
1.850000	437.373479
1.860000	451.883168
1.870000	465.880871
1.880000	481.550820
1.890000	496.900007
1.900000	496.900007
1.910000	496.900007
1.920000	494.792144
1.930000	493.400014
1.940000	485.378059
1.950000	444.837914
1.960000	418.151059
1.970000	391.097808
1.980000	356.932791
1.990000	337.424005
2.000000	337.424005
2.010000	337.424005
2.020000	340.263070
2.030000	347.077518
2.040000	351.976721
2.050000	367.870984
2.060000	367.870984
2.070000	367.870984
2.080000	362.941339
2.090000	338.311848
2.100000	325.488374
2.110000	314.624401
2.120000	311.235246
2.130000	311.235246
2.140000	311.235246
2.150000	325.753751
2.160000	353.404601
2.170000	362.289890
2.180000	385.736640
2.190000	412.687407
2.200000	431.048860
2.210000	437.090659
2.220000	457.426926
2.230000	464.326887
2.240000	469.896377
2.250000	488.767276
2.260000	488.767276
2.270000	488.767276
2.280000	473.709746
2.290000	471.912515
2.300000	452.036900
2.310000	440.195562
2.320000	440.195562
2.330000	440.195562
2.340000	448.495131
2.350000	467.656349
2.360000	479.714778
2.370000	495.879834
2.380000	501.842250
2.390000	509.151947
2.400000	518.197184
2.410000	518.368378
2.420000	533.959648
2.430000	536.067936
2.440000	537.011819
2.450000	540.664597
2.460000	542.971881
2.470000	555.874306
2.480000	570.246127
2.490000	596.755440
2.500000	609.393604
2.510000	622.721618
2.520000	629.454340
2.530000	643.719511
2.540000	662.440364
2.550000	675.599078
2.560000	679.681727
2.570000	679.681727
2.580000	676.162612
2.590000	675.599078
2.600000	639.800773
2.610000	610.723763
2.620000	571.952147
2.630000	515.278102
2.640000	466.164692
2.650000	412.698067
2.660000	385.461835
2.670000	346.898339
2.680000	334.933345
2.690000	317.874028
2.700000	183.841836
2.710000	181.143417
2.720000	178.201357
2.730000	178.201357
2.740000	176.473369
2.750000	176.473369
2.760000	181.296388
2.770000	181.458697
2.780000	193.518359
2.790000	193.538379
2.800000	197.622004
2.810000	205.534682
2.820000	205.534682
2.830000	205.534682
2.840000	189.641846
2.850000	163.569388
2.860000	147.463394
2.870000	97.487809
2.880000	91.577814
2.890000	68.983295
2.900000	46.863749
2.910000	46.863749
2.920000	46.863749
2.930000	47.755699
2.940000	49.579605
2.950000	49.579605
2.960000	53.702581
2.970000	49.579605
2.980000	47.220454
2.990000	46.041274
3.000000	34.071789
3.010000	33.331442
3.020000	26.570836
3.030000	8.074139
3.040000	8.074139
3.050000	8.074139
3.060000	12.689001
3.070000	20.516176
3.080000	20.516176
3.090000	20.516176
3.100000	-49.847934
3.110000	-90.950696
3.120000	-104.261924
3.130000	-114.971831
3.140000	-124.664299
3.150000	-192.203962
3.160000	-234.564796
3.170000	-234.564796
3.180000	-234.564796
3.190000	-178.379717
3.200000	-128.222666
3.210000	-90.543771
3.220000	-85.976267
3.230000	-83.828824
3.240000	-83.828824
3.250000	-83.246265
3.260000	-83.246265
3.270000	-83.246265
3.280000	-71.424930
3.290000	-54.739461
3.300000	-36.271142
3.310000	-19.293892
3.320000	8.865304
3.330000	21.983271
3.340000	44.077732
3.350000	49.060371
3.360000	55.349524
3.370000	71.075082
3.380000	71.075082
3.390000	71.075082
3.400000	32.421447
3.410000	11.207481
3.420000	-9.846505
3.430000	-50.937664
3.440000	-52.739007
3.450000	-57.447366
3.460000	-57.447366
3.470000	-57.447366
3.480000	-46.121207
3.490000	-25.783031
3.500000	-15.190977
3.510000	-10.451762
3.520000	-8.724888
3.530000	-3.063132
3.540000	-2.397542
3.550000	-1.784580
3.560000	5.513688
3.570000	5.862246
3.580000	7.081891
3.590000	30.083416
3.600000	48.446777
3.610000	71.328545
3.620000	75.648934
3.630000	101.673031
3.640000	119.583545
3.650000	131.028444
3.660000	156.493964
3.670000	167.172098
3.680000	173.401050
3.690000	173.401050
3.700000	173.401050
3.710000	171.019988
3.720000	153.250881
3.730000	129.862739
3.740000	109.016841
3.750000	67.539524
3.760000	40.863420
3.770000	36.057614
3.780000	36.057614
3.790000	36.057614
3.800000	37.100614
3.810000	51.988482
3.820000	64.679000
3.830000	71.149660
3.840000	72.450071
3.850000	72.450071
3.860000	71.149660
3.870000	70.751739
3.880000	68.646618
3.890000	53.862272
3.900000	20.774799
3.910000	20.774799
3.920000	20.774799
3.930000	25.992185
3.940000	45.625030
3.950000	64.908608
3.960000	80.424126
3.970000	108.790273
3.980000	134.043489
3.990000	158.631810
4.000000	183.567756
4.010000	198.004123
4.020000	199.352870
4.030000	199.352870
4.040000	198.004123
4.050000	188.738070
4.060000	148.335265
4.070000	129.475026
4.080000	88.094621
4.090000	43.290164
4.100000	20.776403
4.110000	12.917484
4.120000	12.917484
4.130000	12.917484
4.140000	25.558782
4.150000	39.272203
4.160000	46.790799
4.170000	54.760321
4.180000	65.831830
4.190000	75.576152
4.200000	312.966399
4.210000	391.681684
4.220000	446.471878
4.230000	497.370318
4.240000	530.782703
4.250000	568.052141
4.260000	589.878651
4.270000	632.783554
4.280000	665.553107
4.290000	665.553107
4.300000	665.553107
4.310000	663.930337
4.320000	663.930337
4.330000	663.930337
4.340000	687.574905
4.350000	755.003005
4.360000	840.799000
4.370000	957.475709
4.380000	1074.796393
4.390000	1210.971657
4.400000	1398.723285
4.410000	1572.085649
4.420000	1729.716212
4.430000	1881.117411
4.440000	2116.819099
4.450000	2379.630275
4.460000	2574.704799
4.470000	2769.474476
4.480000	2997.382151
4.490000	3243.069008
4.500000	3482.920542
4.510000	3657.448047
4.520000	3791.573115
4.530000	3791.573115
4.540000	3791.573115
4.550000	3777.540199
4.560000	3751.877186
4.570000	3700.159714
4.580000	3530.245986
4.590000	2890.944576
4.600000	1429.486421
4.610000	-150.494000
4.620000	-1652.792684
4.630000	-2832.926739
4.640000	-3671.818566
4.650000	-3977.288439
4.660000	-3977.288439
4.670000	-3977.288439
4.680000	-3706.534304
4.690000	-3464.625770
4.700000	-3148.208679
4.710000	-2784.455223
4.720000	-2500.291413
4.730000	-2287.047368
4.740000	-2004.147696
4.750000	-1696.284907
4.760000	-1408.141181
4.770000	-1178.644550
4.780000	-984.101246
4.790000	-757.023141
4.800000	-538.499411
4.810000	-389.597133
4.820000	-284.800939
4.830000	-244.438841
4.840000	-220.614367
4.850000	-217.047726
4.860000	-184.193954
4.870000	-69.022609
4.880000	85.299631
4.890000	226.388456
4.900000	362.814426
4.910000	466.552174
4.920000	534.249527
4.930000	587.636691
4.940000	651.765199
4.950000	651.765199
4.960000	651.765199
4.970000	592.178600
4.980000	456.451731
4.990000	266.109159
5.000000	92.121472
5.010000	-81.351971
5.020000	-277.382562
5.030000	-522.978489
5.040000	-724.711042
5.050000	-983.294127
5.060000	-1380.143062
5.070000	-1921.560657
5.080000	-2595.683025
5.090000	-3187.427504
5.100000	-3665.887935
5.110000	-4023.518209
5.120000	-4250.246190
5.130000	-4265.271593
5.140000	-4265.271593
5.150000	-4265.271593
5.160000	-4042.593759
5.170000	-3727.623693
5.180000	-3333.727635
5.190000	-2903.218985
5.200000	-2489.054817
5.210000	-2132.947831
5.220000	-1858.497031
5.230000	-1651.738623
5.240000	-1505.122293
5.250000	-1467.623934
5.260000	-1467.623934
5.270000	-1467.623934
5.280000	-1533.645440
5.290000	-1660.343852
5.300000	-1728.548806
5.310000	-1867.397986
5.320000	-2078.268870
5.330000	-2273.375051
5.340000	-2419.306324
5.350000	-2523.632916
5.360000	-2559.909460
5.370000	-2559.909460
5.380000	-2575.079074
5.390000	-2575.079074
5.400000	-2578.599776
5.410000	-2644.191218
5.420000	-2683.326289
5.430000	-2737.203772
5.440000	-2769.007894
5.450000	-2800.546749
5.460000	-2867.898127
5.470000	-2883.195170
5.480000	-2883.211092
5.490000	-2883.211092
5.500000	-2883.195170
5.510000	-2883.211092
5.520000	-2884.518106
5.530000	-2885.650309
5.540000	-2901.750416
5.550000	-2935.626202
5.560000	-2971.557399
5.570000	-2991.764998
5.580000	-2995.051807
5.590000	-2995.051807
5.600000	-2995.051807
5.610000	-2987.340210
5.620000	-2961.452537
5.630000	-2933.794555
5.640000	-2893.632906
5.650000	-2885.661262
5.660000	-2885.113510
5.670000	-2880.730908
5.680000	-2875.473819
5.690000	-2872.873602
5.700000	-2869.483632
5.710000	-2839.118082
5.720000	-2830.863986
5.730000	-2818.720206
5.740000	-2814.307541
5.750000	-2814.307541
5.760000	-2817.584862
5.770000	-2817.584862
5.780000	-2817.584862
5.790000	-2824.628449
5.800000	-2875.649872
5.810000	-2875.649872
5.820000	-2875.649872
5.830000	-2870.184234
5.840000	-2756.744861
5.850000	-2700.046197
5.860000	-2648.467722
5.870000	-2624.266077
5.880000	-2584.164873
5.890000	-2553.828847
5.900000	-2527.929676
5.910000	-2510.569519
5.920000	-2491.807118
5.930000	-2472.490225
5.940000	-2432.777312
5.950000	-2391.666346
5.960000	-2379.172584
5.970000	-2379.172584
5.980000	-2379.172584
5.990000	-2387.340388
6.000000	-2408.568875
6.010000	-2418.846247
6.020000	-2418.846247
6.030000	-2418.846247
6.040000	-2407.366996
6.050000	-2404.967601
6.060000	-2392.563366
6.070000	-2379.631695
6.080000	-2368.242297
6.090000	-2336.973879
6.100000	-2316.197831
6.110000	-2293.755064
6.120000	-2292.328602
6.130000	-2288.612892
6.140000	-2285.377819
6.150000	-2266.379759
6.160000	-2256.065111
6.170000	-2250.030292
6.180000	-2221.590334
6.190000	-2203.969494
6.200000	-2179.097589
6.210000	-2141.063788
6.220000	-2117.818307
6.230000	-2088.142247
6.240000	-2075.780471
6.250000	-2069.240599
6.260000	-2040.813482
6.270000	-2015.984877
6.280000	-2012.859446
6.290000	-2012.589818
6.300000	-1987.327499
6.310000	-1972.372053
6.320000	-1959.664046
6.330000	-1927.955191
6.340000	-1927.301061
6.350000	-1911.376838
6.360000	-1882.172589
6.370000	-1867.971088
6.380000	-1833.969798
6.390000	-1807.834413
6.400000	-1791.793183
6.410000	-1767.847788
6.420000	-1767.736447
6.430000	-1758.549456
6.440000	-1731.060587
6.450000	-1700.516723
6.460000	-1671.330979
6.470000	-1643.557523
6.480000	-1605.653475
6.490000	-1574.759502
6.500000	-1542.988058
6.510000	-1511.064386
6.520000	-1472.380159
6.530000	-1408.412607
6.540000	-1338.951943
6.550000	-1266.786970
6.560000	-1194.594629
6.570000	-1146.289238
6.580000	-1078.119401
6.590000	-1017.052024
6.600000	-987.702342
6.610000	-974.768137
6.620000	-969.607166
6.630000	-965.353184
6.640000	-918.845438
6.650000	-865.846879
6.660000	-865.846879
6.670000	-865.846879
6.680000	-896.146582
6.690000	-896.146582
6.700000	-896.146582
6.710000	-856.636254
6.720000	-720.378105
6.730000	-638.326491
6.740000	-551.531450
6.750000	-419.105393
6.760000	-238.828306
6.770000	-108.193724
6.780000	-13.854536
6.790000	88.771684
6.800000	178.909428
6.810000	233.702839
6.820000	290.812822
6.830000	380.588881
6.840000	435.419860
6.850000	456.334352
6.860000	459.489990
6.870000	465.402384
6.880000	485.979244
6.890000	503.309781
6.900000	505.316120
6.910000	505.576062
6.920000	526.194089
6.930000	569.252706
6.940000	599.707818
6.950000	617.279886
6.960000	617.279886
6.970000	625.114371
6.980000	642.275632
6.990000	646.900138
7.000000	683.787049
7.010000	727.787227
7.020000	752.387475
7.030000	754.748797
7.040000	754.748797
7.050000	754.748797
7.060000	723.821534
7.070000	698.579514
7.080000	658.400147
7.090000	629.735334
7.100000	628.860214
7.110000	622.955753
7.120000	583.385140
7.130000	579.980364
7.140000	579.980364
7.150000	579.980364
7.160000	589.827605
7.170000	618.694676
7.180000	643.962619
7.190000	658.487402
7.200000	677.195784
7.210000	700.372282
7.220000	700.372282
7.230000	701.330558
7.240000	701.330558
7.250000	703.990681
7.260000	703.990681
7.270000	703.990681
7.280000	684.796552
7.290000	670.369221
7.300000	644.187793
7.310000	644.187793
7.320000	644.187793
7.330000	683.733120
7.340000	698.959968
7.350000	794.053970
7.360000	847.106568
7.370000	1001.166972
7.380000	1078.437908
7.390000	1275.375394
7.400000	2592.045460
7.410000	2764.690039
7.420000	2789.679274
7.430000	2908.003549
7.440000	2915.164577
7.450000	2977.873118
7.460000	2984.431148
7.470000	3017.948016
7.480000	3017.948016
7.490000	3017.948016
7.500000	3013.136108
7.510000	3003.622801
7.520000	2989.224175
7.530000	2985.852049
7.540000	2985.852049
7.550000	2989.224175
7.560000	2995.356142
7.570000	3010.766583
7.580000	3010.766583
7.590000	3010.766583
7.600000	3006.336373
7.610000	2997.488777
7.620000	2969.775365
7.630000	2948.259846
7.640000	2936.332574
7.650000	2933.975298
7.660000	2924.166807
7.670000	2924.166807
7.680000	2919.642065
7.690000	2919.642065
7.700000	2919.809976
7.710000	2919.905246
7.720000	2919.809976
7.730000	2919.809976
7.740000	2918.156583
7.750000	2905.811346
7.760000	2900.475016
7.770000	2888.002857
7.780000	2864.937301
7.790000	2836.333085
7.800000	2802.502719
7.810000	2766.788596
7.820000	2710.124336
7.830000	2658.486334
7.840000	2583.716534
7.850000	2515.462839
7.860000	2492.454388
7.870000	2457.296748
7.880000	2425.514621
7.890000	2380.164251
7.900000	2361.856356
7.910000	2338.957393
7.920000	2310.406750
7.930000	2292.924669
7.940000	2262.972462
7.950000	2256.180931
7.960000	2220.424183
7.970000	2198.826396
7.980000	2193.892469
7.990000	2174.508176
8.000000	2169.587104
8.010000	2169.587104
8.020000	2169.587104
8.030000	2169.587104
8.040000	2170.083522
8.050000	2171.700266
8.060000	2171.700266
8.070000	2171.700266
8.080000	2171.700266
8.090000	2171.700266
8.100000	2099.343017
8.110000	2076.096689
8.120000	2057.618879
8.130000	2042.902154
8.140000	2025.013353
8.150000	2021.537995
8.160000	2015.912957
8.170000	2014.891905
8.180000	2001.287425
8.190000	1976.056925
8.200000	1968.254809
8.210000	1950.184612
8.220000	1928.453417
8.230000	1916.468191
8.240000	1912.748548
8.250000	1897.840000
8.260000	1893.660728
8.270000	1888.286663
8.280000	1888.286663
8.290000	1892.299192
8.300000	1893.660728
8.310000	1899.179460
8.320000	1901.072544
8.330000	1902.244194
8.340000	1902.244194
8.350000	1902.244194
8.360000	1880.292756
8.370000	1879.951117
8.380000	1873.485293
8.390000	1868.526332
8.400000	1853.710481
8.410000	1799.731598
8.420000	1761.124695
8.430000	1720.484767
8.440000	1675.719825
8.450000	1666.491423
8.460000	1656.943357
8.470000	1656.943357
8.480000	1656.943357
8.490000	1673.030772
8.500000	1705.903353
8.510000	1725.311764
8.520000	1743.117174
8.530000	1744.206692
8.540000	1748.101460
8.550000	1748.101460
8.560000	1744.206692
8.570000	1740.586135
8.580000	1737.052344
8.590000	1731.706109
8.600000	1730.039817
8.610000	1719.159443
8.620000	1714.180978
8.630000	1695.735506
8.640000	1688.291038
8.650000	1669.816583
8.660000	1668.300215
8.670000	1668.300215
8.680000	1668.300215
8.690000	1668.300215
8.700000	1664.871952
8.710000	1657.069281
8.720000	1655.627787
8.730000	1647.596493
8.740000	1616.506704
8.750000	1597.947514
8.760000	1579.281088
8.770000	1554.000212
8.780000	1540.254405
8.790000	1536.128605
8.800000	1524.499571
8.810000	1523.313080
8.820000	1522.391447
8.830000	1496.992200
8.840000	1479.739704
8.850000	1465.512571
8.860000	1438.185420
8.870000	1407.230447
8.880000	1370.726549
8.890000	1334.094693
8.900000	1317.433685
8.910000	1308.996646
8.920000	1304.285377
8.930000	1301.028828
8.940000	1286.231182
8.950000	1259.217868
8.960000	1253.393042
8.970000	1245.780634
8.980000	1244.569702
8.990000	1244.370069
9.000000	1230.295541
9.010000	1211.942227
9.020000	1211.942227
9.030000	1211.942227
9.040000	1250.675012
9.050000	1312.999142
9.060000	1369.510296
9.070000	1421.735022
9.080000	1466.447655
9.090000	1506.917009
9.100000	1521.643655
9.110000	1525.278975
9.120000	1539.341429
9.130000	1599.037601
9.140000	1661.512214
9.150000	1709.287763
9.160000	1762.896970
9.170000	1856.684696
9.180000	1948.178828
9.190000	2025.272354
9.200000	2088.602242
9.210000	2175.065374
9.220000	2247.928399
9.230000	2303.052080
9.240000	2381.482001
9.250000	2438.906851
9.260000	2461.220216
9.270000	2516.087000
9.280000	2578.804643
9.290000	2664.475485
9.300000	2746.372278
9.310000	2783.443473
9.320000	2783.443473
9.330000	2783.443473
9.340000	2602.319157
9.350000	2265.214058
9.360000	1614.714237
9.370000	692.623047
9.380000	-40.650754
9.390000	-377.573358
9.400000	-528.074252
9.410000	-528.074252
9.420000	-528.074252
9.430000	-487.133811
9.440000	-360.305948
9.450000	-197.471339
9.460000	51.632716
9.470000	311.927610
9.480000	475.561061
9.490000	641.974563
9.500000	801.266699
9.510000	938.083104
9.520000	1080.166223
9.530000	1187.078847
9.540000	1292.342280
9.550000	1386.027584
9.560000	1444.552094
9.570000	1484.155873
9.580000	1503.783491
9.590000	1549.481516
9.600000	1566.805757
9.610000	1656.298598
9.620000	1824.634838
9.630000	1930.513159
9.640000	1930.513159
9.650000	1930.513159
9.660000	1887.172557
9.670000	1800.913444
9.680000	1664.744377
9.690000	1489.418890
9.700000	1329.491703
9.710000	1207.891446
9.720000	1093.142340
9.730000	935.364946
9.740000	735.984125
9.750000	513.935515
9.760000	280.853565
9.770000	7.440099
9.780000	-300.134412
9.790000	-713.224356
9.800000	-1320.126309
9.810000	-2131.634605
9.820000	-2926.440645
9.830000	-3470.972356
9.840000	-3960.896348
9.850000	-4529.101343
9.860000	-5007.490237
9.870000	-5251.260357
9.880000	-5347.688753
9.890000	-5398.442036
9.900000	-5398.442036
9.910000	-5398.442036
9.920000	-5186.349564
9.930000	-4821.679463
9.940000	-4430.401602
9.950000	-4046.639004
9.960000	-3737.519566
9.970000	-3464.283862
9.980000	-3215.690096
9.990000	-3018.009561
10.000000	-2844.694162
10.010000	-2723.864797
10.020000	-2654.598600
10.030000	-2597.595513
10.040000	-2554.597374
10.050000	-2551.374544
10.060000	-2518.317188
10.070000	-2450.314409
10.080000	-2363.078538
10.090000	-2286.277593
10.100000	-2195.677458
10.110000	-2081.266069
10.120000	-2000.448375
10.130000	-1917.987514
10.140000	-1866.393352
10.150000	-1818.533697
10.160000	-1760.363372
10.170000	-1709.155533
10.180000	-1693.021403
10.190000	-1692.799799
10.200000	-1691.634181
10.210000	-1692.799799
10.220000	-1693.021403
10.230000	-1701.497599
10.240000	-1713.039090
10.250000	-1713.039090
10.260000	-1713.039090
10.270000	-1679.973903
10.280000	-1628.807326
10.290000	-1570.694268
10.300000	-1512.559578
10.310000	-1458.402620
10.320000	-1386.236858
10.330000	-1293.160157
10.340000	-1222.036968
10.350000	-1182.824793
10.360000	-1134.695413
10.370000	-1096.651917
10.380000	-1086.348639
10.390000	-1068.331982
10.400000	-1038.085957
10.410000	-1021.093868
10.420000	-994.690760
10.430000	-966.940174
10.440000	-944.291436
10.450000	-900.697816
10.460000	-893.765791
10.470000	-893.765791
10.480000	-893.765791
10.490000	-917.163784
10.500000	-944.363036
10.510000	-948.985869
10.520000	-954.881695
10.530000	-957.957708
10.540000	-992.555194
10.550000	-995.159937
10.560000	-995.159937
10.570000	-995.159937
10.580000	-989.780995
10.590000	-984.302986
10.600000	-971.039058
10.610000	-957.598822
10.620000	-933.655114
10.630000	-906.484697
10.640000	-891.408983
10.650000	-889.757429
10.660000	-885.281257
10.670000	-881.438048
10.680000	-864.229886
10.690000	-852.708171
10.700000	-850.512794
10.710000	-837.506070
10.720000	-830.011734
10.730000	-825.434624
10.740000	-809.489929
10.750000	-799.642293
10.760000	-773.340592
10.770000	-751.411072
10.780000	-725.116661
10.790000	-721.284223
10.800000	-699.715416
10.810000	-698.086583
10.820000	-698.086583
10.830000	-698.086583
10.840000	-721.287780
10.850000	-734.593095
10.860000	-734.593095
10.870000	-734.593095
10.880000	-727.007615
10.890000	-701.348640
10.900000	-697.013986
10.910000	-692.945544
10.920000	-686.077209
10.930000	-685.125291
10.940000	-685.125291
10.950000	-685.125291
10.960000	-696.432523
10.970000	-696.432523
10.980000	-696.432523
10.990000	-694.348685
11.000000	-678.440407
11.010000	-671.138535
11.020000	-659.358248
11.030000	-645.979721
11.040000	-624.257114
11.050000	-622.992936
11.060000	-622.992936
11.070000	-621.923044
11.080000	-622.992936
11.090000	-625.684328
11.100000	-645.459225
11.110000	-645.459225
11.120000	-650.329483
11.130000	-658.043395
11.140000	-661.196395
11.150000	-692.012537
11.160000	-695.974610
11.170000	-715.201904
11.180000	-741.216516
11.190000	-741.216516
11.200000	-741.216516
11.210000	-734.004785
11.220000	-708.757737
11.230000	-686.860854
11.240000	-668.800296
11.250000	-647.702796
11.260000	-632.893317
11.270000	-621.517140
11.280000	-611.371791
11.290000	-611.371791
11.300000	-610.992822
11.310000	-607.597414
11.320000	-604.821905
11.330000	-604.821905
11.340000	-589.482743
11.350000	-569.947405
11.360000	-541.072984
11.370000	-540.960154
11.380000	-540.960154
11.390000	-540.960154
11.400000	-580.135799
11.410000	-580.135799
11.420000	-580.135799
11.430000	-517.902792
11.440000	-469.415510
11.450000	-442.641155
11.460000	-427.626448
11.470000	-427.626448
11.480000	-427.626448
11.490000	-431.512602
11.500000	-448.721106
11.510000	-471.729527
11.520000	-474.415436
11.530000	-491.560847
11.540000	-495.410851
11.550000	-495.410851
11.560000	-495.410851
11.570000	-485.879520
11.580000	-470.272625
11.590000	-462.073497
11.600000	-461.096859
11.610000	-454.123573
11.620000	-452.361341
11.630000	-450.788044
11.640000	-450.788044
11.650000	-448.055236
11.660000	-434.618389
11.670000	-411.564306
11.680000	-409.325835
11.690000	-398.899779
11.700000	-396.015243
11.710000	-383.280068
11.720000	-383.093873
11.730000	-375.142413
11.740000	-361.229779
11.750000	-347.011594
11.760000	-314.296175
11.770000	-284.986615
11.780000	-271.331497
11.790000	-254.872464
11.800000	-222.376058
11.810000	-216.954365
11.820000	-216.954365
11.830000	-216.954365
11.840000	-232.132648
11.850000	-237.947646
11.860000	-238.021574
11.870000	-237.947646
11.880000	-232.132648
11.890000	-219.911567
11.900000	-204.984721
11.910000	-181.808769
11.920000	-150.972322
11.930000	-128.740167
11.940000	-102.872475
11.950000	-94.754464
11.960000	-93.674716
11.970000	-89.761009
11.980000	-89.511564
11.990000	-75.691713
12.000000	-74.456625
12.010000	-68.491761
12.020000	-32.367833
12.030000	3.566863
12.040000	48.842661
12.050000	75.535090
12.060000	92.166039
12.070000	115.539149
12.080000	125.401024
12.090000	133.645191
12.100000	144.629304
12.110000	154.743645
12.120000	171.903832
12.130000	184.804198
12.140000	184.804198
12.150000	184.804198
12.160000	157.610995
12.170000	137.012966
12.180000	118.801311
12.190000	99.433301
12.200000	98.271452
12.210000	98.271452
12.220000	99.433301
12.230000	112.694153
12.240000	146.703469
12.250000	146.703469
12.260000	146.703469
12.270000	121.075047
12.280000	-21.545567
12.290000	-211.622990
12.300000	-368.963081
12.310000	-503.548579
12.320000	-590.263782
12.330000	-714.757689
12.340000	-863.270456
12.350000	-978.826817
12.360000	-1026.315593
12.370000	-1064.130870
12.380000	-1064.130870
12.390000	-1064.130870
12.400000	-1018.673333
12.410000	-940.158136
12.420000	-821.119059
12.430000	-821.119059
12.440000	-821.119059
12.450000	-876.479448
12.460000	-1104.805953
12.470000	-1445.444928
12.480000	-1836.596812
12.490000	-2316.659579
12.500000	-2435.937498
12.510000	-2435.937498
12.520000	-2435.937498
12.530000	-2164.990270
12.540000	-1884.204697
12.550000	-1696.741693
12.560000	-1539.987553
12.570000	-1414.637483
12.580000	-1279.625697
12.590000	-1137.622882
12.600000	-967.166526
12.610000	-849.859805
12.620000	-733.307235
12.630000	-617.207189
12.640000	-506.428987
12.650000	-417.553034
12.660000	-287.297137
12.670000	-134.088494
12.680000	16.851413
12.690000	127.376465
12.700000	226.220128
12.710000	321.822720
12.720000	419.618174
12.730000	496.227983
12.740000	580.197532
12.750000	647.528180
12.760000	693.870654
12.770000	753.976109
12.780000	839.521282
12.790000	904.306493
12.800000	992.461955
12.810000	1069.463320
12.820000	1152.587899
12.830000	1241.615596
12.840000	1325.728751
12.850000	1398.825340
12.860000	1445.890129
12.870000	1484.169183
12.880000	1512.045667
12.890000	1525.553006
12.900000	1538.646355
12.910000	1542.307374
12.920000	1547.896199
12.930000	1547.896199
12.940000	1539.923171
12.950000	1539.923171
12.960000	1510.275523
12.970000	1471.480195
12.980000	1415.684530
12.990000	1373.192598
13.000000	1325.009074
13.010000	1257.972318
13.020000	1229.579327
13.030000	1216.930493
13.040000	1216.930493
13.050000	1213.597334
13.060000	1213.597334
13.070000	1213.597334
13.080000	1203.350882
13.090000	1202.165461
13.100000	1187.948344
13.110000	1154.234305
13.120000	1139.894129
13.130000	1090.920813
13.140000	1043.141831
13.150000	1014.613938
13.160000	994.622155
13.170000	994.622155
13.180000	994.622155
13.190000	1017.214392
13.200000	1039.008126
13.210000	1067.076451
13.220000	1084.868706
13.230000	1084.868706
13.240000	1084.868706
13.250000	1069.057411
13.260000	1057.318941
13.270000	1047.173607
13.280000	1038.834618
13.290000	1028.336528
13.300000	1003.385773
13.310000	994.676010
13.320000	987.871882
13.330000	983.588264
13.340000	983.588264
13.350000	983.588264
13.360000	985.044314
13.370000	992.589211
13.380000	998.997260
13.390000	998.997260
13.400000	998.997260
13.410000	1000.050664
13.420000	1006.436502
13.430000	1011.650952
13.440000	1012.745207
13.450000	1012.745207
13.460000	1006.436502
13.470000	1005.661090
13.480000	986.743247
13.490000	986.743247
13.500000	986.743247
13.510000	1030.984859
13.520000	1098.722251
13.530000	1159.037587
13.540000	1205.829468
13.550000	1254.208621
13.560000	1304.957362
13.570000	1322.513021
13.580000	1323.342117
13.590000	1326.287116
13.600000	1339.728918
13.610000	1372.049465
13.620000	1372.049465
13.630000	1372.049465
13.640000	1336.532462
13.650000	1298.442173
13.660000	1298.442173
13.670000	1298.442173
13.680000	1300.442159
13.690000	1301.587909
13.700000	1308.024965
13.710000	1344.262398
13.720000	1374.500815
13.730000	1380.117175
13.740000	1380.726080
13.750000	1380.726080
13.760000	1380.117175
13.770000	1374.847748
13.780000	1374.847748
13.790000	1374.847748
13.800000	1383.049086
13.810000	1386.960046
13.820000	1389.771214
13.830000	1404.154911
13.840000	1412.193979
13.850000	1415.765033
13.860000	1415.765033
13.870000	1412.193979
13.880000	1409.203159
13.890000	1409.203159
13.900000	1409.203159
13.910000	1466.344361
13.920000	1531.194344
13.930000	1585.736026
13.940000	1644.327762
13.950000	1706.138938
13.960000	1756.475713
13.970000	1812.682088
13.980000	1902.704650
13.990000	1974.055797
14.000000	2038.160207
14.010000	2103.472016
14.020000	2129.531663
14.030000	2152.147518
14.040000	2208.957503
14.050000	2259.657846
14.060000	2320.587338
14.070000	2379.136597
14.080000	2427.277184
14.090000	2513.818367
14.100000	2563.673117
14.110000	2637.919956
14.120000	2719.900805
14.130000	2815.127121
14.140000	2917.139705
14.150000	3003.333416
14.160000	3114.595838
14.170000	3181.278311
14.180000	3216.158902
14.190000	3216.158902
14.200000	3216.158902
14.210000	3195.175392
14.220000	3129.864914
14.230000	3068.432571
14.240000	2963.345081
14.250000	2683.496512
14.260000	2319.469609
14.270000	1687.842514
14.280000	924.504927
14.290000	277.529538
14.300000	-268.150466
14.310000	-653.548913
14.320000	-833.814440
14.330000	-863.367580
14.340000	-863.367580
14.350000	-863.367580
14.360000	-819.817170
14.370000	-797.588212
14.380000	-729.113653
14.390000	-589.903046
14.400000	-483.739193
14.410000	-375.814829
14.420000	-301.536022
14.430000	-229.522465
14.440000	-133.326531
14.450000	-53.394803
14.460000	40.094148
14.470000	133.631202
14.480000	195.481283
14.490000	263.865022
14.500000	263.865022
14.510000	263.865022
14.520000	217.023137
14.530000	157.439394
14.540000	127.405727
14.550000	113.612628
14.560000	93.773437
14.570000	85.322853
14.580000	84.086344
14.590000	77.883456
14.600000	58.100234
14.610000	8.849970
14.620000	-38.517995
14.630000	-54.890282
14.640000	-85.251497
14.650000	-85.251497
14.660000	-85.251497
14.670000	-3.314233
14.680000	116.513587
14.690000	212.975162
14.700000	283.867963
14.710000	335.284371
14.720000	335.284371
14.730000	335.284371
14.740000	331.059093
14.750000	324.338898
14.760000	312.457761
14.770000	309.590261
14.780000	288.734366
14.790000	251.911505
14.800000	197.991614
14.810000	126.222217
14.820000	34.231977
14.830000	-50.398116
14.840000	-129.622967
14.850000	-181.969158
14.860000	-211.564154
14.870000	-220.551551
14.880000	-225.562804
14.890000	-245.157780
14.900000	-256.467072
14.910000	-257.342021
14.920000	-264.861848
14.930000	-290.779828
14.940000	-379.121936
14.950000	-468.535370
14.960000	-590.159817
14.970000	-708.132321
14.980000	-783.214717
14.990000	-848.956328
15.000000	-920.246350
15.010000	-961.670997
15.020000	-975.410896
15.030000	-984.510697
15.040000	-984.510697
15.050000	-989.434978
15.060000	-989.434978
15.070000	-1005.597307
15.080000	-1036.377048
15.090000	-1068.740082
15.100000	-1087.331918
15.110000	-1111.013731
15.120000	-1122.315306
15.130000	-1124.591891
15.140000	-1128.295035
15.150000	-1127.899862
15.160000	-1127.899862
15.170000	-1131.138838
15.180000	-1131.380826
15.190000	-1132.931221
15.200000	-1134.585238
15.210000	-1142.386570
15.220000	-1169.342581
15.230000	-1222.677379
15.240000	-1275.702657
15.250000	-1352.153762
15.260000	-1428.981992
15.270000	-1511.757169
15.280000	-1670.487389
15.290000	-1848.061159
15.300000	-1962.976161
15.310000	-2108.897251
15.320000	-2276.232940
15.330000	-2419.687492
15.340000	-2523.623983
15.350000	-2592.586543
15.360000	-2664.159719
15.370000	-2730.415079
15.380000	-2748.654977
15.390000	-2763.539083
15.400000	-2804.163521
15.410000	-2821.505036
15.420000	-2851.877729
15.430000	-2851.877729
15.440000	-2851.877729
15.450000	-2831.325352
15.460000	-2804.799213
15.470000	-2789.745699
15.480000	-2789.408162
15.490000	-2768.435416
15.500000	-2751.927529
15.510000	-2745.155918
15.520000	-2744.462010
15.530000	-2743.523128
15.540000	-2733.457490
15.550000	-2704.634047
15.560000	-2675.900793
15.570000	-2645.750868
15.580000	-2609.397080
15.590000	-2565.940529
15.600000	-2518.968000
15.610000	-2479.212265
15.620000	-2452.588253
15.630000	-2425.677007
15.640000	-2423.487556
15.650000	-2423.487556
15.660000	-2422.397872
15.670000	-2418.053223
15.680000	-2418.053223
15.690000	-2419.874209
15.700000	-2419.874209
15.710000	-2505.641769
15.720000	-2505.641769
15.730000	-2505.641769
15.740000	-2408.822380
15.750000	-2279.673946
15.760000	-2207.791905
15.770000	-2125.336235
15.780000	-2031.006582
15.790000	-1980.216552
15.800000	-1937.032475
15.810000	-1886.215652
15.820000	-1829.165833
15.830000	-1784.323133
15.840000	-1738.273078
15.850000	-1700.554825
15.860000	-1677.432272
15.870000	-1637.744437
15.880000	-1583.743703
15.890000	-1535.041939
15.900000	-1471.004541
15.910000	-1418.529665
15.920000	-1374.241617
15.930000	-1340.091114
15.940000	-1305.793640
15.950000	-1305.793640
15.960000	-1305.793640
15.970000	-1310.399851
15.980000	-1360.449003
15.990000	-1382.684370
16.000000	-1382.684370
16.010000	-1382.684370
16.020000	-1358.267700
16.030000	-1349.653932
16.040000	-1305.936765
16.050000	-1258.547516
16.060000	-1206.571499
16.070000	-1150.499059
16.080000	-1087.250108
16.090000	-1019.519719
16.100000	-987.083382
16.110000	-928.314250
16.120000	-859.181714
16.130000	-804.183686
16.140000	-759.252611
16.150000	-706.064524
16.160000	-636.401354
16.170000	-566.060938
16.180000	-499.568272
16.190000	-435.088540
16.200000	-376.799875
16.210000	-333.175620
16.220000	-289.013640
16.230000	-260.395318
16.240000	-233.190627
16.250000	-206.697599
16.260000	-192.446412
16.270000	-172.964923
16.280000	-164.356353
16.290000	-164.356353
16.300000	-164.356353
16.310000	-171.982764
16.320000	-176.347030
16.330000	-192.182244
16.340000	-196.942859
16.350000	-196.942859
16.360000	-195.543316
16.370000	-192.182244
16.380000	-156.524800
16.390000	-137.186770
16.400000	-124.952907
16.410000	-100.850223
16.420000	-81.515870
16.430000	-72.519811
16.440000	-51.036857
16.450000	-44.362553
16.460000	-28.451806
16.470000	-22.358121
16.480000	-14.817418
16.490000	-3.411396
16.500000	6.763440
16.510000	33.566009
16.520000	55.203544
16.530000	66.602045
16.540000	68.563392
16.550000	68.602799
16.560000	83.496183
16.570000	84.946328
16.580000	84.946328
16.590000	83.496183
16.600000	44.708548
16.610000	28.500682
16.620000	17.554181
16.630000	4.796968
16.640000	4.796968
16.650000	4.796968
16.660000	8.354193
16.670000	8.354193
16.680000	8.354193
16.690000	-22.510149
16.700000	-26.541947
16.710000	-35.033720
16.720000	-45.184826
16.730000	-57.370208
16.740000	-57.370208
16.750000	-57.370208
16.760000	-54.840749
16.770000	-40.982195
16.780000	-9.099559
16.790000	-0.022133
16.800000	11.806617
16.810000	29.860447
16.820000	43.658154
16.830000	43.658154
16.840000	46.532576
16.850000	46.738276
16.860000	56.379043
16.870000	56.379043
16.880000	56.379043
16.890000	31.157538
16.900000	23.128714
16.910000	0.961238
16.920000	-12.278410
16.930000	-12.278410
16.940000	-12.278410
16.950000	-5.388435
16.960000	7.439910
16.970000	23.553451
16.980000	46.389585
16.990000	47.081683
17.000000	56.900631
17.010000	56.949420
17.020000	60.667463
17.030000	60.667463
17.040000	60.667463
17.050000	65.369152
17.060000	66.222085
17.070000	72.330848
17.080000	85.137227
17.090000	110.950934
17.100000	115.940252
17.110000	123.727468
17.120000	136.684067
17.130000	144.468752
17.140000	155.479529
17.150000	171.191709
17.160000	173.221639
17.170000	188.039561
17.180000	192.830591
17.190000	198.984068
17.200000	198.984068
17.210000	198.984068
17.220000	197.031420
17.230000	170.811238
17.240000	148.707605
17.250000	107.620579
17.260000	93.579870
17.270000	78.232328
17.280000	74.616854
17.290000	74.572901
17.300000	74.572901
17.310000	74.616854
17.320000	74.759780
17.330000	94.730279
17.340000	101.797475
17.350000	104.539415
17.360000	109.614233
17.370000	111.304563
17.380000	111.304563
17.390000	111.304563
17.400000	115.288497
17.410000	119.108874
17.420000	120.079161
17.430000	138.100041
17.440000	140.750075
17.450000	148.251321
17.460000	166.397367
17.470000	172.340427
17.480000	184.326996
17.490000	186.179588
17.500000	205.149906
17.510000	220.148319
17.520000	220.192314
17.530000	236.098724
17.540000	251.123933
17.550000	251.123933
17.560000	251.123933
17.570000	244.214645
17.580000	217.003285
17.590000	181.225527
17.600000	157.104879
17.610000	136.180745
17.620000	121.261006
17.630000	121.261006
17.640000	116.568848
17.650000	116.568848
17.660000	126.126355
17.670000	126.388102
17.680000	143.528794
17.690000	144.645640
17.700000	170.692601
17.710000	178.700390
17.720000	192.066858
17.730000	199.689002
17.740000	200.954213
17.750000	201.500501
17.760000	201.718905
17.770000	218.831460
17.780000	229.313382
17.790000	235.054137
17.800000	235.115142
17.810000	238.670607
17.820000	241.712567
17.830000	246.285230
17.840000	249.446951
17.850000	256.817538
17.860000	258.084857
17.870000	263.604606
17.880000	266.140270
17.890000	273.218008
17.900000	292.496016
17.910000	302.788750
17.920000	322.998855
17.930000	322.998855
17.940000	322.998855
17.950000	317.914243
17.960000	285.117923
17.970000	250.568147
17.980000	221.312001
17.990000	221.312001
18.000000	221.312001
18.010000	237.056373
18.020000	245.944935
18.030000	253.895818
18.040000	260.620297
18.050000	269.647803
18.060000	273.638536
18.070000	278.664739
18.080000	285.194770
18.090000	290.001458
18.100000	299.864263
18.110000	301.567884
18.120000	304.607408
18.130000	326.748529
18.140000	327.556401
18.150000	339.875696
18.160000	368.474976
18.170000	383.113982
18.180000	383.614687
18.190000	384.958854
18.200000	386.277611
18.210000	386.277611
18.220000	392.776428
18.230000	400.478738
18.240000	402.977492
18.250000	404.759842
18.260000	404.759842
18.270000	404.759842
18.280000	384.636572
18.290000	361.393664
18.300000	321.839418
18.310000	270.982239
18.320000	237.158867
18.330000	217.538083
18.340000	204.518430
18.350000	186.135501
18.360000	185.026928
18.370000	185.026928
18.380000	185.026928
18.390000	182.777142
18.400000	182.777142
18.410000	190.205536
18.420000	192.307542
18.430000	192.307542
18.440000	195.169936
18.450000	198.998651
18.460000	220.124816
18.470000	251.683606
18.480000	281.121954
18.490000	311.469566
18.500000	319.104418
18.510000	335.465603
18.520000	354.041816
18.530000	364.510657
18.540000	380.103705
18.550000	388.189105
18.560000	394.562290
18.570000	409.863001
18.580000	428.114858
18.590000	433.284951
18.600000	440.695008
18.610000	441.172172
18.620000	464.885110
18.630000	467.362597
18.640000	467.362597
18.650000	464.885110
18.660000	446.100070
18.670000	429.448167
18.680000	419.072526
18.690000	414.555975
18.700000	414.555975
18.710000	414.555975
18.720000	422.808974
18.730000	439.605358
18.740000	458.571579
18.750000	478.233309
18.760000	485.367984
18.770000	504.049253
18.780000	504.071075
18.790000	505.032721
18.800000	526.842079
18.810000	527.950792
18.820000	531.870124
18.830000	544.870056
18.840000	561.935185
18.850000	591.895588
18.860000	612.984676
18.870000	634.073956
18.880000	667.111522
18.890000	679.198268
18.900000	710.508398
18.910000	752.257646
18.920000	778.929053
18.930000	811.514699
18.940000	840.335593
18.950000	879.908520
18.960000	894.675094
18.970000	911.544587
18.980000	934.021157
18.990000	952.214878
19.000000	982.510558
19.010000	994.828879
19.020000	999.181547
19.030000	1005.864088
19.040000	1006.517072
19.050000	1022.376371
19.060000	1028.473800
19.070000	1047.447520
19.080000	1110.176593
19.090000	1200.461708
19.100000	1301.951410
19.110000	1474.758444
19.120000	1656.462298
19.130000	1750.032815
19.140000	1859.598441
19.150000	1989.104841
19.160000	2071.612753
19.170000	2104.957525
19.180000	2104.957525
19.190000	2104.957525
19.200000	2020.117522
19.210000	1953.852994
19.220000	1617.135821
19.230000	1076.798686
19.240000	682.002324
19.250000	526.114528
19.260000	508.408365
19.270000	508.408365
19.280000	508.408365
19.290000	552.918388
19.300000	583.837155
19.310000	613.744114
19.320000	739.710643
19.330000	962.377008
19.340000	1164.331814
19.350000	1331.365167
19.360000	1463.062577
19.370000	1598.533463
19.380000	1748.787615
19.390000	1914.745364
19.400000	2047.446824
19.410000	2070.564636
19.420000	2075.967950
19.430000	2081.205476
19.440000	2092.930334
19.450000	2092.930334
19.460000	2112.628683
19.470000	2113.358862
19.480000	2128.308359
19.490000	2189.824200
19.500000	2267.834281
19.510000	2350.039755
19.520000	2415.404638
19.530000	2455.357664
19.540000	2468.719638
19.550000	2468.719638
19.560000	2468.719638
19.570000	2402.274635
19.580000	2327.553620
19.590000	2261.801092
19.600000	2191.368247
19.610000	2133.477399
19.620000	2089.203134
19.630000	2026.125860
19.640000	1933.160290
19.650000	1820.897040
19.660000	1700.180827
19.670000	1553.652925
19.680000	1393.343727
19.690000	1232.473187
19.700000	1098.606591
19.710000	1005.315024
19.720000	951.889685
19.730000	904.123736
19.740000	837.257030
19.750000	794.175970
19.760000	744.480227
19.770000	702.407353
19.780000	673.736143
19.790000	628.596173
19.800000	565.123725
19.810000	518.942087
19.820000	476.429572
19.830000	424.341942
19.840000	375.860282
19.850000	337.775906
19.860000	280.241393
19.870000	222.394817
19.880000	173.645559
19.890000	118.995834
19.900000	92.232223
19.910000	52.439551
19.920000	8.001528
19.930000	-32.068401
19.940000	-73.222934
19.950000	-109.499671
19.960000	-144.428775
19.970000	-197.931904
19.980000	-261.513143
19.990000	-314.287322
20.000000	-375.666034
20.010000	-423.487031
20.020000	-474.885966
20.030000	-520.573895
20.040000	-569.115291
20.050000	-614.581933
20.060000	-664.342735
20.070000	-709.507526
20.080000	-758.580776
20.090000	-831.427751
20.100000	-936.752193
20.110000	-1056.238393
20.120000	-1167.878691
20.130000	-1258.037838
20.140000	-1341.048390
20.150000	-1422.781001
20.160000	-1473.214279
20.170000	-1473.214279
20.180000	-1473.214279
20.190000	-1443.262633
20.200000	-1407.170259
20.210000	-1349.975605
20.220000	-1261.109028
20.230000	-1218.903986
20.240000	-1182.692674
20.250000	-1121.832111
20.260000	-1106.976698
20.270000	-1098.678305
20.280000	-1084.465400
20.290000	-1071.552649
20.300000	-1027.663205
20.310000	-988.340927
20.320000	-959.305037
20.330000	-915.019201
20.340000	-871.035989
20.350000	-836.656991
20.360000	-833.778631
20.370000	-816.084935
20.380000	-796.662333
20.390000	-791.499153
20.400000	-759.367582
20.410000	-708.027001
20.420000	-681.150936
20.430000	-651.339480
20.440000	-647.067969
20.450000	-647.067969
20.460000	-647.067969
20.470000	-648.679179
20.480000	-648.679179
20.490000	-651.029481
20.500000	-651.029481
20.510000	-663.815617
20.520000	-684.795019
20.530000	-698.934061
20.540000	-742.749904
20.550000	-766.800453
20.560000	-780.851773
20.570000	-790.483038
20.580000	-790.483038
20.590000	-790.483038
20.600000	-599.502944
20.610000	-564.653597
20.620000	-561.845714
20.630000	-517.950618
20.640000	-481.874049
20.650000	-481.600690
20.660000	-481.600690
20.670000	-481.874049
20.680000	-511.426299
20.690000	-524.685793
20.700000	-524.685793
20.710000	-524.685793
20.720000	-519.873842
20.730000	-488.619156
20.740000	-459.738339
20.750000	-432.452563
20.760000	-393.558689
20.770000	-389.439851
20.780000	-358.071755
20.790000	-349.726276
20.800000	-343.379948
20.810000	-320.009375
20.820000	-288.756916
20.830000	-269.313094
20.840000	-236.001157
20.850000	-229.791970
20.860000	-208.007983
20.870000	-191.437717
20.880000	-191.437717
20.890000	-191.437717
20.900000	-548.612950
20.910000	-752.494939
20.920000	-912.381174
20.930000	-1089.450208
20.940000	-1210.775153
20.950000	-1312.699887
20.960000	-1328.911327
20.970000	-1328.911327
20.980000	-1328.911327
20.990000	-1290.873412
21.000000	-1239.699641
21.010000	-1182.618408
21.020000	-1110.438366
21.030000	-1065.500592
21.040000	-1004.938847
21.050000	-946.545291
21.060000	-890.386677
21.070000	-841.600064
21.080000	-792.796360
21.090000	-722.612817
21.100000	-658.336120
21.110000	-592.526744
21.120000	-536.925200
21.130000	-494.413064
21.140000	-426.397172
21.150000	-358.472564
21.160000	-283.776955
21.170000	-238.647745
21.180000	-170.910732
21.190000	-138.121473
21.200000	-117.821979
21.210000	-82.578833
21.220000	-69.908979
21.230000	-53.193401
21.240000	-46.840014
21.250000	-40.857230
21.260000	-25.651027
21.270000	-5.823862
21.280000	11.870250
21.290000	47.284788
21.300000	67.248032
21.310000	75.496891
21.320000	107.715577
21.330000	133.529514
21.340000	152.266595
21.350000	161.581318
21.360000	169.574380
21.370000	169.574380
21.380000	164.247563
21.390000	161.581318
21.400000	160.485189
21.410000	160.485189
21.420000	160.485189
21.430000	165.369301
21.440000	171.551687
21.450000	176.364050
21.460000	176.364050
21.470000	181.955485
21.480000	183.163542
21.490000	183.163542
21.500000	196.773591
21.510000	198.611271
21.520000	203.714140
21.530000	205.330488
21.540000	205.550907
21.550000	205.550907
21.560000	205.330488
21.570000	172.654139
21.580000	171.202324
21.590000	171.202324
21.600000	171.202324
21.610000	189.381689
21.620000	225.020453
21.630000	250.095250
21.640000	275.946227
21.650000	278.297172
21.660000	278.297172
21.670000	278.297172
21.680000	251.967002
21.690000	251.967002
21.700000	251.967002
21.710000	256.777502
21.720000	262.638672
21.730000	267.533579
21.740000	271.480535
21.750000	273.284698
21.760000	274.327733
21.770000	282.050600
21.780000	305.176476
21.790000	326.743862
21.800000	353.086985
21.810000	381.409704
21.820000	407.992489
21.830000	421.050798
21.840000	452.013957
21.850000	480.546859
21.860000	493.050932
21.870000	513.141998
21.880000	532.989471
21.890000	532.989471
21.900000	532.989471
21.910000	527.350398
21.920000	526.639371
21.930000	526.639371
21.940000	526.639371
21.950000	524.711523
21.960000	524.711523
21.970000	528.165148
21.980000	528.165148
21.990000	534.474542
22.000000	541.678443
22.010000	560.497741
22.020000	574.110491
22.030000	580.555967
22.040000	596.587956
22.050000	602.384744
22.060000	602.507893
22.070000	604.791710
22.080000	609.142878
22.090000	616.192155
22.100000	625.403072
22.110000	646.060287
22.120000	651.897168
22.130000	651.897168
22.140000	651.897168
22.150000	636.996053
22.160000	625.895034
22.170000	597.677051
22.180000	573.655991
22.190000	538.247352
22.200000	517.521749
22.210000	517.355938
22.220000	512.739643
22.230000	512.739643
22.240000	517.355938
22.250000	527.631177
22.260000	554.085962
22.270000	568.054672
22.280000	584.982865
22.290000	591.873039
22.300000	595.397665
22.310000	611.851250
22.320000	612.529876
22.330000	613.462862
22.340000	618.129017
22.350000	629.058014
22.360000	636.680765
22.370000	642.669563
22.380000	663.257706
22.390000	687.190492
22.400000	697.804342
22.410000	706.773471
22.420000	709.843575
22.430000	711.314491
22.440000	711.314491
22.450000	709.843575
22.460000	689.273248
22.470000	680.492657
22.480000	671.530310
22.490000	657.180134
22.500000	590.654202
22.510000	385.739991
22.520000	11.911324
22.530000	-415.319144
22.540000	-744.754025
22.550000	-992.859646
22.560000	-1128.309354
22.570000	-1177.299533
22.580000	-1177.299533
22.590000	-1177.299533
22.600000	-1107.455222
22.610000	-1015.061214
22.620000	-937.112195
22.630000	-879.761934
22.640000	-820.715105
22.650000	-772.582928
22.660000	-731.296922
22.670000	-691.425208
22.680000	-649.910601
22.690000	-607.303039
22.700000	-561.543057
22.710000	-505.192336
22.720000	-447.247181
22.730000	-384.073761
22.740000	-333.036082
22.750000	-286.915053
22.760000	-235.845379
22.770000	-177.805833
22.780000	-132.743234
22.790000	-62.565699
22.800000	16.180076
22.810000	71.603251
22.820000	105.165678
22.830000	126.765789
22.840000	168.181517
22.850000	202.737649
22.860000	207.781851
22.870000	207.781851
22.880000	207.781851
22.890000	202.648357
22.900000	192.456673
22.910000	192.456673
22.920000	192.456673
22.930000	196.385783
22.940000	208.025184
22.950000	212.320567
22.960000	215.819558
22.970000	240.263583
22.980000	266.467735
22.990000	271.161297
23.000000	286.233042
23.010000	291.882379
23.020000	312.083620
23.030000	329.454616
23.040000	333.918708
23.050000	345.072497
23.060000	360.657612
23.070000	405.728933
23.080000	429.150482
23.090000	434.498561
23.100000	457.694800
23.110000	481.083329
23.120000	486.198872
23.130000	500.756592
23.140000	515.562905
23.150000	545.456871
23.160000	589.845232
23.170000	602.993513
23.180000	616.299419
23.190000	634.416371
23.200000	670.736937
23.210000	670.736937
23.220000	670.736937
23.230000	658.967217
23.240000	627.547702
23.250000	583.216614
23.260000	543.919726
23.270000	514.386526
23.280000	486.212113
23.290000	484.604817
23.300000	473.937537
23.310000	473.291313
23.320000	463.201802
23.330000	438.281181
23.340000	413.112387
23.350000	343.418661
23.360000	28.546797
23.370000	-550.993358
23.380000	-1186.439360
23.390000	-1858.974960
23.400000	-2385.021264
23.410000	-2720.388074
23.420000	-2936.971056
23.430000	-2936.971056
23.440000	-2936.971056
23.450000	-2870.786020
23.460000	-2713.350959
23.470000	-2517.075243
23.480000	-2284.535624
23.490000	-2035.462821
23.500000	-1820.857662
23.510000	-1634.745631
23.520000	-1454.185034
23.530000	-1291.176556
23.540000	-1150.545037
23.550000	-1019.611933
23.560000	-922.057608
23.570000	-839.985994
23.580000	-774.675887
23.590000	-705.352687
23.600000	-613.353323
23.610000	-551.970518
23.620000	-448.739005
23.630000	-357.990398
23.640000	-283.038494
23.650000	-186.953813
23.660000	-107.597599
23.670000	-46.872795
23.680000	17.856233
23.690000	75.059798
23.700000	99.216921
23.710000	119.086628
23.720000	130.432007
23.730000	154.127324
23.740000	192.541030
23.750000	223.043994
23.760000	247.662272
23.770000	253.865051
23.780000	282.329092
23.790000	286.886401
23.800000	325.465567
23.810000	428.879541
23.820000	428.879541
23.830000	428.879541
23.840000	400.217095
23.850000	296.558847
23.860000	-253.011225
23.870000	-872.768209
23.880000	-1186.294866
23.890000	-1284.436010
23.900000	-1464.202279
23.910000	-1511.108273
23.920000	-1511.208883
23.930000	-1511.208883
23.940000	-1511.108273
23.950000	-1442.093563
23.960000	-1309.346174
23.970000	-1201.364632
23.980000	-1093.230635
23.990000	-1027.880541
24.000000	-945.892495
24.010000	-858.649509
24.020000	-805.690325
24.030000	-759.292421
24.040000	-759.292421
24.050000	-759.292421
24.060000	-770.507324
24.070000	-807.889855
24.080000	-820.415030
24.090000	-820.415030
24.100000	-820.415030
24.110000	-809.988565
24.120000	-772.305038
24.130000	-710.040562
24.140000	-634.447732
24.150000	-535.091803
24.160000	-441.759686
24.170000	-356.124592
24.180000	-273.111843
24.190000	-205.264474
24.200000	-171.540291
24.210000	-163.112397
24.220000	-153.359895
24.230000	-153.359895
24.240000	-163.112397
24.250000	-184.324413
24.260000	-191.714587
24.270000	-224.657522
24.280000	-258.297494
24.290000	-283.091006
24.300000	-293.598605
24.310000	-293.950913
24.320000	-294.321085
24.330000	-301.626210
24.340000	-306.243938
24.350000	-321.044391
24.360000	-323.929466
24.370000	-350.965293
24.380000	-390.541895
24.390000	-408.883100
24.400000	-457.446145
24.410000	-497.611157
24.420000	-517.481377
24.430000	-525.452463
24.440000	-554.641949
24.450000	-567.156091
24.460000	-579.007858
24.470000	-598.896826
24.480000	-598.896826
24.490000	-604.345242
24.500000	-606.787718
24.510000	-649.066886
24.520000	-688.463624
24.530000	-748.802312
24.540000	-807.145625
24.550000	-855.635535
24.560000	-922.984330
24.570000	-940.961156
24.580000	-948.278730
24.590000	-950.097370
24.600000	-950.097370
24.610000	-944.667765
24.620000	-944.667765
24.630000	-901.116358
24.640000	-863.218004
24.650000	-863.218004
24.660000	-860.740981
24.670000	-857.642239
24.680000	-856.969322
24.690000	-850.353495
24.700000	-842.608505
24.710000	-837.525878
24.720000	-818.949178
24.730000	-777.408616
24.740000	-763.785031
24.750000	-734.083688
24.760000	-697.820543
24.770000	-679.853351
24.780000	-661.789479
24.790000	-645.731275
24.800000	-625.788183
24.810000	-590.645773
24.820000	-543.878998
24.830000	-503.651294
24.840000	-483.006444
24.850000	-445.571515
24.860000	-404.319579
24.870000	-399.616857
24.880000	-381.532265
24.890000	-379.428535
24.900000	-370.929082
24.910000	-367.148616
24.920000	-353.877253
24.930000	-323.294055
24.940000	-300.389386
24.950000	-282.410907
24.960000	-258.927744
24.970000	-242.638306
24.980000	-200.386883
24.990000	-173.115642
25.000000	-140.724486
25.010000	-112.720115
25.020000	-104.122749
25.030000	-82.238750
25.040000	-78.337304
25.050000	-78.337304
25.060000	-78.337304
25.070000	-91.269377
25.080000	-119.106688
25.090000	-151.743781
25.100000	-164.880151
25.110000	-177.379495
25.120000	-189.645358
25.130000	-194.451048
25.140000	-194.451048
25.150000	-197.043509
25.160000	-198.887688
25.170000	-198.887688
25.180000	-198.887688
25.190000	-215.623215
25.200000	-215.623215
25.210000	-211.433874
25.220000	-215.623215
25.230000	-215.346282
25.240000	-214.787327
25.250000	-215.346282
25.260000	-215.346282
25.270000	-214.787327
25.280000	-206.887783
25.290000	-199.253319
25.300000	-190.983975
25.310000	-185.311872
25.320000	-179.098664
25.330000	-161.384602
25.340000	-139.298356
25.350000	-130.521297
25.360000	-113.424723
25.370000	-88.753748
25.380000	-71.680065
25.390000	-71.680065
25.400000	-71.680065
25.410000	-78.474185
25.420000	-118.895654
25.430000	-129.346175
25.440000	-131.645639
25.450000	-131.645639
25.460000	-130.368754
25.470000	-130.368754
25.480000	-111.863671
25.490000	-95.888285
25.500000	-77.100925
25.510000	-58.460084
25.520000	-44.371276
25.530000	-26.835674
25.540000	-19.005077
25.550000	-15.311649
25.560000	-10.543840
25.570000	-9.565723
25.580000	-2.259377
25.590000	3.103033
25.600000	27.077958
25.610000	46.626094
25.620000	82.509993
25.630000	96.963148
25.640000	102.054003
25.650000	124.315379
25.660000	138.431407
25.670000	138.431407
25.680000	138.431407
25.690000	88.313372
25.700000	65.013767
25.710000	65.013767
25.720000	65.013767
25.730000	140.391321
25.740000	166.648125
25.750000	166.648125
25.760000	166.648125
25.770000	128.023401
25.780000	99.299791
25.790000	82.894505
25.800000	48.843150
25.810000	41.951941
25.820000	41.951941
25.830000	41.951941
25.840000	45.450075
25.850000	47.641829
25.860000	56.214086
25.870000	62.417686
25.880000	69.308803
25.890000	78.554536
25.900000	394.796877
25.910000	414.520753
25.920000	418.672634
25.930000	451.040945
25.940000	456.261399
25.950000	479.823806
25.960000	493.634050
25.970000	535.774738
25.980000	544.719748
25.990000	565.502287
26.000000	566.510554
26.010000	567.181739
26.020000	567.181739
26.030000	574.983974
26.040000	575.795948
26.050000	588.234539
26.060000	592.553441
26.070000	598.311366
26.080000	616.548208
26.090000	635.054659
26.100000	656.882118
26.110000	674.760063
26.120000	675.189652
26.130000	694.593576
26.140000	701.301419
26.150000	713.555690
26.160000	717.316284
26.170000	731.600611
26.180000	741.229479
26.190000	751.694800
26.200000	758.082729
26.210000	758.082729
26.220000	758.082729
26.230000	728.670832
26.240000	707.570309
26.250000	704.198178
26.260000	704.198178
26.270000	707.570309
26.280000	707.940870
26.290000	735.765260
26.300000	753.737125
26.310000	775.926809
26.320000	796.473817
26.330000	809.082516
26.340000	838.290719
26.350000	844.056540
26.360000	861.309384
26.370000	867.869714
26.380000	877.422708
26.390000	879.500777
26.400000	886.558499
26.410000	889.469989
26.420000	889.469989
26.430000	898.249960
26.440000	906.656234
26.450000	927.059916
26.460000	943.864861
26.470000	944.668520
26.480000	944.776328
26.490000	946.440072
26.500000	946.440072
26.510000	958.642831
26.520000	946.974865
26.530000	946.440072
26.540000	945.949811
26.550000	940.051041
26.560000	925.846570
26.570000	879.949154
26.580000	840.889117
26.590000	812.750653
26.600000	775.864441
26.610000	774.726423
26.620000	765.595466
26.630000	761.325853
26.640000	757.846139
26.650000	756.884272
26.660000	754.028877
26.670000	753.663759
26.680000	742.100245
26.690000	738.196412
26.700000	737.413112
26.710000	729.246331
26.720000	714.222445
26.730000	690.260127
26.740000	681.001946
26.750000	654.192693
26.760000	645.967029
26.770000	645.729546
26.780000	643.984924
26.790000	643.016930
26.800000	643.016930
26.810000	642.322728
26.820000	642.322728
26.830000	642.322728
26.840000	642.322728
26.850000	642.346979
26.860000	645.843942
26.870000	642.346979
26.880000	637.607658
26.890000	612.473946
26.900000	566.033939
26.910000	528.443546
26.920000	520.874465
26.930000	509.257673
26.940000	486.785996
26.950000	484.170848
26.960000	479.246892
26.970000	479.246892
26.980000	478.176282
26.990000	478.176282
27.000000	476.935946
27.010000	474.046854
27.020000	472.718873
27.030000	469.578442
27.040000	469.578442
27.050000	453.865094
27.060000	435.470915
27.070000	420.671302
27.080000	420.671302
27.090000	414.474430
27.100000	412.348157
27.110000	407.195692
27.120000	407.195692
27.130000	407.195692
27.140000	416.191688
27.150000	431.495722
27.160000	467.187670
27.170000	486.011923
27.180000	517.359001
27.190000	551.412546
27.200000	578.522700
27.210000	610.864825
27.220000	626.584440
27.230000	708.596159
27.240000	711.453764
27.250000	714.952923
27.260000	719.789936
27.270000	719.789936
27.280000	731.312881
27.290000	731.312881
27.300000	731.312881
27.310000	722.150192
27.320000	709.485303
27.330000	688.430382
27.340000	676.708569
27.350000	667.632007
27.360000	651.912910
27.370000	643.886463
27.380000	643.886463
27.390000	643.886463
27.400000	722.245631
27.410000	734.912486
27.420000	734.912486
27.430000	734.912486
27.440000	730.117934
27.450000	706.626708
27.460000	679.126999
27.470000	654.920941
27.480000	648.186743
27.490000	643.125770
27.500000	643.125770
27.510000	648.186743
27.520000	650.815881
27.530000	673.940122
27.540000	685.601657
27.550000	690.341218
27.560000	692.324085
27.570000	706.256418
27.580000	706.256418
27.590000	706.256418
27.600000	694.561398
27.610000	686.633659
27.620000	665.155193
27.630000	649.090040
27.640000	636.051258
27.650000	636.051258
27.660000	636.051258
27.670000	636.051258
27.680000	636.051258
27.690000	641.385659
27.700000	641.385659
27.710000	661.091506
27.720000	679.023439
27.730000	699.654775
27.740000	734.237377
27.750000	760.099499
27.760000	781.499476
27.770000	802.957683
27.780000	802.957683
27.790000	802.957683
27.800000	791.980236
27.810000	770.073059
27.820000	766.136970
27.830000	766.136970
27.840000	766.136970
27.850000	773.367122
27.860000	773.367122
27.870000	773.367122
27.880000	756.777653
27.890000	750.223889
27.900000	741.485718
27.910000	719.739052
27.920000	704.243037
27.930000	689.151376
27.940000	654.783659
27.950000	649.914584
27.960000	621.136294
27.970000	609.773882
27.980000	599.815810
27.990000	599.815810
28.000000	599.095161
28.010000	599.815810
28.020000	592.444160
28.030000	602.437533
28.040000	592.444160
28.050000	602.437533
28.060000	590.651503
28.070000	582.457032
28.080000	582.457032
28.090000	619.269348
28.100000	1188.724809
28.110000	1359.515118
28.120000	1480.861448
28.130000	1641.014758
28.140000	1730.409165
28.150000	1888.151179
28.160000	2007.234075
28.170000	2117.616312
28.180000	2181.825663
28.190000	2294.395232
28.200000	2294.395232
28.210000	2294.395232
28.220000	2133.504713
28.230000	1910.971988
28.240000	1693.895045
28.250000	1133.427149
28.260000	533.023210
28.270000	140.675452
28.280000	-183.970541
28.290000	-491.886814
28.300000	-751.795223
28.310000	-905.432573
28.320000	-1110.270818
28.330000	-1224.782921
28.340000	-1224.782921
28.350000	-1224.782921
28.360000	-1197.977163
28.370000	-1197.977163
28.380000	-1197.977163
28.390000	-1250.502190
28.400000	-1286.666933
28.410000	-1294.928593
28.420000	-1371.718978
28.430000	-1523.173396
28.440000	-1687.651963
28.450000	-1951.893498
28.460000	-2327.446864
28.470000	-2772.536223
28.480000	-3181.135021
28.490000	-3489.365065
28.500000	-3818.402405
28.510000	-4101.750000
28.520000	-4264.719411
28.530000	-4264.719411
28.540000	-4265.394280
28.550000	-4265.471578
28.560000	-4265.394280
28.570000	-4249.983224
28.580000	-4199.777947
28.590000	-4149.378411
28.600000	-4119.386634
28.610000	-4062.216583
28.620000	-4024.330022
28.630000	-4016.032125
28.640000	-3999.217381
28.650000	-3976.035396
28.660000	-3891.023879
28.670000	-3668.059478
28.680000	-3412.406286
28.690000	-3172.003963
28.700000	-2809.357344
28.710000	-2422.673876
28.720000	-2171.555151
28.730000	-1969.746705
28.740000	-1704.759117
28.750000	-1378.211182
28.760000	-1102.345173
28.770000	-892.487729
28.780000	-766.015107
28.790000	-614.496973
28.800000	-394.942992
28.810000	-209.984369
28.820000	-62.675546
28.830000	71.525899
28.840000	200.467947
28.850000	339.980021
28.860000	516.562714
28.870000	516.562714
28.880000	516.562714
28.890000	460.048903
28.900000	394.969432
28.910000	326.101674
28.920000	258.940193
28.930000	176.013488
28.940000	113.981764
28.950000	76.272296
28.960000	76.272296
28.970000	76.272296
28.980000	77.983406
28.990000	85.764932
29.000000	99.877174
29.010000	125.192428
29.020000	148.643868
29.030000	172.584477
29.040000	172.584477
29.050000	172.584477
29.060000	166.647973
29.070000	122.502524
29.080000	92.042428
29.090000	50.726220
