Time(s)	RED_denoised_wiener
0.000000	-141.743745
0.010000	-192.212784
0.020000	-156.810002
0.030000	-123.303516
0.040000	-89.176773
0.050000	-51.408032
0.060000	-19.593066
0.070000	10.176646
0.080000	30.946547
0.090000	49.451638
0.100000	59.102583
0.110000	46.026616
0.120000	-4.423212
0.130000	-96.048016
0.140000	-194.857638
0.150000	-279.168574
0.160000	-339.671203
0.170000	-371.312336
0.180000	-388.549561
0.190000	-402.123449
0.200000	-414.749794
0.210000	-420.922248
0.220000	-410.614229
0.230000	-397.796590
0.240000	-386.126313
0.250000	-382.020830
0.260000	-391.646363
0.270000	-403.204056
0.280000	-409.520446
0.290000	-405.400376
0.300000	-401.445240
0.310000	-398.242843
0.320000	-391.362892
0.330000	-378.096336
0.340000	-362.973044
0.350000	-346.611353
0.360000	-321.900550
0.370000	-294.165419
0.380000	-264.821859
0.390000	-235.056370
0.400000	-204.409133
0.410000	-172.283737
0.420000	-134.322506
0.430000	-95.205325
0.440000	-58.234461
0.450000	-33.480837
0.460000	-6.413812
0.470000	25.208635
0.480000	62.068321
0.490000	96.875682
0.500000	128.233140
0.510000	155.210884
0.520000	185.087742
0.530000	203.487545
0.540000	194.272138
0.550000	142.101396
0.560000	61.206447
0.570000	-24.923605
0.580000	-96.533417
0.590000	-116.230389
0.600000	-104.428583
0.610000	-83.204576
0.620000	-84.011979
0.630000	-86.030636
0.640000	-73.270393
0.650000	-51.578061
0.660000	-31.870423
0.670000	-14.423589
0.680000	5.884076
0.690000	35.407673
0.700000	69.950024
0.710000	104.911961
0.720000	138.030216
0.730000	173.107768
0.740000	207.100155
0.750000	238.984711
0.760000	266.509329
0.770000	293.554804
0.780000	323.259795
0.790000	349.108734
0.800000	376.386713
0.810000	401.649750
0.820000	428.544518
0.830000	455.855839
0.840000	485.389392
0.850000	519.743220
0.860000	548.879017
0.870000	574.676462
0.880000	603.728381
0.890000	634.267201
0.900000	646.542472
0.910000	617.530056
0.920000	544.092613
0.930000	447.207556
0.940000	357.685149
0.950000	306.902310
0.960000	285.515180
0.970000	276.258280
0.980000	264.702945
0.990000	251.338800
1.000000	256.963695
1.010000	272.020116
1.020000	293.928072
1.030000	304.008638
1.040000	304.301068
1.050000	297.016303
1.060000	289.707696
1.070000	280.684489
1.080000	276.824051
1.090000	275.011707
1.100000	273.631279
1.110000	277.710876
1.120000	286.777376
1.130000	309.790207
1.140000	329.873709
1.150000	345.600099
1.160000	360.338285
1.170000	388.796471
1.180000	422.762176
1.190000	459.363375
1.200000	484.845636
1.210000	509.686551
1.220000	522.559180
1.230000	544.455383
1.240000	564.208203
1.250000	592.307750
1.260000	609.132149
1.270000	628.275881
1.280000	637.677063
1.290000	585.158833
1.300000	522.867067
1.310000	464.962908
1.320000	463.185955
1.330000	465.842116
1.340000	468.661197
1.350000	487.469499
1.360000	504.069511
1.370000	524.857824
1.380000	535.781920
1.390000	554.694238
1.400000	559.411691
1.410000	571.344564
1.420000	574.967718
1.430000	594.130925
1.440000	610.770027
1.450000	645.384784
1.460000	675.148426
1.470000	711.762070
1.480000	734.132177
1.490000	676.157831
1.500000	460.828751
1.510000	386.548590
1.520000	386.976832
1.530000	399.907716
1.540000	404.154303
1.550000	414.395165
1.560000	415.279249
1.570000	419.322576
1.580000	405.007609
1.590000	400.416572
1.600000	398.670430
1.610000	408.918534
1.620000	413.624022
1.630000	415.506988
1.640000	419.614980
1.650000	431.795395
1.660000	450.282898
1.670000	474.785830
1.680000	491.277848
1.690000	509.874098
1.700000	525.596306
1.710000	554.050631
1.720000	583.872510
1.730000	610.945656
1.740000	628.506784
1.750000	641.571792
1.760000	658.181539
1.770000	682.887261
1.780000	708.188854
1.790000	730.913678
1.800000	747.226810
1.810000	764.336281
1.820000	781.274892
1.830000	800.467498
1.840000	797.949838
1.850000	759.992879
1.860000	671.988460
1.870000	572.029131
1.880000	479.675669
1.890000	369.641716
1.900000	267.869777
1.910000	174.549783
1.920000	137.561096
1.930000	114.910583
1.940000	104.394621
1.950000	98.957655
1.960000	89.254800
1.970000	87.430033
1.980000	83.086028
1.990000	95.684056
2.000000	107.180557
2.010000	126.378132
2.020000	144.593384
2.030000	166.475156
2.040000	186.009929
2.050000	200.948861
2.060000	209.126379
2.070000	219.820342
2.080000	231.245458
2.090000	244.064895
2.100000	252.713775
2.110000	267.385737
2.120000	279.496855
2.130000	296.784405
2.140000	312.606765
2.150000	333.251563
2.160000	337.340324
2.170000	313.445675
2.180000	248.101221
2.190000	117.848364
2.200000	-14.073097
2.210000	-100.086135
2.220000	-110.804090
2.230000	-127.087496
2.240000	-146.607111
2.250000	-153.686065
2.260000	-157.111212
2.270000	-153.217674
2.280000	-155.964308
2.290000	-83.453280
2.300000	-8.543077
2.310000	75.562587
2.320000	96.025446
2.330000	118.992855
2.340000	138.762612
2.350000	158.480059
2.360000	181.533065
2.370000	203.311230
2.380000	197.944376
2.390000	98.173857
2.400000	-5.135835
2.410000	-86.418739
2.420000	-94.070393
2.430000	-107.559625
2.440000	-126.085358
2.450000	-128.278247
2.460000	-134.181647
2.470000	-132.879437
2.480000	-133.300060
2.490000	-121.050878
2.500000	-111.133529
2.510000	-95.794157
2.520000	-82.977802
2.530000	-62.455220
2.540000	-40.501788
2.550000	-11.718615
2.560000	14.967136
2.570000	41.413190
2.580000	60.777731
2.590000	5.410198
2.600000	-61.353037
2.610000	-124.693862
2.620000	-121.986987
2.630000	-98.729390
2.640000	-79.197167
2.650000	-51.633810
2.660000	-34.458095
2.670000	-9.739608
2.680000	9.227324
2.690000	35.592656
2.700000	58.879939
2.710000	83.665007
2.720000	105.539947
2.730000	128.793300
2.740000	154.890915
2.750000	182.947168
2.760000	204.252414
2.770000	227.848465
2.780000	246.935729
2.790000	270.157487
2.800000	295.287816
2.810000	316.488526
2.820000	337.698675
2.830000	352.155401
2.840000	347.793508
2.850000	309.178198
2.860000	225.599802
2.870000	132.359152
2.880000	47.055897
2.890000	-23.457694
2.900000	-79.141702
2.910000	-123.251944
2.920000	-137.582073
2.930000	-131.757724
2.940000	-122.009038
2.950000	-115.540537
2.960000	-115.727340
2.970000	-108.577534
2.980000	-88.771377
2.990000	-65.289088
3.000000	-47.451659
3.010000	-29.929073
3.020000	-12.782115
3.030000	15.159727
3.040000	33.164383
3.050000	54.372777
3.060000	75.430095
3.070000	105.986037
3.080000	132.663692
3.090000	102.855983
3.100000	40.137599
3.110000	-34.917940
3.120000	-72.945071
3.130000	-90.508634
3.140000	-100.653793
3.150000	-95.678094
3.160000	-83.039936
3.170000	-66.138881
3.180000	-50.735067
3.190000	-42.568814
3.200000	-45.059719
3.210000	-58.626428
3.220000	-75.330703
3.230000	-87.320256
3.240000	-91.918572
3.250000	-88.656176
3.260000	-83.827743
3.270000	-77.945629
3.280000	-69.032850
3.290000	-53.533543
3.300000	-30.548074
3.310000	-3.435999
3.320000	19.286339
3.330000	43.063667
3.340000	63.791612
3.350000	87.621899
3.360000	112.638434
3.370000	140.219531
3.380000	163.492922
3.390000	151.447833
3.400000	106.803661
3.410000	42.066598
3.420000	-8.127931
3.430000	-42.375714
3.440000	-58.694435
3.450000	-65.483068
3.460000	-64.546051
3.470000	-56.222984
3.480000	-42.706033
3.490000	-33.285701
3.500000	-31.152595
3.510000	-34.304181
3.520000	-41.237246
3.530000	-47.952550
3.540000	-56.642339
3.550000	-59.543705
3.560000	-63.056486
3.570000	-62.073434
3.580000	-54.783222
3.590000	-44.253458
3.600000	-26.126482
3.610000	-14.454320
3.620000	7.310671
3.630000	26.962189
3.640000	53.836650
3.650000	71.671355
3.660000	96.146639
3.670000	122.353557
3.680000	149.831742
3.690000	237.561890
3.700000	312.182871
3.710000	368.654024
3.720000	351.424729
3.730000	342.820941
3.740000	365.197936
3.750000	381.520767
3.760000	385.418023
3.770000	351.196814
3.780000	304.140701
3.790000	253.524762
3.800000	214.909802
3.810000	187.837826
3.820000	173.713080
3.830000	160.476256
3.840000	156.601718
3.850000	161.786154
3.860000	177.524148
3.870000	200.779075
3.880000	207.417380
3.890000	208.898443
3.900000	211.324530
3.910000	226.729340
3.920000	239.183387
3.930000	218.883916
3.940000	191.222226
3.950000	146.303231
3.960000	100.361086
3.970000	26.966890
3.980000	-66.378743
3.990000	-150.281264
4.000000	-205.785929
4.010000	-201.801503
4.020000	-147.275234
4.030000	-54.636858
4.040000	63.262018
4.050000	179.851094
4.060000	280.192141
4.070000	358.057159
4.080000	421.856593
4.090000	469.929620
4.100000	492.526148
4.110000	478.492140
4.120000	423.909417
4.130000	337.115416
4.140000	231.667372
4.150000	129.120926
4.160000	28.055735
4.170000	-70.841015
4.180000	-158.840476
4.190000	-222.429898
4.200000	-268.432710
4.210000	-309.341273
4.220000	-366.690119
4.230000	-445.848672
4.240000	-530.862799
4.250000	-603.991748
4.260000	-657.704180
4.270000	-709.176752
4.280000	-751.787666
4.290000	-780.005618
4.300000	-772.802850
4.310000	-738.556230
4.320000	-674.762520
4.330000	-586.435237
4.340000	-480.033952
4.350000	-369.308763
4.360000	-277.973950
4.370000	-205.757639
4.380000	-155.563928
4.390000	-142.213864
4.400000	-152.050334
4.410000	-163.289105
4.420000	-153.843938
4.430000	-146.796452
4.440000	-145.892507
4.450000	-155.613914
4.460000	-171.892373
4.470000	-194.082242
4.480000	-199.473119
4.490000	-185.580958
4.500000	-152.703023
4.510000	-136.484960
4.520000	-135.138322
4.530000	-173.771059
4.540000	-207.021642
4.550000	-239.836915
4.560000	-245.793726
4.570000	-262.386591
4.580000	-265.705430
4.590000	-223.790652
4.600000	293.200409
4.610000	399.447302
4.620000	458.619606
4.630000	487.662440
4.640000	524.799347
4.650000	554.755669
4.660000	597.768306
4.670000	623.401389
4.680000	653.572709
4.690000	667.287543
4.700000	671.478754
4.710000	634.425773
4.720000	571.539121
4.730000	484.551271
4.740000	387.324263
4.750000	267.964110
4.760000	150.566288
4.770000	58.733579
4.780000	31.542077
4.790000	63.404924
4.800000	149.210328
4.810000	259.701056
4.820000	365.903743
4.830000	436.013739
4.840000	476.727172
4.850000	498.694827
4.860000	513.911775
4.870000	508.996967
4.880000	484.826216
4.890000	449.008210
4.900000	422.467767
4.910000	407.659180
4.920000	402.119524
4.930000	402.999384
4.940000	410.135536
4.950000	432.053574
4.960000	465.141576
4.970000	499.446955
4.980000	533.193248
4.990000	566.535385
5.000000	609.962947
5.010000	656.933237
5.020000	697.746738
5.030000	728.703550
5.040000	741.540527
5.050000	742.201963
5.060000	741.703865
5.070000	736.683038
5.080000	716.870256
5.090000	677.534539
5.100000	640.798809
5.110000	617.376293
5.120000	603.041101
5.130000	578.197113
5.140000	525.644429
5.150000	450.433335
5.160000	365.958131
5.170000	297.054935
5.180000	243.556939
5.190000	207.369162
5.200000	186.164215
5.210000	174.026781
5.220000	178.160588
5.230000	181.971922
5.240000	184.218492
5.250000	181.263000
5.260000	172.971684
5.270000	157.234128
5.280000	134.082718
5.290000	113.584586
5.300000	102.870600
5.310000	95.916969
5.320000	99.377834
5.330000	105.226704
5.340000	118.605383
5.350000	125.166865
5.360000	145.278704
5.370000	161.353011
5.380000	189.060076
5.390000	289.928198
5.400000	399.804550
5.410000	478.508208
5.420000	446.415252
5.430000	374.764865
5.440000	280.224905
5.450000	165.665587
5.460000	67.475037
5.470000	-13.182229
5.480000	-67.572717
5.490000	-112.753100
5.500000	-135.523135
5.510000	-144.369516
5.520000	-125.398276
5.530000	-85.696630
5.540000	-33.931037
5.550000	-3.411590
5.560000	-5.390249
5.570000	-30.724446
5.580000	-60.142429
5.590000	-78.035026
5.600000	-73.896500
5.610000	-57.723333
5.620000	-45.321483
5.630000	-48.388854
5.640000	-60.685906
5.650000	-79.720247
5.660000	-100.031296
5.670000	-112.698128
5.680000	-106.693767
5.690000	-90.051430
5.700000	-58.980371
5.710000	-23.766876
5.720000	28.138729
5.730000	86.798696
5.740000	144.272559
5.750000	194.043885
5.760000	226.740715
5.770000	262.378421
5.780000	302.499895
5.790000	340.699344
5.800000	348.539907
5.810000	310.062336
5.820000	222.958331
5.830000	120.864758
5.840000	21.005497
5.850000	-51.972161
5.860000	-97.339647
5.870000	-118.146291
5.880000	-125.701197
5.890000	-129.308853
5.900000	-123.014993
5.910000	-109.489474
5.920000	-89.986155
5.930000	-69.341405
5.940000	-56.964896
5.950000	-48.149796
5.960000	-57.659225
5.970000	-68.199132
5.980000	-86.415178
5.990000	-101.195780
6.000000	-113.534006
6.010000	-121.180028
6.020000	-122.985913
6.030000	-117.827939
6.040000	-108.445568
6.050000	-95.133147
6.060000	-86.592536
6.070000	-73.720548
6.080000	-61.442671
6.090000	-39.263769
6.100000	-17.013677
6.110000	12.240463
6.120000	25.333861
6.130000	41.528895
6.140000	57.954740
6.150000	100.898004
6.160000	121.035004
6.170000	148.151241
6.180000	147.270704
6.190000	108.261450
6.200000	-417.664050
6.210000	-459.733555
6.220000	-452.702388
6.230000	-428.211255
6.240000	-418.399129
6.250000	-396.528715
6.260000	-385.567387
6.270000	-353.029064
6.280000	-324.564044
6.290000	-287.091951
6.300000	-269.010394
6.310000	-245.009951
6.320000	-226.226320
6.330000	-195.854203
6.340000	-173.211302
6.350000	-145.279666
6.360000	-123.266356
6.370000	-100.994429
6.380000	-82.018697
6.390000	-59.016719
6.400000	-43.159410
6.410000	-54.066635
6.420000	-107.962056
6.430000	-200.063627
6.440000	-305.715061
6.450000	-390.037660
6.460000	-455.910393
6.470000	-495.989075
6.480000	-532.191725
6.490000	-567.561108
6.500000	-593.112645
6.510000	-616.184086
6.520000	-621.644791
6.530000	-621.889086
6.540000	-612.804837
6.550000	-597.286710
6.560000	-580.645038
6.570000	-557.996661
6.580000	-534.854248
6.590000	-516.713818
6.600000	-496.369282
6.610000	-475.797029
6.620000	-453.883449
6.630000	-429.889003
6.640000	-407.417393
6.650000	-380.295416
6.660000	-358.002394
6.670000	-334.333589
6.680000	-317.635635
6.690000	-311.032459
6.700000	-330.312131
6.710000	-388.732949
6.720000	-470.918644
6.730000	-563.781813
6.740000	-638.825009
6.750000	-694.246262
6.760000	-715.705952
6.770000	-715.793768
6.780000	-711.608447
6.790000	-709.320497
6.800000	-707.833621
6.810000	-693.823005
6.820000	-683.816879
6.830000	-671.605873
6.840000	-668.858765
6.850000	-667.009399
6.860000	-676.295239
6.870000	-687.703030
6.880000	-692.074325
6.890000	-683.080805
6.900000	-664.557720
6.910000	-645.148199
6.920000	-627.033126
6.930000	-610.219393
6.940000	-590.841008
6.950000	-569.646376
6.960000	-544.651164
6.970000	-510.741204
6.980000	-473.166218
6.990000	-430.159850
7.000000	-400.748120
7.010000	-374.507333
7.020000	-353.039421
7.030000	-331.179242
7.040000	-301.333706
7.050000	-272.907462
7.060000	-241.265694
7.070000	-234.735781
7.080000	-264.827690
7.090000	-332.878990
7.100000	-423.687050
7.110000	-510.667026
7.120000	-582.597990
7.130000	-632.141731
7.140000	-668.898078
7.150000	-694.938334
7.160000	-710.870001
7.170000	-706.714995
7.180000	-697.252323
7.190000	-686.471022
7.200000	-679.312861
7.210000	-680.234575
7.220000	-684.690785
7.230000	-695.694248
7.240000	-699.364250
7.250000	-703.889717
7.260000	-709.357212
7.270000	-714.757159
7.280000	-705.989096
7.290000	-694.703430
7.300000	-674.913861
7.310000	-666.060739
7.320000	-652.750700
7.330000	-634.466526
7.340000	-611.931767
7.350000	-581.868676
7.360000	-561.509715
7.370000	-530.842268
7.380000	-509.202662
7.390000	-479.054694
7.400000	-455.658976
7.410000	-423.188200
7.420000	-393.196801
7.430000	-362.955283
7.440000	-338.096906
7.450000	-310.356670
7.460000	-289.050941
7.470000	-274.070973
7.480000	-300.105845
7.490000	-402.530836
7.500000	-581.982228
7.510000	-660.918881
7.520000	-662.154154
7.530000	-672.426572
7.540000	-691.013074
7.550000	-697.216748
7.560000	-697.617391
7.570000	-692.326100
7.580000	-688.578012
7.590000	-684.413390
7.600000	-673.863933
7.610000	-660.863969
7.620000	-641.464068
7.630000	-620.674797
7.640000	-591.032015
7.650000	-561.532675
7.660000	-524.890169
7.670000	-494.782823
7.680000	-463.691209
7.690000	-382.586486
7.700000	-323.157748
7.710000	-312.935880
7.720000	-392.660656
7.730000	-482.620941
7.740000	-542.604950
7.750000	-589.462025
7.760000	-615.815069
7.770000	-639.370763
7.780000	-645.267554
7.790000	-651.033333
7.800000	-635.946239
7.810000	-632.840633
7.820000	-617.799729
7.830000	-627.143761
7.840000	-628.126941
7.850000	-639.919259
7.860000	-619.947375
7.870000	-605.242559
7.880000	-568.586859
7.890000	-504.380430
7.900000	181.075772
7.910000	243.580973
7.920000	268.031978
7.930000	267.765053
7.940000	276.269368
7.950000	266.121923
7.960000	276.697302
7.970000	280.970489
7.980000	313.970058
7.990000	345.648356
8.000000	378.005857
8.010000	359.186971
8.020000	292.535579
8.030000	177.056292
8.040000	70.235524
8.050000	-10.173613
8.060000	-27.335242
8.070000	-6.897956
8.080000	33.125782
8.090000	64.026109
8.100000	92.027517
8.110000	119.618309
8.120000	162.644642
8.130000	209.146476
8.140000	251.619979
8.150000	286.698949
8.160000	316.623957
8.170000	345.603700
8.180000	368.282168
8.190000	386.542466
8.200000	415.992500
8.210000	451.773065
8.220000	497.741775
8.230000	540.972854
8.240000	590.567118
8.250000	642.819989
8.260000	705.105681
8.270000	746.578547
8.280000	771.758043
8.290000	822.456462
8.300000	878.256676
8.310000	920.356255
8.320000	907.043412
8.330000	857.775322
8.340000	790.176622
8.350000	707.172424
8.360000	650.769140
8.370000	640.526731
8.380000	682.008959
8.390000	779.897907
8.400000	922.086684
8.410000	1072.213331
8.420000	1185.449694
8.430000	1245.284458
8.440000	1287.507828
8.450000	1322.639980
8.460000	1343.203838
8.470000	1337.337596
8.480000	1312.975179
8.490000	1280.061848
8.500000	1240.077855
8.510000	1192.802811
8.520000	1151.572605
8.530000	1118.200416
8.540000	1099.770230
8.550000	1095.598521
8.560000	1099.641729
8.570000	1115.043877
8.580000	1132.835388
8.590000	1154.205976
8.600000	1150.636354
8.610000	1130.491679
8.620000	1109.145589
8.630000	1098.456792
8.640000	1091.626015
8.650000	1070.747202
8.660000	1050.217658
8.670000	1036.705561
8.680000	1034.157683
8.690000	1039.667626
8.700000	1042.766129
8.710000	1025.966269
8.720000	968.722011
8.730000	885.048987
8.740000	793.713396
8.750000	686.747369
8.760000	560.739682
8.770000	429.849684
8.780000	325.836601
8.790000	241.868247
8.800000	172.626534
8.810000	113.243513
8.820000	60.777165
8.830000	12.976026
8.840000	-25.029973
8.850000	-45.595990
8.860000	-45.494071
8.870000	-31.172806
8.880000	-6.930546
8.890000	17.590694
8.900000	35.662582
8.910000	55.082296
8.920000	72.580127
8.930000	94.287807
8.940000	125.851032
8.950000	180.201297
8.960000	248.750739
8.970000	310.100779
8.980000	356.041116
8.990000	408.437250
9.000000	471.637699
9.010000	533.750028
9.020000	579.245137
9.030000	611.468751
9.040000	645.906611
9.050000	686.175486
9.060000	738.930288
9.070000	793.187546
9.080000	832.960568
9.090000	844.893745
9.100000	831.721851
9.110000	787.596404
9.120000	713.521878
9.130000	631.041947
9.140000	570.365386
9.150000	547.467953
9.160000	538.786387
9.170000	535.620736
9.180000	527.555159
9.190000	521.172550
9.200000	514.653048
9.210000	511.424156
9.220000	507.081321
9.230000	496.024219
9.240000	468.850736
9.250000	441.044054
9.260000	420.283307
9.270000	422.437473
9.280000	432.983324
9.290000	426.819252
9.300000	454.575249
9.310000	535.799390
9.320000	662.775839
9.330000	772.310516
9.340000	836.422989
9.350000	884.662637
9.360000	902.966475
9.370000	891.402823
9.380000	834.148695
9.390000	736.549987
9.400000	621.059853
9.410000	516.730337
9.420000	437.945559
9.430000	387.226041
9.440000	351.803643
9.450000	343.135747
9.460000	350.280766
9.470000	375.428505
9.480000	400.381970
9.490000	422.443660
9.500000	440.834689
9.510000	453.467884
9.520000	456.628679
9.530000	459.874043
9.540000	470.093901
9.550000	505.656691
9.560000	533.429035
9.570000	556.884312
9.580000	549.693138
9.590000	484.529072
9.600000	92.346192
9.610000	-9.679694
9.620000	-44.851576
9.630000	-40.226688
9.640000	-46.821572
9.650000	-46.240847
9.660000	-47.525018
9.670000	-35.513582
9.680000	-31.320089
9.690000	-26.697955
9.700000	-46.197802
9.710000	-76.103404
9.720000	-125.130253
9.730000	-170.749782
9.740000	-216.126965
9.750000	-249.014469
9.760000	-279.178391
9.770000	-297.889555
9.780000	-304.246125
9.790000	-304.780143
9.800000	-303.635991
9.810000	-300.988791
9.820000	-281.311964
9.830000	-245.572241
9.840000	-199.330322
9.850000	-150.826414
9.860000	-110.017021
9.870000	-80.059135
9.880000	-68.045346
9.890000	-79.284701
9.900000	-123.416903
9.910000	-196.805399
9.920000	-280.745595
9.930000	-353.984541
9.940000	-403.763316
9.950000	-433.875101
9.960000	-448.782417
9.970000	-455.438960
9.980000	-445.426002
9.990000	-433.065561
10.000000	-417.361371
10.010000	-411.064016
10.020000	-405.906681
10.030000	-410.777487
10.040000	-420.414591
10.050000	-432.500740
10.060000	-431.554932
10.070000	-431.306362
10.080000	-427.982900
10.090000	-345.917100
10.100000	-245.453899
10.110000	-143.411297
10.120000	-115.422993
10.130000	-87.497968
10.140000	-60.935850
10.150000	-59.316344
10.160000	-101.105381
10.170000	-185.419167
10.180000	-283.536250
10.190000	-382.235899
10.200000	-431.537697
10.210000	-445.232861
10.220000	-417.156273
10.230000	-395.384273
10.240000	-370.288693
10.250000	-342.235660
10.260000	-311.092458
10.270000	-283.779322
10.280000	-255.871486
10.290000	-227.675919
10.300000	-200.660487
10.310000	-174.240511
10.320000	-149.461111
10.330000	-127.813650
10.340000	-122.635100
10.350000	-140.375547
10.360000	-199.182398
10.370000	-292.544406
10.380000	-391.676714
10.390000	-470.729691
10.400000	-521.561532
10.410000	-550.296192
10.420000	-568.135830
10.430000	-575.843045
10.440000	-572.046783
10.450000	-556.402054
10.460000	-543.006893
10.470000	-539.954203
10.480000	-542.608488
10.490000	-544.511264
10.500000	-549.247723
10.510000	-557.069355
10.520000	-565.222355
10.530000	-573.979537
10.540000	-576.521408
10.550000	-576.596097
10.560000	-567.134886
10.570000	-550.583035
10.580000	-527.086406
10.590000	-501.594295
10.600000	-475.372372
10.610000	-452.290703
10.620000	-435.668248
10.630000	-415.963305
10.640000	-387.987688
10.650000	-355.338396
10.660000	-328.671627
10.670000	-303.350008
10.680000	-279.380260
10.690000	-256.038296
10.700000	-235.776377
10.710000	-209.707606
10.720000	-179.881436
10.730000	-164.433408
10.740000	-182.334503
10.750000	-250.165092
10.760000	-339.342709
10.770000	-426.924848
10.780000	-489.361892
10.790000	-532.110312
10.800000	-564.738469
10.810000	-582.602899
10.820000	-589.484395
10.830000	-588.439757
10.840000	-581.574013
10.850000	-579.312485
10.860000	-566.606721
10.870000	-559.951605
10.880000	-565.624488
10.890000	-544.479117
10.900000	-504.785663
10.910000	-449.003867
10.920000	-409.040933
10.930000	-379.104970
10.940000	-342.947391
10.950000	-314.301672
10.960000	-283.135166
10.970000	-255.221718
10.980000	-230.988188
10.990000	-207.813326
11.000000	-197.560928
11.010000	-216.430108
11.020000	-272.123594
11.030000	-352.004282
11.040000	-430.664437
11.050000	-497.298474
11.060000	-531.859800
11.070000	-552.042878
11.080000	-558.688746
11.090000	-550.461156
11.100000	-528.203510
11.110000	-497.906711
11.120000	-480.104660
11.130000	-474.307601
11.140000	-461.969259
11.150000	-439.763297
11.160000	-402.174141
11.170000	-376.321546
11.180000	-348.613409
11.190000	-269.794667
11.200000	-219.753482
11.210000	-224.800013
11.220000	-314.582049
11.230000	-402.832929
11.240000	-463.923038
11.250000	-517.335567
11.260000	-549.853300
11.270000	-569.241523
11.280000	-570.761502
11.290000	-572.555868
11.300000	-567.612752
11.310000	-558.909707
11.320000	-542.791089
11.330000	-536.666622
11.340000	-538.594739
11.350000	-552.116966
11.360000	-567.373185
11.370000	-584.272313
11.380000	-587.120177
11.390000	-583.502894
11.400000	-568.844948
11.410000	-560.471360
11.420000	-540.818177
11.430000	-527.213154
11.440000	-505.716228
11.450000	-491.044229
11.460000	-464.198787
11.470000	-432.290655
11.480000	-399.683970
11.490000	-294.337255
11.500000	-210.636142
11.510000	-166.516953
11.520000	-242.436288
11.530000	-347.234736
11.540000	-430.357247
11.550000	-497.449348
11.560000	-528.550193
11.570000	-558.824193
11.580000	-575.620476
11.590000	-590.941920
11.600000	-589.624480
11.610000	-580.801213
11.620000	-567.954287
11.630000	-558.679619
11.640000	-552.937422
11.650000	-555.244655
11.660000	-562.239510
11.670000	-564.466689
11.680000	-551.211679
11.690000	-528.407788
11.700000	-492.831837
11.710000	-437.344397
11.720000	-369.498406
11.730000	-291.271539
11.740000	-213.862600
11.750000	-125.474267
11.760000	-35.958116
11.770000	43.982355
11.780000	108.287702
11.790000	159.457953
11.800000	204.207447
11.810000	243.914801
11.820000	293.828077
11.830000	355.664162
11.840000	429.440600
11.850000	489.673588
11.860000	537.456438
11.870000	586.715457
11.880000	635.091616
11.890000	681.424890
11.900000	704.669981
11.910000	714.550166
11.920000	704.869482
11.930000	675.691010
11.940000	619.379734
11.950000	531.171814
11.960000	422.934578
11.970000	290.942208
11.980000	154.552074
11.990000	45.412443
12.000000	1.185668
12.010000	17.433454
12.020000	57.731313
12.030000	92.807508
12.040000	118.679977
12.050000	129.175931
12.060000	130.329379
12.070000	122.863806
12.080000	110.654970
12.090000	98.221134
12.100000	85.636200
12.110000	90.628286
12.120000	108.557484
12.130000	142.391311
12.140000	171.415525
12.150000	195.880538
12.160000	207.585795
12.170000	223.775243
12.180000	247.051595
12.190000	218.837804
12.200000	167.425359
12.210000	88.814529
12.220000	33.284537
12.230000	-23.076039
12.240000	-77.780494
12.250000	-115.594832
12.260000	-149.252097
12.270000	-184.089594
12.280000	-220.038321
12.290000	-249.894082
12.300000	-267.824156
12.310000	-268.027686
12.320000	-267.000108
12.330000	-268.454911
12.340000	-280.851002
12.350000	-292.154271
12.360000	-304.067890
12.370000	-319.184178
12.380000	-340.614148
12.390000	-358.172014
12.400000	-367.504043
12.410000	-365.490694
12.420000	-350.391678
12.430000	-318.798573
12.440000	-275.963375
12.450000	-228.771038
12.460000	-180.518474
12.470000	-126.715192
12.480000	-77.105569
12.490000	-29.285364
12.500000	18.981004
12.510000	59.456680
12.520000	84.410126
12.530000	93.226282
12.540000	103.230049
12.550000	127.659700
12.560000	160.004284
12.570000	198.113833
12.580000	227.754245
12.590000	237.919258
12.600000	216.510477
12.610000	159.088500
12.620000	74.980810
12.630000	-18.711111
12.640000	-105.206437
12.650000	-163.823201
12.660000	-191.765831
12.670000	-192.274718
12.680000	-180.681109
12.690000	-163.691714
12.700000	-134.882647
12.710000	-91.775026
12.720000	-50.122900
12.730000	-20.499231
12.740000	-14.353839
12.750000	-20.816900
12.760000	-41.607273
12.770000	-59.737597
12.780000	-62.526760
12.790000	-32.967122
12.800000	36.540715
12.810000	147.131915
12.820000	275.888624
12.830000	374.173657
12.840000	422.998156
12.850000	434.648335
12.860000	442.178608
12.870000	465.768368
12.880000	481.585735
12.890000	510.692763
12.900000	526.877576
12.910000	561.790800
12.920000	584.345313
12.930000	615.714071
12.940000	632.706386
12.950000	662.123314
12.960000	677.269336
12.970000	700.349149
12.980000	695.689073
12.990000	644.270784
13.000000	128.704730
13.010000	115.006439
13.020000	137.931470
13.030000	153.802710
13.040000	140.247815
13.050000	137.119835
13.060000	124.082243
13.070000	123.237035
13.080000	127.520192
13.090000	173.156873
13.100000	238.817250
13.110000	320.140618
13.120000	375.362320
13.130000	410.606748
13.140000	429.585055
13.150000	449.126640
13.160000	460.421873
13.170000	463.355013
13.180000	464.963035
13.190000	481.627177
13.200000	497.433715
13.210000	513.965704
13.220000	524.566823
13.230000	551.736116
13.240000	584.292648
13.250000	630.244529
13.260000	666.953000
13.270000	697.509048
13.280000	701.567821
13.290000	684.529842
13.300000	642.843673
13.310000	573.905577
13.320000	488.842959
13.330000	399.636085
13.340000	330.896074
13.350000	282.317333
13.360000	255.306437
13.370000	237.312824
13.380000	225.429226
13.390000	222.342984
13.400000	226.225611
13.410000	231.716135
13.420000	239.391020
13.430000	262.142518
13.440000	297.868007
13.450000	348.933959
13.460000	394.968677
13.470000	454.184192
13.480000	515.675542
13.490000	567.785204
13.500000	611.770734
13.510000	648.070160
13.520000	681.898579
13.530000	696.313789
13.540000	697.442642
13.550000	709.292712
13.560000	726.258207
13.570000	722.903322
13.580000	692.477888
13.590000	633.547968
13.600000	562.432400
13.610000	489.529055
13.620000	432.091738
13.630000	402.516085
13.640000	385.694779
13.650000	383.569133
13.660000	391.298334
13.670000	410.659446
13.680000	431.889224
13.690000	441.090711
13.700000	446.225730
13.710000	442.505805
13.720000	439.955034
13.730000	430.556727
13.740000	421.745416
13.750000	408.592258
13.760000	399.256901
13.770000	394.626221
13.780000	406.149054
13.790000	418.939426
13.800000	421.067478
13.810000	412.302828
13.820000	400.693275
13.830000	407.721002
13.840000	422.247252
13.850000	447.863977
13.860000	466.425765
13.870000	487.099433
13.880000	501.573630
13.890000	511.713421
13.900000	517.399846
13.910000	522.020721
13.920000	526.569713
13.930000	524.657847
13.940000	526.134155
13.950000	534.961988
13.960000	555.048154
13.970000	570.561491
13.980000	586.368435
13.990000	596.814722
14.000000	612.415604
14.010000	631.048903
14.020000	655.157481
14.030000	678.273956
14.040000	695.251501
14.050000	709.203379
14.060000	725.700450
14.070000	749.812763
14.080000	776.135118
14.090000	806.790463
14.100000	826.870460
14.110000	830.807743
14.120000	803.259343
14.130000	747.556500
14.140000	668.666030
14.150000	581.010995
14.160000	500.422800
14.170000	435.792419
14.180000	386.499210
14.190000	352.922124
14.200000	333.248237
14.210000	328.070172
14.220000	333.663573
14.230000	340.881253
14.240000	346.105115
14.250000	343.697563
14.260000	337.249200
14.270000	329.187629
14.280000	317.725075
14.290000	309.711202
14.300000	296.501256
14.310000	288.630059
14.320000	282.581193
14.330000	284.918693
14.340000	291.640605
14.350000	300.553861
14.360000	313.385419
14.370000	329.523640
14.380000	345.128798
14.390000	358.840725
14.400000	374.560184
14.410000	394.158852
14.420000	422.339015
14.430000	447.103839
14.440000	471.498270
14.450000	481.340337
14.460000	472.690863
14.470000	440.578916
14.480000	380.556181
14.490000	298.182644
14.500000	209.119938
14.510000	129.457943
14.520000	68.000443
14.530000	26.717593
14.540000	7.550350
14.550000	6.964718
14.560000	12.076782
14.570000	8.208816
14.580000	1.328179
14.590000	-14.578704
14.600000	-25.364066
14.610000	-37.421967
14.620000	-49.367909
14.630000	-55.586878
14.640000	-58.059520
14.650000	-58.083792
14.660000	-59.091174
14.670000	-56.225763
14.680000	-43.454385
14.690000	-34.423548
14.700000	-27.109956
14.710000	-9.596526
14.720000	20.204807
14.730000	51.525544
14.740000	70.507809
14.750000	92.056369
14.760000	119.441642
14.770000	149.565516
14.780000	172.351819
14.790000	187.429860
14.800000	196.261932
14.810000	181.904912
14.820000	127.165642
14.830000	34.427709
14.840000	-72.544924
14.850000	-164.039801
14.860000	-226.306287
14.870000	-253.870642
14.880000	-273.162850
14.890000	-287.646288
14.900000	-308.381805
14.910000	-313.673794
14.920000	-310.354578
14.930000	-304.040393
14.940000	-298.999716
14.950000	-306.769987
14.960000	-320.604627
14.970000	-339.191460
14.980000	-353.532340
14.990000	-366.991087
15.000000	-374.782159
15.010000	-372.135531
15.020000	-359.391070
15.030000	-346.652129
15.040000	-336.992958
15.050000	-327.498170
15.060000	-318.282671
15.070000	-298.660986
15.080000	-278.642600
15.090000	-296.916216
15.100000	-363.604648
15.110000	-462.446489
15.120000	-541.483089
15.130000	-597.792809
15.140000	-631.384532
15.150000	-652.181569
15.160000	-664.953948
15.170000	-675.589102
15.180000	-676.168056
15.190000	-670.043780
15.200000	-659.061108
15.210000	-660.223408
15.220000	-667.908893
15.230000	-685.110459
15.240000	-696.724288
15.250000	-709.073889
15.260000	-712.847809
15.270000	-711.757694
15.280000	-702.971497
15.290000	-673.431750
15.300000	-676.964079
15.310000	-700.607753
15.320000	-752.032219
15.330000	-786.993582
15.340000	-815.936482
15.350000	-842.379806
15.360000	-853.816311
15.370000	-853.161466
15.380000	-842.045841
15.390000	-832.993089
15.400000	-826.596124
15.410000	-834.542178
15.420000	-843.431296
15.430000	-853.148343
15.440000	-858.606859
15.450000	-865.137280
15.460000	-866.103830
15.470000	-857.153535
15.480000	-843.314381
15.490000	-831.195376
15.500000	-815.179355
15.510000	-799.619356
15.520000	-772.688056
15.530000	-748.469413
15.540000	-714.144513
15.550000	-689.764797
15.560000	-659.858509
15.570000	-638.162233
15.580000	-607.175258
15.590000	-522.173494
15.600000	-473.551762
15.610000	-468.645306
15.620000	-551.718411
15.630000	-623.745648
15.640000	-677.158369
15.650000	-722.250526
15.660000	-745.555232
15.670000	-756.841408
15.680000	-756.949773
15.690000	-753.807297
15.700000	-746.007562
15.710000	-733.465698
15.720000	-726.115078
15.730000	-728.464738
15.740000	-734.215099
15.750000	-748.183151
15.760000	-749.934584
15.770000	-755.691033
15.780000	-750.925039
15.790000	-754.312167
15.800000	-749.842243
15.810000	-738.669079
15.820000	-717.769897
15.830000	-693.740943
15.840000	-678.066113
15.850000	-658.435865
15.860000	-635.753628
15.870000	-590.763687
15.880000	-541.231014
15.890000	-496.422947
15.900000	-468.069859
15.910000	-447.380449
15.920000	-416.237605
15.930000	-381.093187
15.940000	-346.420911
15.950000	-318.498440
15.960000	-288.918008
15.970000	-255.608453
15.980000	-211.087494
15.990000	-169.799165
16.000000	-131.236282
16.010000	-103.700996
16.020000	-84.708924
16.030000	-87.666507
16.040000	-131.884371
16.050000	-205.900641
16.060000	-287.382989
16.070000	-358.500050
16.080000	-411.261433
16.090000	-443.802294
16.100000	-452.487572
16.110000	-445.155152
16.120000	-431.738443
16.130000	-415.508559
16.140000	-404.354047
16.150000	-407.551029
16.160000	-424.962245
16.170000	-461.626022
16.180000	-497.185527
16.190000	-542.805616
16.200000	-571.321410
16.210000	-594.443043
16.220000	-602.415912
16.230000	-603.480645
16.240000	-583.131863
16.250000	-542.578498
16.260000	-480.858774
16.270000	-424.769345
16.280000	-366.507233
16.290000	-264.922318
16.300000	41.888841
16.310000	161.544951
16.320000	249.181751
16.330000	329.280810
16.340000	414.190074
16.350000	457.172415
16.360000	459.648874
16.370000	402.659761
16.380000	323.915215
16.390000	239.071933
16.400000	162.496913
16.410000	76.715718
16.420000	-11.869911
16.430000	-91.974352
16.440000	-144.896806
16.450000	-187.442215
16.460000	-217.551999
16.470000	-241.947468
16.480000	-252.178633
16.490000	-267.207618
16.500000	-293.784496
16.510000	-317.087787
16.520000	-327.082600
16.530000	-327.685193
16.540000	-331.750664
16.550000	-334.579615
16.560000	-327.085061
16.570000	-309.845450
16.580000	-282.428029
16.590000	-246.127192
16.600000	-201.446465
16.610000	-147.415669
16.620000	-98.852188
16.630000	-66.369664
16.640000	-53.582223
16.650000	-39.933951
16.660000	-11.005593
16.670000	26.099697
16.680000	67.570655
16.690000	101.100786
16.700000	132.521021
16.710000	156.395427
16.720000	179.496277
16.730000	206.007846
16.740000	219.406402
16.750000	219.991742
16.760000	202.627055
16.770000	182.690968
16.780000	168.487448
16.790000	141.977198
16.800000	97.374373
16.810000	18.227194
16.820000	-70.297816
16.830000	-140.522483
16.840000	-177.010017
16.850000	-189.012843
16.860000	-190.073354
16.870000	-182.478124
16.880000	-168.141318
16.890000	-147.277533
16.900000	-125.228639
16.910000	-104.741565
16.920000	-86.983179
16.930000	-72.876296
16.940000	-65.748836
16.950000	-69.684086
16.960000	-62.780581
16.970000	-36.198347
16.980000	7.820164
16.990000	63.942026
17.000000	119.062882
17.010000	169.438286
17.020000	198.266778
17.030000	218.680661
17.040000	231.768352
17.050000	249.951779
17.060000	265.545839
17.070000	281.583663
17.080000	284.943802
17.090000	292.629985
17.100000	309.640674
17.110000	343.348224
17.120000	383.287462
17.130000	430.096044
17.140000	476.912917
17.150000	527.873502
17.160000	563.807299
17.170000	593.393891
17.180000	607.318862
17.190000	551.792222
17.200000	486.809868
17.210000	408.682712
17.220000	386.167075
17.230000	365.570927
17.240000	350.348755
17.250000	355.157568
17.260000	356.760822
17.270000	346.117801
17.280000	311.165993
17.290000	274.842365
17.300000	248.206876
17.310000	239.226898
17.320000	242.212172
17.330000	257.296143
17.340000	272.185509
17.350000	285.063123
17.360000	307.865706
17.370000	347.819701
17.380000	390.489058
17.390000	420.910935
17.400000	428.460540
17.410000	430.415130
17.420000	430.063369
17.430000	444.627467
17.440000	462.256322
17.450000	482.541308
17.460000	491.081016
17.470000	490.171278
17.480000	483.245863
17.490000	478.484732
17.500000	482.075772
17.510000	491.444737
17.520000	510.594442
17.530000	529.035711
17.540000	539.459358
17.550000	532.625632
17.560000	515.372750
17.570000	479.177743
17.580000	438.019051
17.590000	404.062706
17.600000	390.004694
17.610000	398.591613
17.620000	429.987896
17.630000	492.480862
17.640000	572.248449
17.650000	650.026615
17.660000	706.179468
17.670000	726.258136
17.680000	723.859069
17.690000	710.154578
17.700000	684.511178
17.710000	649.397825
17.720000	614.855715
17.730000	599.335809
17.740000	594.799138
17.750000	596.955734
17.760000	605.759191
17.770000	617.236508
17.780000	632.070321
17.790000	648.515556
17.800000	665.722166
17.810000	683.467896
17.820000	696.698949
17.830000	706.441781
17.840000	716.020185
17.850000	733.099026
17.860000	763.674900
17.870000	800.056690
17.880000	831.659628
17.890000	853.033024
17.900000	868.676191
17.910000	872.986052
17.920000	862.035056
17.930000	831.943499
17.940000	781.405195
17.950000	699.879701
17.960000	606.193349
17.970000	518.484604
17.980000	463.676117
17.990000	451.044756
18.000000	455.735410
18.010000	471.659945
18.020000	475.417193
18.030000	489.404178
18.040000	502.008702
18.050000	510.843424
18.060000	519.619843
18.070000	535.294332
18.080000	557.546949
18.090000	581.067347
18.100000	603.484466
18.110000	627.857470
18.120000	651.407996
18.130000	673.990050
18.140000	701.349446
18.150000	730.433376
18.160000	764.643372
18.170000	789.495492
18.180000	812.665903
18.190000	830.861710
18.200000	847.373897
18.210000	848.515155
18.220000	829.439843
18.230000	780.488849
18.240000	699.192133
18.250000	608.197923
18.260000	521.252818
18.270000	458.256524
18.280000	411.904525
18.290000	387.682437
18.300000	377.851866
18.310000	379.453199
18.320000	385.452843
18.330000	388.220247
18.340000	389.410345
18.350000	384.300558
18.360000	376.053375
18.370000	350.998265
18.380000	325.442121
18.390000	303.659388
18.400000	294.840583
18.410000	290.267284
18.420000	289.925324
18.430000	283.843279
18.440000	280.388958
18.450000	281.396257
18.460000	292.858682
18.470000	313.590585
18.480000	329.955009
18.490000	350.506397
18.500000	367.667294
18.510000	390.461131
18.520000	415.672348
18.530000	436.398513
18.540000	458.037014
18.550000	478.975524
18.560000	500.067049
18.570000	512.183431
18.580000	496.060597
18.590000	447.423567
18.600000	362.713544
18.610000	266.397811
18.620000	178.009769
18.630000	117.028431
18.640000	82.572961
18.650000	63.620442
18.660000	47.119522
18.670000	40.925171
18.680000	41.957704
18.690000	52.566156
18.700000	62.415419
18.710000	63.868613
18.720000	56.212567
18.730000	37.487754
18.740000	21.038211
18.750000	6.054172
18.760000	-3.136193
18.770000	-11.419189
18.780000	-13.296858
18.790000	-9.591669
18.800000	2.537133
18.810000	17.864647
18.820000	25.339093
18.830000	34.360798
18.840000	40.085278
18.850000	54.218778
18.860000	67.757307
18.870000	88.104237
18.880000	114.054460
18.890000	134.277006
18.900000	154.713864
18.910000	162.044698
18.920000	152.380017
18.930000	102.071986
18.940000	17.776281
18.950000	-77.542704
18.960000	-163.187436
18.970000	-229.207651
18.980000	-278.875193
18.990000	-311.549895
19.000000	-332.601145
19.010000	-343.570295
19.020000	-345.347624
19.030000	-339.281244
19.040000	-330.126394
19.050000	-325.021978
19.060000	-329.256958
19.070000	-339.429351
19.080000	-353.749425
19.090000	-367.519845
19.100000	-376.267243
19.110000	-380.315209
19.120000	-376.133126
19.130000	-371.166325
19.140000	-365.671826
19.150000	-350.684957
19.160000	-335.620798
19.170000	-312.850178
19.180000	-298.996729
19.190000	-319.399960
19.200000	-377.673884
19.210000	-462.603512
19.220000	-532.963380
19.230000	-580.592913
19.240000	-612.991184
19.250000	-637.276827
19.260000	-659.043949
19.270000	-673.294382
19.280000	-671.449862
19.290000	-665.732292
19.300000	-659.862561
19.310000	-663.550356
19.320000	-672.601008
19.330000	-686.409110
19.340000	-702.699256
19.350000	-707.600624
19.360000	-704.543181
19.370000	-696.154972
19.380000	-695.113281
19.390000	-695.690881
19.400000	-690.711712
19.410000	-681.282042
19.420000	-660.654599
19.430000	-634.941400
19.440000	-607.623317
19.450000	-582.300988
19.460000	-560.954327
19.470000	-531.321706
19.480000	-508.728181
19.490000	-487.652406
19.500000	-470.558031
19.510000	-449.321580
19.520000	-421.103431
19.530000	-408.094022
19.540000	-420.651000
19.550000	-483.941953
19.560000	-573.430339
19.570000	-671.844930
19.580000	-751.884022
19.590000	-808.845338
19.600000	-849.070191
19.610000	-876.207293
19.620000	-902.315186
19.630000	-920.887432
19.640000	-924.928118
19.650000	-916.628855
19.660000	-905.263315
19.670000	-898.401837
19.680000	-901.629379
19.690000	-914.528065
19.700000	-926.336843
19.710000	-927.360428
19.720000	-929.473487
19.730000	-937.209288
19.740000	-942.946793
19.750000	-932.744210
19.760000	-915.853931
19.770000	-900.981123
19.780000	-878.748258
19.790000	-849.281013
19.800000	-819.698686
19.810000	-792.939657
19.820000	-765.334540
19.830000	-730.293855
19.840000	-697.719259
19.850000	-670.666144
19.860000	-647.461203
19.870000	-625.740063
19.880000	-608.254037
19.890000	-592.837289
19.900000	-577.082991
19.910000	-553.958557
19.920000	-525.640614
19.930000	-505.814770
19.940000	-513.917321
19.950000	-572.048206
19.960000	-660.783167
19.970000	-754.634789
19.980000	-826.347231
19.990000	-875.665209
20.000000	-916.653571
20.010000	-946.685992
20.020000	-966.003914
20.030000	-971.734263
20.040000	-968.410554
20.050000	-965.498605
20.060000	-956.475703
20.070000	-946.330213
20.080000	-941.246338
20.090000	-946.193901
20.100000	-958.029982
20.110000	-969.080303
20.120000	-979.202667
20.130000	-986.329628
20.140000	-984.733362
20.150000	-972.624344
20.160000	-956.989240
20.170000	-940.274166
20.180000	-924.945912
20.190000	-904.265930
20.200000	-879.625286
20.210000	-856.970387
20.220000	-835.653198
20.230000	-815.041335
20.240000	-783.684305
20.250000	-741.175310
20.260000	-704.127970
20.270000	-677.309001
20.280000	-659.921715
20.290000	-641.113535
20.300000	-618.771021
20.310000	-592.621108
20.320000	-566.663135
20.330000	-542.486221
20.340000	-543.311907
20.350000	-579.680155
20.360000	-648.620297
20.370000	-732.196117
20.380000	-803.266270
20.390000	-858.473332
20.400000	-890.263036
20.410000	-896.126445
20.420000	-872.284737
20.430000	-828.177328
20.440000	-767.318000
20.450000	-697.266861
20.460000	-611.339367
20.470000	-527.116625
20.480000	-454.031625
20.490000	-399.654224
20.500000	-348.018535
20.510000	-291.908156
20.520000	-242.414371
20.530000	-199.824058
20.540000	-163.164727
20.550000	-111.375767
20.560000	-50.680668
20.570000	10.375838
20.580000	66.455559
20.590000	122.131695
20.600000	183.239284
20.610000	257.537205
20.620000	331.609554
20.630000	395.597523
20.640000	432.271617
20.650000	447.032363
20.660000	447.586042
20.670000	421.057028
20.680000	353.878580
20.690000	254.455704
20.700000	157.223259
20.710000	95.164691
20.720000	66.787860
20.730000	64.839446
20.740000	75.984326
20.750000	84.155578
20.760000	73.831483
20.770000	25.109182
20.780000	-51.254003
20.790000	-140.275487
20.800000	-214.655225
20.810000	-267.732766
20.820000	-298.754950
20.830000	-312.554019
20.840000	-316.543417
20.850000	-316.719383
20.860000	-317.007214
20.870000	-318.557826
20.880000	-322.484620
20.890000	-325.063035
20.900000	-327.655726
20.910000	-323.893075
20.920000	-320.207734
20.930000	-308.695812
20.940000	-284.446368
20.950000	-243.178350
20.960000	-194.734862
20.970000	-152.347589
20.980000	-110.315075
20.990000	-63.194249
21.000000	-2.229225
21.010000	58.553825
21.020000	103.844081
21.030000	117.624622
21.040000	102.627221
21.050000	74.723523
21.060000	42.716637
21.070000	14.144984
21.080000	-0.526200
21.090000	-13.836693
21.100000	-22.063983
21.110000	-27.507512
21.120000	-17.232186
21.130000	2.764415
21.140000	20.244226
21.150000	36.401997
21.160000	36.338871
21.170000	18.071163
21.180000	-27.589821
21.190000	-75.836172
21.200000	-109.542481
21.210000	-115.423245
21.220000	-111.249290
21.230000	-107.324987
21.240000	-106.269824
21.250000	-102.873045
21.260000	-88.615417
21.270000	-73.806619
21.280000	-58.934155
21.290000	-55.770965
21.300000	-52.520921
21.310000	-53.445163
21.320000	-61.770249
21.330000	-86.801111
21.340000	-126.319300
21.350000	-156.762796
21.360000	-171.244828
21.370000	-166.732059
21.380000	-161.893273
21.390000	-164.668146
21.400000	-161.478557
21.410000	-143.278934
21.420000	-109.081203
21.430000	-66.909350
21.440000	-28.689084
21.450000	0.484834
21.460000	24.066042
21.470000	52.905888
21.480000	95.488243
21.490000	139.944979
21.500000	174.919473
21.510000	198.685168
21.520000	222.728665
21.530000	253.085744
21.540000	287.524193
21.550000	332.519634
21.560000	389.649349
21.570000	460.630671
21.580000	513.358718
21.590000	524.443096
21.600000	485.453637
21.610000	416.679199
21.620000	338.895027
21.630000	270.253565
21.640000	215.980040
21.650000	179.502451
21.660000	158.729676
21.670000	154.773574
21.680000	176.514412
21.690000	210.998814
21.700000	254.672703
21.710000	282.847399
21.720000	305.942466
21.730000	323.347718
21.740000	331.219024
21.750000	325.195941
21.760000	286.472205
21.770000	232.159426
21.780000	186.762611
21.790000	170.127337
21.800000	187.363405
21.810000	228.404731
21.820000	280.976264
21.830000	348.410090
21.840000	435.612178
21.850000	530.053257
21.860000	608.905797
21.870000	658.073355
21.880000	688.621765
21.890000	708.438245
21.900000	710.985252
21.910000	699.517446
21.920000	688.734528
21.930000	694.621466
21.940000	711.779960
21.950000	732.073111
21.960000	735.147239
21.970000	720.936129
21.980000	687.197774
21.990000	622.463277
22.000000	537.331965
22.010000	438.670117
22.020000	352.208140
22.030000	284.180475
22.040000	241.443313
22.050000	225.700860
22.060000	235.026242
22.070000	256.549136
22.080000	277.634648
22.090000	298.123386
22.100000	319.606452
22.110000	343.388987
22.120000	342.192092
22.130000	309.069651
22.140000	264.880189
22.150000	236.793944
22.160000	241.566176
22.170000	265.795437
22.180000	302.296127
22.190000	332.125060
22.200000	353.433647
22.210000	381.863530
22.220000	416.887760
22.230000	454.286380
22.240000	492.376884
22.250000	534.083442
22.260000	578.216449
22.270000	624.912731
22.280000	683.443193
22.290000	756.085074
22.300000	815.952268
22.310000	859.016121
22.320000	898.538247
22.330000	935.609978
22.340000	965.136954
22.350000	985.911034
22.360000	1006.459059
22.370000	1015.186950
22.380000	995.798498
22.390000	946.198904
22.400000	892.245187
22.410000	839.519087
22.420000	803.750430
22.430000	774.130490
22.440000	730.260198
22.450000	672.830767
22.460000	609.821010
22.470000	578.308736
22.480000	567.615160
22.490000	573.168049
22.500000	573.393916
22.510000	562.435220
22.520000	544.899497
22.530000	535.762335
22.540000	535.730738
22.550000	536.763651
22.560000	528.921700
22.570000	527.532672
22.580000	538.451654
22.590000	566.664345
22.600000	602.974392
22.610000	644.846073
22.620000	693.539336
22.630000	743.708123
22.640000	788.799444
22.650000	820.263176
22.660000	851.819211
22.670000	877.796796
22.680000	902.230788
22.690000	910.310465
22.700000	903.385211
22.710000	881.184790
22.720000	844.574496
22.730000	793.087166
22.740000	728.468197
22.750000	661.713245
22.760000	593.699020
22.770000	524.034035
22.780000	454.634318
22.790000	398.082197
22.800000	365.597219
22.810000	347.771649
22.820000	352.973484
22.830000	365.760175
22.840000	393.777559
22.850000	428.067416
22.860000	462.620643
22.870000	489.065662
22.880000	509.189035
22.890000	530.443460
22.900000	548.087836
22.910000	564.203803
22.920000	568.984361
22.930000	578.732804
22.940000	581.834380
22.950000	591.693924
22.960000	607.341543
22.970000	625.010538
22.980000	648.566058
22.990000	667.316776
23.000000	692.881328
23.010000	712.919893
23.020000	738.289526
23.030000	762.170203
23.040000	787.754159
23.050000	806.416845
23.060000	821.948193
23.070000	842.704510
23.080000	863.800843
23.090000	883.696177
23.100000	891.656223
23.110000	889.750815
23.120000	868.841773
23.130000	825.515272
23.140000	759.061988
23.150000	683.012546
23.160000	608.636160
23.170000	547.537366
23.180000	497.197955
23.190000	461.773378
23.200000	433.753684
23.210000	421.746074
23.220000	418.625061
23.230000	421.087899
23.240000	419.504121
23.250000	410.137408
23.260000	399.435745
23.270000	385.187484
23.280000	371.074332
23.290000	355.580483
23.300000	340.412052
23.310000	331.341352
23.320000	328.758104
23.330000	335.130793
23.340000	346.108032
23.350000	355.270234
23.360000	364.837110
23.370000	373.755847
23.380000	391.951233
23.390000	414.221207
23.400000	442.439148
23.410000	468.680409
23.420000	489.292610
23.430000	507.846319
23.440000	528.500944
23.450000	550.351291
23.460000	559.359228
23.470000	544.550409
23.480000	499.916590
23.490000	428.459414
23.500000	343.854778
23.510000	268.075748
23.520000	211.779454
23.530000	169.665515
23.540000	140.732890
23.550000	122.267217
23.560000	120.393601
23.570000	130.856425
23.580000	142.384079
23.590000	153.153641
23.600000	154.704736
23.610000	153.172372
23.620000	143.341997
23.630000	129.899085
23.640000	118.997097
23.650000	116.973123
23.660000	120.304951
23.670000	123.721872
23.680000	133.323224
23.690000	148.464299
23.700000	170.358480
23.710000	187.516725
23.720000	204.783158
23.730000	218.222609
23.740000	233.912579
23.750000	253.927745
23.760000	281.722372
23.770000	311.951632
23.780000	339.876415
23.790000	358.645302
23.800000	357.027009
23.810000	324.014497
23.820000	261.888668
23.830000	173.058267
23.840000	76.135376
23.850000	-14.235327
23.860000	-80.269441
23.870000	-120.233501
23.880000	-148.044753
23.890000	-161.515299
23.900000	-172.520229
23.910000	-170.397082
23.920000	-166.719007
23.930000	-160.573812
23.940000	-165.954975
23.950000	-180.702769
23.960000	-198.509817
23.970000	-212.494087
23.980000	-217.734323
23.990000	-215.634060
24.000000	-210.966369
24.010000	-207.770637
24.020000	-205.183905
24.030000	-198.562785
24.040000	-178.387665
24.050000	-150.731038
24.060000	-122.260000
24.070000	-97.226594
24.080000	-78.796949
24.090000	-54.680954
24.100000	-27.710346
24.110000	-0.804125
24.120000	27.051497
24.130000	50.051422
24.140000	71.836406
24.150000	75.848289
24.160000	46.955039
24.170000	-17.992450
24.180000	-117.584651
24.190000	-223.430250
24.200000	-319.830696
24.210000	-391.875366
24.220000	-443.801474
24.230000	-479.659097
24.240000	-497.428362
24.250000	-506.480546
24.260000	-506.702610
24.270000	-505.329229
24.280000	-501.629007
24.290000	-500.868719
24.300000	-501.210523
24.310000	-508.437403
24.320000	-525.125121
24.330000	-546.327609
24.340000	-562.703450
24.350000	-566.565114
24.360000	-559.650704
24.370000	-552.169199
24.380000	-536.893657
24.390000	-522.494139
24.400000	-498.762221
24.410000	-475.217656
24.420000	-448.941273
24.430000	-415.615576
24.440000	-385.839793
24.450000	-354.983752
24.460000	-334.127129
24.470000	-310.298451
24.480000	-282.460069
24.490000	-252.634624
24.500000	-219.797950
24.510000	-194.014803
24.520000	-167.767994
24.530000	-154.466480
24.540000	-172.098206
24.550000	-230.911391
24.560000	-333.421905
24.570000	-442.930217
24.580000	-538.470672
24.590000	-604.312167
24.600000	-646.595149
24.610000	-676.390186
24.620000	-697.716337
24.630000	-715.821205
24.640000	-723.152206
24.650000	-718.620019
24.660000	-706.285797
24.670000	-699.795599
24.680000	-708.758935
24.690000	-729.953422
24.700000	-749.219705
24.710000	-762.490147
24.720000	-769.041017
24.730000	-772.055798
24.740000	-769.198864
24.750000	-758.641361
24.760000	-751.076446
24.770000	-736.856550
24.780000	-719.676312
24.790000	-698.745200
24.800000	-677.640760
24.810000	-659.318192
24.820000	-634.925624
24.830000	-604.936431
24.840000	-569.897111
24.850000	-537.928679
24.860000	-515.216597
24.870000	-496.242205
24.880000	-475.556471
24.890000	-448.244161
24.900000	-422.285494
24.910000	-398.246247
24.920000	-372.356527
24.930000	-349.960708
24.940000	-346.475991
24.950000	-378.365558
24.960000	-450.584780
24.970000	-546.064263
24.980000	-647.046104
24.990000	-726.759382
25.000000	-781.592277
25.010000	-819.173347
25.020000	-838.803615
25.030000	-848.298796
25.040000	-843.002183
25.050000	-834.156114
25.060000	-820.521379
25.070000	-810.394571
25.080000	-815.070458
25.090000	-824.262095
25.100000	-837.334413
25.110000	-843.122415
25.120000	-851.344120
25.130000	-856.629699
25.140000	-852.706421
25.150000	-841.180359
25.160000	-822.754635
25.170000	-795.077676
25.180000	-760.838389
25.190000	-718.317890
25.200000	-684.996516
25.210000	-647.494955
25.220000	-606.214062
25.230000	-550.663633
25.240000	-496.524971
25.250000	-447.153222
25.260000	-406.859883
25.270000	-363.953511
25.280000	-320.921668
25.290000	-372.361318
25.300000	-509.112311
25.310000	-662.734523
25.320000	-734.240354
25.330000	-738.548654
25.340000	-723.204893
25.350000	-711.984935
25.360000	-705.125463
25.370000	-686.396583
25.380000	-672.156037
25.390000	-670.806784
25.400000	-693.882173
25.410000	-731.845972
25.420000	-774.626918
25.430000	-806.556417
25.440000	-821.083216
25.450000	-806.271793
25.460000	-775.963231
25.470000	-737.990118
25.480000	-711.560470
25.490000	-682.636298
25.500000	-653.555037
25.510000	-616.941333
25.520000	-585.958054
25.530000	-560.227722
25.540000	-533.362942
25.550000	-506.218879
25.560000	-481.457494
25.570000	-463.566241
25.580000	-449.214919
25.590000	-436.601965
25.600000	-421.650071
25.610000	-415.362897
25.620000	-409.716560
25.630000	-411.848876
25.640000	-401.390706
25.650000	-380.747081
25.660000	-358.765352
25.670000	-342.990978
25.680000	-335.139716
25.690000	-328.895002
25.700000	-335.243581
25.710000	-373.169420
25.720000	-457.684752
25.730000	-581.062715
25.740000	-723.106118
25.750000	-846.924383
25.760000	-934.259320
25.770000	-983.846489
25.780000	-1024.174436
25.790000	-1065.063942
25.800000	-1102.397642
25.810000	-1114.245256
25.820000	-1104.370609
25.830000	-1081.118072
25.840000	-1059.707776
25.850000	-1039.960293
25.860000	-1015.706571
25.870000	-984.824748
25.880000	-946.386126
25.890000	-912.067667
25.900000	-872.016744
25.910000	-837.378134
25.920000	-799.268571
25.930000	-758.390816
25.940000	-718.537770
25.950000	-678.063772
25.960000	-636.819278
25.970000	-586.722791
25.980000	-531.808222
25.990000	-491.096777
26.000000	-470.768673
26.010000	-466.113929
26.020000	-470.730518
26.030000	-463.095220
26.040000	-447.100799
26.050000	-421.734623
26.060000	-389.819487
26.070000	-360.729510
26.080000	-334.516341
26.090000	-316.074414
26.100000	-294.506148
26.110000	-268.782358
26.120000	-235.157368
26.130000	-202.192582
26.140000	-189.841291
26.150000	-220.610835
26.160000	-308.502465
26.170000	-418.895759
26.180000	-526.188218
26.190000	-602.841436
26.200000	-650.285865
26.210000	-671.456498
26.220000	-668.044934
26.230000	-646.081226
26.240000	-607.122380
26.250000	-567.744107
26.260000	-537.510372
26.270000	-521.724657
26.280000	-506.173692
26.290000	-495.084344
26.300000	-475.785312
26.310000	-455.827169
26.320000	-429.688174
26.330000	-410.280651
26.340000	-389.192035
26.350000	-363.742320
26.360000	-335.365844
26.370000	-313.885211
26.380000	-297.498775
26.390000	-291.371150
26.400000	-298.616184
26.410000	-289.088711
26.420000	-258.460330
26.430000	-190.428738
26.440000	-111.410012
26.450000	-12.994174
26.460000	80.897590
26.470000	157.149970
26.480000	210.574012
26.490000	251.016272
26.500000	281.245669
26.510000	303.897362
26.520000	353.687740
26.530000	436.047457
26.540000	511.690239
26.550000	540.880035
26.560000	534.181749
26.570000	519.778992
26.580000	507.641682
26.590000	478.951120
26.600000	436.513707
26.610000	394.841882
26.620000	362.055107
26.630000	341.740911
26.640000	319.568450
26.650000	305.394640
26.660000	311.109417
26.670000	333.696573
26.680000	352.625194
26.690000	347.689415
26.700000	327.243193
26.710000	297.701141
26.720000	264.215698
26.730000	220.372829
26.740000	163.223207
26.750000	87.062863
26.760000	-5.720729
26.770000	-96.174854
26.780000	-145.583210
26.790000	-143.796774
26.800000	-103.480340
26.810000	-56.442843
26.820000	-9.947866
26.830000	24.595645
26.840000	38.287864
26.850000	44.057542
26.860000	51.545106
26.870000	74.227609
26.880000	103.773839
26.890000	141.790113
26.900000	185.021450
26.910000	241.416040
26.920000	315.960666
26.930000	412.739644
26.940000	501.840413
26.950000	561.453157
26.960000	577.108388
26.970000	554.590776
26.980000	519.800493
26.990000	479.712366
27.000000	436.181553
27.010000	376.831613
27.020000	323.360005
27.030000	307.014620
27.040000	332.503480
27.050000	370.141466
27.060000	402.051405
27.070000	425.014306
27.080000	451.682369
27.090000	471.195724
27.100000	478.703366
27.110000	474.431656
27.120000	466.453519
27.130000	470.730558
27.140000	487.201327
27.150000	522.757247
27.160000	587.333209
27.170000	678.459265
27.180000	766.099128
27.190000	827.558212
27.200000	856.954998
27.210000	875.776439
27.220000	888.475191
27.230000	896.029892
27.240000	897.368174
27.250000	898.347787
27.260000	902.634187
27.270000	904.686418
27.280000	898.612224
27.290000	887.095218
27.300000	869.294149
27.310000	829.844649
27.320000	767.061107
27.330000	688.667660
27.340000	614.910459
27.350000	545.148231
27.360000	482.485286
27.370000	431.682127
27.380000	393.765551
27.390000	372.606439
27.400000	355.382817
27.410000	353.981709
27.420000	365.342360
27.430000	386.741475
27.440000	406.995805
27.450000	418.561942
27.460000	426.401196
27.470000	431.422441
27.480000	438.535631
27.490000	445.648652
27.500000	449.050783
27.510000	450.274644
27.520000	454.294316
27.530000	465.618498
27.540000	481.570796
27.550000	496.005712
27.560000	513.931001
27.570000	533.761443
27.580000	556.685646
27.590000	576.884943
27.600000	595.513314
27.610000	616.068940
27.620000	636.379650
27.630000	664.334995
27.640000	697.940103
27.650000	735.657075
27.660000	769.872139
27.670000	793.034428
27.680000	808.221960
27.690000	803.760008
27.700000	780.662193
27.710000	734.860672
27.720000	678.870484
27.730000	616.994760
27.740000	555.473538
27.750000	504.529355
27.760000	467.781479
27.770000	449.455424
27.780000	447.796252
27.790000	462.107769
27.800000	481.172271
27.810000	487.132129
27.820000	486.672721
27.830000	474.179830
27.840000	455.929715
27.850000	429.260294
27.860000	403.944936
27.870000	385.386248
27.880000	363.976510
27.890000	339.930176
27.900000	314.067493
27.910000	300.902873
27.920000	293.825020
27.930000	290.278018
27.940000	289.645924
27.950000	291.712379
27.960000	287.166704
27.970000	277.233933
27.980000	272.772264
27.990000	284.145848
28.000000	296.032388
28.010000	304.480836
28.020000	309.361574
28.030000	315.889125
28.040000	316.046429
28.050000	294.001347
28.060000	233.789702
28.070000	141.566483
28.080000	35.625193
28.090000	-63.135634
28.100000	-134.147922
28.110000	-178.170648
28.120000	-200.541219
28.130000	-215.504354
28.140000	-222.835623
28.150000	-211.749853
28.160000	-184.439755
28.170000	-155.637158
28.180000	-136.307522
28.190000	-131.448667
28.200000	-128.400665
28.210000	-131.580897
28.220000	-132.732759
28.230000	-130.004423
28.240000	-118.998174
28.250000	-100.716370
28.260000	-78.877914
28.270000	-49.681131
28.280000	-15.715283
28.290000	28.101830
28.300000	76.144651
28.310000	130.633113
28.320000	172.004927
28.330000	211.642952
28.340000	242.541654
28.350000	265.066718
28.360000	275.126544
28.370000	266.210970
28.380000	259.180459
28.390000	248.677112
28.400000	229.963365
28.410000	187.173360
28.420000	137.564630
28.430000	92.046269
28.440000	59.888872
28.450000	28.586889
28.460000	6.665107
28.470000	-4.832094
28.480000	-11.515953
28.490000	-8.160282
28.500000	1.339006
28.510000	14.910992
28.520000	20.895453
28.530000	27.765432
28.540000	41.506314
28.550000	61.663475
28.560000	75.478046
28.570000	89.007907
28.580000	104.834982
28.590000	130.092967
28.600000	155.541780
28.610000	179.928172
28.620000	202.311016
28.630000	221.490954
28.640000	246.169103
28.650000	272.079816
28.660000	301.105806
28.670000	326.373057
28.680000	350.129358
28.690000	374.728414
28.700000	395.528883
28.710000	417.171142
28.720000	435.298934
28.730000	454.700910
28.740000	454.059222
28.750000	436.025135
28.760000	390.513165
28.770000	336.156886
28.780000	269.301212
28.790000	157.629909
