Time(s)	IR_denoised_wiener
0.000000	551.023867
0.010000	803.533478
0.020000	760.364726
0.030000	745.877168
0.040000	749.691000
0.050000	762.275798
0.060000	753.347117
0.070000	728.828287
0.080000	718.791532
0.090000	726.362960
0.100000	712.844820
0.110000	663.020084
0.120000	512.822775
0.130000	298.679591
0.140000	7.391671
0.150000	-274.325039
0.160000	-525.825265
0.170000	-760.693851
0.180000	-973.592864
0.190000	-1159.665754
0.200000	-1292.234758
0.210000	-1393.037315
0.220000	-1477.124083
0.230000	-1532.265520
0.240000	-1562.655852
0.250000	-1581.448087
0.260000	-1592.758302
0.270000	-1611.588459
0.280000	-1628.052696
0.290000	-1658.059024
0.300000	-1663.457001
0.310000	-1654.252605
0.320000	-1649.475863
0.330000	-1646.642542
0.340000	-1637.399717
0.350000	-1596.573044
0.360000	-1563.419615
0.370000	-1543.328571
0.380000	-1536.676082
0.390000	-1526.619425
0.400000	-1483.813100
0.410000	-1439.657609
0.420000	-1390.098812
0.430000	-1359.351753
0.440000	-1329.846979
0.450000	-1301.001998
0.460000	-1265.484937
0.470000	-1202.188279
0.480000	-1121.114414
0.490000	-1042.307072
0.500000	-971.274420
0.510000	-865.864260
0.520000	-743.833775
0.530000	-621.985797
0.540000	-519.966739
0.550000	-459.343899
0.560000	-437.262734
0.570000	-490.707009
0.580000	-554.840142
0.590000	-601.731365
0.600000	-622.695763
0.610000	-633.380038
0.620000	-640.081996
0.630000	-623.179272
0.640000	-588.090885
0.650000	-554.570542
0.660000	-525.270920
0.670000	-498.500110
0.680000	-482.360195
0.690000	-500.687340
0.700000	-555.268797
0.710000	-617.335966
0.720000	-677.441215
0.730000	-741.235571
0.740000	-830.198709
0.750000	-929.576010
0.760000	-1012.461930
0.770000	-1056.466696
0.780000	-1066.670514
0.790000	-1064.604544
0.800000	-1069.072309
0.810000	-1091.588459
0.820000	-1117.934892
0.830000	-1143.796410
0.840000	-1169.004398
0.850000	-1202.891347
0.860000	-1238.555556
0.870000	-1262.827319
0.880000	-1281.014383
0.890000	-1305.972936
0.900000	-1333.948487
0.910000	-1356.625571
0.920000	-1373.087761
0.930000	-1391.152337
0.940000	-1415.734495
0.950000	-1442.501078
0.960000	-1472.909779
0.970000	-1482.623544
0.980000	-1465.979511
0.990000	-1426.613282
1.000000	-1397.971421
1.010000	-1397.063400
1.020000	-1450.159508
1.030000	-1567.639153
1.040000	-1713.721958
1.050000	-1835.667992
1.060000	-1914.207849
1.070000	-1990.359093
1.080000	-2055.385591
1.090000	-2117.590643
1.100000	-2156.977720
1.110000	-2202.112806
1.120000	-2215.209948
1.130000	-2210.933128
1.140000	-2201.588211
1.150000	-2197.231515
1.160000	-2250.231987
1.170000	-2288.335284
1.180000	-2328.600428
1.190000	-2325.411280
1.200000	-2328.373100
1.210000	-2334.149549
1.220000	-2327.251710
1.230000	-2321.104834
1.240000	-2290.827646
1.250000	-2270.021542
1.260000	-2246.409947
1.270000	-2243.834718
1.280000	-2217.599483
1.290000	-2106.395950
1.300000	-1964.899445
1.310000	-1815.324733
1.320000	-1716.421285
1.330000	-1664.535134
1.340000	-1663.080355
1.350000	-1738.591647
1.360000	-1787.830382
1.370000	-1796.003241
1.380000	-1742.006663
1.390000	-1697.110213
1.400000	-1653.405216
1.410000	-1632.402454
1.420000	-1593.402085
1.430000	-1525.543875
1.440000	-1370.366799
1.450000	-1162.370556
1.460000	-915.369314
1.470000	-736.880551
1.480000	-584.049431
1.490000	-204.904791
1.500000	186.236506
1.510000	544.451655
1.520000	645.948619
1.530000	745.709230
1.540000	869.619659
1.550000	947.292550
1.560000	1010.496787
1.570000	1044.676146
1.580000	1109.841561
1.590000	1215.853498
1.600000	1358.080013
1.610000	1484.168575
1.620000	1575.013875
1.630000	1592.036218
1.640000	1573.433285
1.650000	1492.669348
1.660000	1429.088717
1.670000	1389.383403
1.680000	1369.329884
1.690000	1306.555367
1.700000	1237.461861
1.710000	1207.707491
1.720000	1231.463974
1.730000	1263.655374
1.740000	1305.553735
1.750000	1368.927625
1.760000	1453.908923
1.770000	1537.435400
1.780000	1607.595796
1.790000	1666.618222
1.800000	1711.238943
1.810000	1781.894231
1.820000	1862.033859
1.830000	1936.149836
1.840000	1978.445688
1.850000	1985.112762
1.860000	1949.498382
1.870000	1837.316868
1.880000	1699.771343
1.890000	1580.821591
1.900000	1508.322279
1.910000	1454.497416
1.920000	1427.965417
1.930000	1424.799363
1.940000	1440.268585
1.950000	1509.875701
1.960000	1630.130184
1.970000	1752.829730
1.980000	1801.583146
1.990000	1830.479197
2.000000	1911.423710
2.010000	2041.597014
2.020000	2126.353904
2.030000	2098.466874
2.040000	1965.835399
2.050000	1793.172609
2.060000	1652.017002
2.070000	1582.809145
2.080000	1566.720203
2.090000	1562.403047
2.100000	1580.252884
2.110000	1637.705126
2.120000	1739.775092
2.130000	1822.175288
2.140000	1858.427687
2.150000	1847.743983
2.160000	1823.536948
2.170000	1829.037120
2.180000	1894.308924
2.190000	2019.281085
2.200000	2168.351621
2.210000	2324.278484
2.220000	2484.472256
2.230000	2640.298311
2.240000	2805.026742
2.250000	2965.955133
2.260000	3121.320898
2.270000	3228.878330
2.280000	3276.409683
2.290000	3260.204953
2.300000	3206.963265
2.310000	3147.258022
2.320000	3102.542112
2.330000	3048.236134
2.340000	2992.931343
2.350000	2951.953136
2.360000	2944.385724
2.370000	2946.608755
2.380000	2952.277858
2.390000	2965.350681
2.400000	2988.224745
2.410000	3009.447947
2.420000	3001.187674
2.430000	2984.742155
2.440000	2971.519725
2.450000	2961.401921
2.460000	2962.606135
2.470000	2950.704384
2.480000	2972.621757
2.490000	3190.390424
2.500000	3468.889492
2.510000	3778.100890
2.520000	3962.549202
2.530000	4140.634238
2.540000	4339.362646
2.550000	4528.749872
2.560000	4726.045342
2.570000	4894.123025
2.580000	5040.257502
2.590000	5145.498950
2.600000	5216.281437
2.610000	5204.801858
2.620000	5186.386698
2.630000	5168.662457
2.640000	5193.329643
2.650000	5218.370978
2.660000	5233.103573
2.670000	5248.216822
2.680000	5275.292240
2.690000	5348.871647
2.700000	5434.370566
2.710000	5514.988403
2.720000	5579.878531
2.730000	5644.256862
2.740000	5726.141111
2.750000	5811.517694
2.760000	5908.879250
2.770000	6002.793251
2.780000	6105.774576
2.790000	6206.416820
2.800000	6299.433674
2.810000	6368.423366
2.820000	6420.570902
2.830000	6478.886524
2.840000	6552.416014
2.850000	6639.399296
2.860000	6727.979034
2.870000	6836.740961
2.880000	6960.220873
2.890000	7083.801918
2.900000	7178.166280
2.910000	7233.326045
2.920000	7236.513556
2.930000	7182.613409
2.940000	7128.104895
2.950000	7112.595279
2.960000	7130.645936
2.970000	7146.566687
2.980000	7162.028043
2.990000	7204.011844
3.000000	7269.397435
3.010000	7337.143435
3.020000	7410.568366
3.030000	7500.027919
3.040000	7595.749800
3.050000	7669.258996
3.060000	7710.378245
3.070000	7743.647594
3.080000	7788.386552
3.090000	7840.698614
3.100000	7886.424794
3.110000	7934.202253
3.120000	7992.517804
3.130000	8067.085247
3.140000	8156.643701
3.150000	8255.005109
3.160000	8355.483605
3.170000	8450.636522
3.180000	8551.419208
3.190000	8650.594620
3.200000	8739.057765
3.210000	8815.948160
3.220000	8890.093722
3.230000	8971.674141
3.240000	9050.105928
3.250000	9134.485277
3.260000	9223.785875
3.270000	9325.345978
3.280000	9422.758183
3.290000	9521.956557
3.300000	9621.730259
3.310000	9743.312321
3.320000	9862.257843
3.330000	9961.366312
3.340000	10027.472142
3.350000	10037.733268
3.360000	9997.767998
3.370000	9892.042634
3.380000	9780.602331
3.390000	9678.890720
3.400000	9594.740581
3.410000	9513.665863
3.420000	9446.266232
3.430000	9409.440225
3.440000	9375.982691
3.450000	9346.265570
3.460000	9330.030032
3.470000	9348.758159
3.480000	9387.274810
3.490000	9421.186614
3.500000	9450.209999
3.510000	9471.562011
3.520000	9494.127262
3.530000	9532.566129
3.540000	9572.908185
3.550000	9618.222056
3.560000	9639.201183
3.570000	9673.325004
3.580000	9721.987859
3.590000	9749.247331
3.600000	9788.883706
3.610000	9830.962953
3.620000	9929.530930
3.630000	10038.307569
3.640000	10153.194057
3.650000	10244.477323
3.660000	10305.477981
3.670000	10330.870310
3.680000	10325.337494
3.690000	10269.406903
3.700000	10213.594309
3.710000	10193.101566
3.720000	10206.946869
3.730000	10245.963806
3.740000	10296.137702
3.750000	10371.415905
3.760000	10457.759466
3.770000	10547.053412
3.780000	10658.286087
3.790000	10766.060639
3.800000	10874.045309
3.810000	10960.478539
3.820000	11057.761489
3.830000	11147.225311
3.840000	11254.729986
3.850000	11339.914358
3.860000	11459.750711
3.870000	11582.806154
3.880000	11740.383234
3.890000	12078.111975
3.900000	12417.552810
3.910000	12733.258848
3.920000	12861.757772
3.930000	12990.778364
3.940000	13142.242188
3.950000	13264.156458
3.960000	13384.668291
3.970000	13462.391723
3.980000	13521.649504
3.990000	13513.460026
4.000000	13481.579457
4.010000	13456.512197
4.020000	13461.168304
4.030000	13465.090279
4.040000	13499.926202
4.050000	13548.191121
4.060000	13638.795051
4.070000	13706.342202
4.080000	13791.256114
4.090000	14040.412798
4.100000	14330.594623
4.110000	14620.319224
4.120000	14767.593713
4.130000	14875.159685
4.140000	15006.070775
4.150000	15130.657485
4.160000	15283.628271
4.170000	15421.836576
4.180000	15568.922411
4.190000	15644.608116
4.200000	15658.666306
4.210000	15549.711101
4.220000	15388.624738
4.230000	15085.213867
4.240000	14557.104339
4.250000	13648.338299
4.260000	12276.934876
4.270000	10295.421167
4.280000	7428.543245
4.290000	3712.812852
4.300000	-429.011323
4.310000	-4829.730869
4.320000	-9099.865252
4.330000	-13094.198407
4.340000	-16355.458042
4.350000	-18820.353622
4.360000	-20691.061751
4.370000	-22035.096893
4.380000	-22669.611745
4.390000	-22255.387145
4.400000	-20719.879731
4.410000	-18286.484703
4.420000	-14514.995048
4.430000	-9645.796877
4.440000	-4626.406443
4.450000	-1418.256230
4.460000	-357.725317
4.470000	-1473.917498
4.480000	-3525.943638
4.490000	-5976.574029
4.500000	-8637.524657
4.510000	-12004.856116
4.520000	-15633.942916
4.530000	-19022.074470
4.540000	-21976.650206
4.550000	-25235.627352
4.560000	-27474.479349
4.570000	-27877.037568
4.580000	-25729.057176
4.590000	-21122.127415
4.600000	-7614.061619
4.610000	-2905.732333
4.620000	-44.952353
4.630000	1589.615311
4.640000	2874.191861
4.650000	3299.304943
4.660000	3442.796726
4.670000	2710.910630
4.680000	1794.724084
4.690000	200.715969
4.700000	-1513.014000
4.710000	-3169.085212
4.720000	-4088.609218
4.730000	-4500.955929
4.740000	-4560.246385
4.750000	-4337.855002
4.760000	-3693.230748
4.770000	-2982.721725
4.780000	-2701.539644
4.790000	-3492.610856
4.800000	-5579.654065
4.810000	-9339.551094
4.820000	-14506.325959
4.830000	-20067.572191
4.840000	-24214.783116
4.850000	-25842.669069
4.860000	-25353.731317
4.870000	-23501.400080
4.880000	-21096.847945
4.890000	-21452.015541
4.900000	-22892.624704
4.910000	-25261.157836
4.920000	-25373.455141
4.930000	-24792.376921
4.940000	-23676.138368
4.950000	-22022.538023
4.960000	-20390.416860
4.970000	-19131.522875
4.980000	-18002.458043
4.990000	-14447.558850
5.000000	-10617.498645
5.010000	-7177.592693
5.020000	-6409.727785
5.030000	-6320.303005
5.040000	-6410.151781
5.050000	-6974.289027
5.060000	-7353.720727
5.070000	-7902.159133
5.080000	-8378.763324
5.090000	-9265.124066
5.100000	-10257.095714
5.110000	-11458.327460
5.120000	-12219.482209
5.130000	-12951.903418
5.140000	-13222.011067
5.150000	-13710.005072
5.160000	-13656.389167
5.170000	-13401.935619
5.180000	-11538.106274
5.190000	-8927.918731
5.200000	-6069.972579
5.210000	-5489.287457
5.220000	-6736.158220
5.230000	-9791.665376
5.240000	-12697.178629
5.250000	-17366.845438
5.260000	-22566.207987
5.270000	-28236.942262
5.280000	-31103.566442
5.290000	-30951.077815
5.300000	-93.457256
5.310000	891.509494
5.320000	583.768233
5.330000	-974.653312
5.340000	-1870.359678
5.350000	-3735.743830
5.360000	-5259.259439
5.370000	-8108.877402
5.380000	-11105.200233
5.390000	-15060.344286
5.400000	-17999.017206
5.410000	-20285.437283
5.420000	-20790.601781
5.430000	-20919.694396
5.440000	-20210.262012
5.450000	-19542.512507
5.460000	-18178.686212
5.470000	-16814.810899
5.480000	-14835.050535
5.490000	-10912.700961
5.500000	-6922.419196
5.510000	-3550.539446
5.520000	-2353.724469
5.530000	-1754.650290
5.540000	-1296.320767
5.550000	-1219.558895
5.560000	-830.565044
5.570000	-463.506377
5.580000	36.651662
5.590000	336.320969
5.600000	600.688004
5.610000	634.607869
5.620000	533.303945
5.630000	226.555287
5.640000	-202.878844
5.650000	-652.662922
5.660000	-1103.509622
5.670000	-1212.546096
5.680000	-909.443168
5.690000	-3.653774
5.700000	910.245046
5.710000	1708.643115
5.720000	1816.136253
5.730000	1866.705069
5.740000	1768.476759
5.750000	2265.505370
5.760000	2267.554481
5.770000	2001.364222
5.780000	773.545840
5.790000	-2458.338334
5.800000	-12479.300654
5.810000	-13253.785821
5.820000	-11436.813020
5.830000	-10018.178739
5.840000	-9945.634577
5.850000	-9852.443911
5.860000	-9744.455475
5.870000	-8617.497949
5.880000	-6877.044500
5.890000	-4048.698536
5.900000	-1189.402668
5.910000	1329.420514
5.920000	2666.050962
5.930000	3071.644781
5.940000	2652.209521
5.950000	2151.390654
5.960000	1643.967954
5.970000	1086.916596
5.980000	127.312171
5.990000	-1022.902426
6.000000	-2241.820684
6.010000	-3258.876287
6.020000	-4142.781897
6.030000	-4638.189940
6.040000	-4867.343363
6.050000	-4730.791166
6.060000	-4433.303476
6.070000	-3825.649762
6.080000	-3092.409966
6.090000	-2445.479447
6.100000	-2051.621729
6.110000	-1670.419824
6.120000	-1206.794849
6.130000	-666.198275
6.140000	-362.042208
6.150000	-128.889699
6.160000	-14.101962
6.170000	75.243154
6.180000	38.746532
6.190000	-813.470248
6.200000	-1673.183954
6.210000	-2362.140624
6.220000	-2290.543906
6.230000	-2014.183644
6.240000	-1832.091252
6.250000	-1479.236408
6.260000	-1252.072773
6.270000	-975.886784
6.280000	-783.456900
6.290000	-669.716286
6.300000	-682.209592
6.310000	-706.324137
6.320000	-705.734021
6.330000	-695.295600
6.340000	-736.943773
6.350000	-792.547887
6.360000	-872.843041
6.370000	-1001.724592
6.380000	-1139.121188
6.390000	-1174.595557
6.400000	-1074.163128
6.410000	-868.865209
6.420000	-726.132699
6.430000	-674.639714
6.440000	-656.750766
6.450000	-584.549523
6.460000	-508.299745
6.470000	-413.164832
6.480000	-346.570277
6.490000	-333.936488
6.500000	-410.751484
6.510000	-609.582712
6.520000	-910.002624
6.530000	-1310.161681
6.540000	-1716.215704
6.550000	-2040.973083
6.560000	-2317.974088
6.570000	-2577.655867
6.580000	-2746.660150
6.590000	-2844.806838
6.600000	-2832.060238
6.610000	-2813.902048
6.620000	-2757.290549
6.630000	-2652.939298
6.640000	-2677.908891
6.650000	-2794.930161
6.660000	-3045.618904
6.670000	-3173.309484
6.680000	-3277.180001
6.690000	-3362.303406
6.700000	-3476.397271
6.710000	-3528.120400
6.720000	-3500.356018
6.730000	-3564.993379
6.740000	-3681.935291
6.750000	-3833.463125
6.760000	-3880.716326
6.770000	-3871.646283
6.780000	-3845.673388
6.790000	-3842.027488
6.800000	-3875.093205
6.810000	-3792.480696
6.820000	-3561.036285
6.830000	-3298.209004
6.840000	-3181.337643
6.850000	-3169.864937
6.860000	-3073.084986
6.870000	-2850.791541
6.880000	-2542.908638
6.890000	-2268.791429
6.900000	-2030.263478
6.910000	-1927.915446
6.920000	-1921.082053
6.930000	-2015.016118
6.940000	-2044.949678
6.950000	-2055.540161
6.960000	-1974.342637
6.970000	-1848.906191
6.980000	-1619.284872
6.990000	-1295.641391
7.000000	-877.372899
7.010000	-397.309182
7.020000	-26.680549
7.030000	275.099912
7.040000	401.103027
7.050000	529.456269
7.060000	641.177503
7.070000	793.187985
7.080000	1009.663532
7.090000	1222.836595
7.100000	1512.057649
7.110000	1800.227445
7.120000	2137.307269
7.130000	2375.248873
7.140000	2471.020979
7.150000	2511.136303
7.160000	2690.209666
7.170000	2959.868935
7.180000	3287.622389
7.190000	3835.651153
7.200000	4278.545274
7.210000	4559.688781
7.220000	4537.419473
7.230000	4519.814279
7.240000	4644.679675
7.250000	4768.354708
7.260000	5020.880599
7.270000	5184.463041
7.280000	5397.249990
7.290000	6041.099140
7.300000	6777.500090
7.310000	7435.388548
7.320000	7702.890966
7.330000	7952.753241
7.340000	8295.423709
7.350000	8599.984603
7.360000	8895.258721
7.370000	9104.122382
7.380000	9250.903609
7.390000	9325.363556
7.400000	9400.308636
7.410000	9467.581393
7.420000	9552.672046
7.430000	9641.891127
7.440000	9810.145112
7.450000	9922.825153
7.460000	10041.690619
7.470000	10095.593872
7.480000	10074.603899
7.490000	9880.653330
7.500000	9522.342740
7.510000	9254.254034
7.520000	9079.924031
7.530000	8981.661327
7.540000	8894.573445
7.550000	8818.109250
7.560000	8809.578448
7.570000	8816.117280
7.580000	8891.070516
7.590000	9030.161663
7.600000	9184.968485
7.610000	9348.178590
7.620000	9398.077632
7.630000	9420.957916
7.640000	9438.532812
7.650000	9499.667472
7.660000	9569.278602
7.670000	9568.443267
7.680000	9578.984617
7.690000	9608.532691
7.700000	9689.274107
7.710000	9769.907399
7.720000	9846.874486
7.730000	9925.818915
7.740000	10018.334458
7.750000	10149.275087
7.760000	10195.895532
7.770000	10228.432655
7.780000	10213.006796
7.790000	9844.011461
7.800000	9286.576535
7.810000	8549.658163
7.820000	8055.108379
7.830000	7694.674773
7.840000	7434.334417
7.850000	7207.757355
7.860000	6912.279706
7.870000	6638.186555
7.880000	6464.341207
7.890000	6361.463853
7.900000	6333.302706
7.910000	6412.627600
7.920000	6578.922004
7.930000	6810.589911
7.940000	6997.764389
7.950000	7218.865523
7.960000	7459.478539
7.970000	7646.437053
7.980000	7711.661104
7.990000	7591.806485
8.000000	7466.626652
8.010000	7346.489673
8.020000	7512.110689
8.030000	7867.577980
8.040000	8291.962448
8.050000	7722.178519
8.060000	5705.921817
8.070000	2399.209983
8.080000	-1137.210422
8.090000	-4651.560293
8.100000	-8194.422989
8.110000	-12475.393801
8.120000	-18109.263267
8.130000	-24742.497669
8.140000	-26145.156830
8.150000	-21838.356857
8.160000	-11545.920751
8.170000	-6285.203412
8.180000	-4255.152796
8.190000	-5157.924263
8.200000	-7632.206917
8.210000	-10499.094774
8.220000	-12635.030847
8.230000	-14592.154568
8.240000	-16967.600890
8.250000	-19731.784484
8.260000	-21054.184819
8.270000	-20217.768362
8.280000	-17829.703399
8.290000	-15134.468782
8.300000	-12296.556870
8.310000	-9206.385852
8.320000	-5980.669463
8.330000	-3451.573641
8.340000	-1744.481200
8.350000	-780.174517
8.360000	-506.677430
8.370000	-1088.012946
8.380000	-2059.459005
8.390000	-2026.945699
8.400000	-555.188738
8.410000	1775.014768
8.420000	3860.663302
8.430000	5125.436601
8.440000	5607.884333
8.450000	5197.126938
8.460000	4155.140387
8.470000	2937.358229
8.480000	2080.294036
8.490000	1862.554667
8.500000	2051.381944
8.510000	2613.636704
8.520000	3303.889332
8.530000	4427.566137
8.540000	5751.918201
8.550000	6916.476230
8.560000	7267.471428
8.570000	6810.191505
8.580000	5862.209136
8.590000	4411.994666
8.600000	3712.409697
8.610000	2235.481778
8.620000	-1177.730176
8.630000	-8643.166544
8.640000	-18509.091687
8.650000	-23451.492686
8.660000	-25074.793340
8.670000	-23917.889347
8.680000	-22101.466558
8.690000	-19027.175991
8.700000	-14319.778416
8.710000	-8884.339310
8.720000	-4292.950126
8.730000	-1576.043575
8.740000	-250.661292
8.750000	142.824569
8.760000	230.052595
8.770000	191.438242
8.780000	119.492693
8.790000	-97.207951
8.800000	-455.452825
8.810000	-1189.875261
8.820000	-2462.901938
8.830000	-4546.546194
8.840000	-6912.188729
8.850000	-9599.481960
8.860000	-11698.906575
8.870000	-12879.044166
8.880000	-12363.775550
8.890000	-11142.160928
8.900000	-10038.899871
8.910000	-9973.578753
8.920000	-10552.457764
8.930000	-11895.114037
8.940000	-13222.254579
8.950000	-14776.497217
8.960000	-15772.937029
8.970000	-17493.932678
8.980000	-18422.304546
8.990000	-17263.576220
9.000000	-1622.740344
9.010000	587.700096
9.020000	1411.717917
9.030000	2246.492704
9.040000	2926.597834
9.050000	1333.216081
9.060000	-2152.693271
9.070000	-6423.434110
9.080000	-9190.109151
9.090000	-10663.652054
9.100000	-10207.899571
9.110000	-8959.773722
9.120000	-6938.653653
9.130000	-5511.295014
9.140000	-4452.399813
9.150000	-4102.066426
9.160000	-3889.674236
9.170000	-3895.988915
9.180000	-3876.081794
9.190000	-4285.194479
9.200000	-5327.492054
9.210000	-7330.429910
9.220000	-9632.208737
9.230000	-12174.010500
9.240000	-14068.671490
9.250000	-15105.468936
9.260000	-14364.538508
9.270000	-12093.150245
9.280000	-8527.056329
9.290000	-3517.045577
9.300000	149.333386
9.310000	2262.671228
9.320000	2174.828383
9.330000	2446.269409
9.340000	3158.843227
9.350000	3868.753108
9.360000	4599.472380
9.370000	4989.177800
9.380000	6183.910534
9.390000	7881.627692
9.400000	9364.878446
9.410000	9014.272576
9.420000	6848.017861
9.430000	3073.111131
9.440000	-1082.027445
9.450000	-4543.797665
9.460000	-6528.523180
9.470000	-7068.600666
9.480000	-6300.623209
9.490000	-4549.236892
9.500000	-2632.393436
9.510000	-1079.394152
9.520000	300.835893
9.530000	1472.180419
9.540000	2242.995395
9.550000	2967.613411
9.560000	4464.790834
9.570000	6938.386058
9.580000	9889.686597
9.590000	12317.142385
9.600000	13369.360934
9.610000	13068.331675
9.620000	11819.457094
9.630000	10133.847903
9.640000	7860.104663
9.650000	4779.551432
9.660000	790.780710
9.670000	-4034.896667
9.680000	-9777.475329
9.690000	-15818.998574
9.700000	-20071.439691
9.710000	-21389.155207
9.720000	-20115.815989
9.730000	-17930.093443
9.740000	-15290.793836
9.750000	-11666.261862
9.760000	-6964.929427
9.770000	-2429.041067
9.780000	634.812593
9.790000	1502.836514
9.800000	537.930505
9.810000	-1622.472226
9.820000	-4498.322419
9.830000	-7816.619762
9.840000	-11475.647443
9.850000	-15246.016469
9.860000	-18783.588589
9.870000	-21898.432724
9.880000	-24049.492641
9.890000	-24729.867933
9.900000	-24067.061984
9.910000	-22199.252880
9.920000	-19206.054982
9.930000	-15007.782076
9.940000	-9853.864178
9.950000	-5091.569182
9.960000	-1882.068466
9.970000	-828.393075
9.980000	-1190.149534
9.990000	-1674.930899
10.000000	-1917.336912
10.010000	-2034.350637
10.020000	-3011.129258
10.030000	-5249.385137
10.040000	-8267.375789
10.050000	-10532.076269
10.060000	-10519.187043
10.070000	-8329.100482
10.080000	-5101.386477
10.090000	-2408.176629
10.100000	-1190.379236
10.110000	-1696.541303
10.120000	-3863.368751
10.130000	-6520.381343
10.140000	-8892.624010
10.150000	-10502.547344
10.160000	-11572.640761
10.170000	-12721.970973
10.180000	-13519.939145
10.190000	-13859.778131
10.200000	-13711.939788
10.210000	-13703.541695
10.220000	-14271.566940
10.230000	-14838.663859
10.240000	-14818.977680
10.250000	-13986.911414
10.260000	-12616.558994
10.270000	-11282.110136
10.280000	-10170.866665
10.290000	-9040.245752
10.300000	-7792.351228
10.310000	-6285.702993
10.320000	-4762.325555
10.330000	-3329.555135
10.340000	-2292.937468
10.350000	-1787.360065
10.360000	-1505.083487
10.370000	-1319.072747
10.380000	-1071.885699
10.390000	-826.792938
10.400000	-661.122748
10.410000	-629.174355
10.420000	-817.835357
10.430000	-1215.332416
10.440000	-1467.316247
10.450000	-1282.701657
10.460000	-777.614547
10.470000	-338.507225
10.480000	-211.215361
10.490000	-120.899649
10.500000	5.283901
10.510000	242.039712
10.520000	540.107831
10.530000	774.441198
10.540000	971.356241
10.550000	997.417796
10.560000	1010.757804
10.570000	936.110813
10.580000	895.396863
10.590000	913.906116
10.600000	969.946339
10.610000	1033.389473
10.620000	1072.206910
10.630000	1138.826195
10.640000	1295.220177
10.650000	1470.964162
10.660000	1646.777198
10.670000	1844.289503
10.680000	2086.083558
10.690000	2407.401374
10.700000	2698.749174
10.710000	3096.283071
10.720000	3558.694165
10.730000	4059.644329
10.740000	4537.318451
10.750000	4906.055099
10.760000	5262.563552
10.770000	5543.150115
10.780000	5839.698954
10.790000	6405.823816
10.800000	6961.842220
10.810000	7435.210459
10.820000	7519.157560
10.830000	7531.800134
10.840000	7498.827747
10.850000	7388.394379
10.860000	7250.556677
10.870000	7065.969614
10.880000	6970.220519
10.890000	6875.110641
10.900000	6788.666768
10.910000	6705.403643
10.920000	6651.727290
10.930000	6624.145427
10.940000	6565.174600
10.950000	6457.871104
10.960000	6317.253002
10.970000	6097.978357
10.980000	5819.393783
10.990000	5412.063778
11.000000	5099.899547
11.010000	4889.448712
11.020000	4820.062460
11.030000	4736.536838
11.040000	4639.895820
11.050000	4606.744348
11.060000	4629.747506
11.070000	4740.979353
11.080000	4890.964818
11.090000	5017.439158
11.100000	5062.123299
11.110000	5054.406905
11.120000	5058.314291
11.130000	5046.397667
11.140000	4998.135392
11.150000	4870.273886
11.160000	4743.581795
11.170000	4631.586829
11.180000	4607.817779
11.190000	4630.210421
11.200000	4684.428039
11.210000	4715.022507
11.220000	4760.601302
11.230000	4737.807514
11.240000	4568.433148
11.250000	4239.753323
11.260000	3869.607693
11.270000	3584.042214
11.280000	3334.626659
11.290000	3048.256703
11.300000	2755.593703
11.310000	2501.175406
11.320000	2390.731253
11.330000	2316.178950
11.340000	2265.474308
11.350000	2227.864058
11.360000	2142.092948
11.370000	2059.208166
11.380000	1883.662421
11.390000	1974.824768
11.400000	2133.390038
11.410000	2382.748479
11.420000	2526.211515
11.430000	2646.808294
11.440000	2823.392193
11.450000	2996.528445
11.460000	3233.630893
11.470000	3468.928533
11.480000	3654.299908
11.490000	3790.848405
11.500000	3907.432460
11.510000	3974.664973
11.520000	3959.280376
11.530000	3932.497185
11.540000	4047.083573
11.550000	4269.217482
11.560000	4453.316292
11.570000	4538.910582
11.580000	4593.642439
11.590000	4692.701807
11.600000	4812.443660
11.610000	4985.396288
11.620000	5217.255903
11.630000	5456.353648
11.640000	5672.215814
11.650000	5788.610434
11.660000	5915.113450
11.670000	5978.795596
11.680000	6048.164742
11.690000	6114.536107
11.700000	6245.862696
11.710000	6462.918644
11.720000	6672.019952
11.730000	6832.555980
11.740000	6921.001815
11.750000	6981.157851
11.760000	7028.353669
11.770000	7085.898353
11.780000	7146.072162
11.790000	7193.070279
11.800000	7193.865375
11.810000	7191.575048
11.820000	7227.779708
11.830000	7287.718673
11.840000	7361.168318
11.850000	7457.379101
11.860000	7571.984300
11.870000	7715.880970
11.880000	7918.318235
11.890000	8113.925155
11.900000	8307.648769
11.910000	8422.214863
11.920000	8568.635631
11.930000	8738.984868
11.940000	8880.641101
11.950000	8974.990654
11.960000	9015.155470
11.970000	9054.974105
11.980000	9084.974365
11.990000	9069.698720
12.000000	9066.193932
12.010000	9109.844451
12.020000	9156.008265
12.030000	9184.539255
12.040000	9136.531776
12.050000	9119.172996
12.060000	9097.481286
12.070000	9091.106933
12.080000	9069.108932
12.090000	9028.936154
12.100000	8977.914516
12.110000	8928.597318
12.120000	8924.288863
12.130000	8950.250028
12.140000	8947.358882
12.150000	8920.562834
12.160000	8886.611940
12.170000	8869.713182
12.180000	8850.562269
12.190000	8836.753850
12.200000	8890.812849
12.210000	8990.042718
12.220000	9168.701622
12.230000	9331.456858
12.240000	9454.266789
12.250000	9527.724442
12.260000	9629.884695
12.270000	9757.580672
12.280000	9838.456781
12.290000	9894.840259
12.300000	9852.572864
12.310000	9774.283512
12.320000	9577.764685
12.330000	9365.706992
12.340000	9115.750891
12.350000	8790.224987
12.360000	8395.326156
12.370000	7924.508500
12.380000	7389.082873
12.390000	6794.907951
12.400000	6173.706665
12.410000	5554.761813
12.420000	4878.546013
12.430000	3983.125552
12.440000	3056.134917
12.450000	2102.441682
12.460000	1358.813366
12.470000	802.161599
12.480000	408.271097
12.490000	304.077241
12.500000	791.321047
12.510000	2329.202313
12.520000	4608.034336
12.530000	6859.173476
12.540000	8332.235919
12.550000	8796.006848
12.560000	8277.581330
12.570000	7108.441979
12.580000	5476.964080
12.590000	3980.762787
12.600000	2958.060626
12.610000	2271.534911
12.620000	2113.818695
12.630000	2351.832201
12.640000	2968.312427
12.650000	3233.922411
12.660000	2942.322399
12.670000	2544.562401
12.680000	2151.138962
12.690000	1875.951402
12.700000	1894.194578
12.710000	2321.912998
12.720000	2451.387063
12.730000	1609.700579
12.740000	-38.725932
12.750000	-1745.849861
12.760000	-2835.312499
12.770000	-3191.218712
12.780000	-3165.465305
12.790000	-3357.217128
12.800000	-4262.286999
12.810000	-5615.747839
12.820000	-7227.605175
12.830000	-8651.534114
12.840000	-9171.477657
12.850000	-8133.454870
12.860000	-5551.484292
12.870000	-2444.771297
12.880000	369.426861
12.890000	2609.745268
12.900000	4193.910643
12.910000	5151.927377
12.920000	5708.618011
12.930000	6250.907864
12.940000	6883.902444
12.950000	7343.556805
12.960000	7423.358458
12.970000	6925.240344
12.980000	5794.550901
12.990000	4330.235336
13.000000	2915.312238
13.010000	2025.821473
13.020000	1758.364719
13.030000	2003.505969
13.040000	2270.030484
13.050000	2076.877819
13.060000	1249.528569
13.070000	-323.589487
13.080000	-2854.931579
13.090000	-6027.285615
13.100000	-9130.331389
13.110000	-11348.715038
13.120000	-12038.893914
13.130000	-10899.778183
13.140000	-8035.932680
13.150000	-4654.567433
13.160000	-1414.498313
13.170000	1351.837914
13.180000	3542.197745
13.190000	4320.521850
13.200000	3464.538301
13.210000	1378.550003
13.220000	-1087.943850
13.230000	-3424.066137
13.240000	-5481.471408
13.250000	-7280.530793
13.260000	-8860.772122
13.270000	-9892.370252
13.280000	-10194.874368
13.290000	-9983.690179
13.300000	-9780.880653
13.310000	-9796.550237
13.320000	-9967.535105
13.330000	-10167.637596
13.340000	-10381.228653
13.350000	-10187.348683
13.360000	-9277.970900
13.370000	-7256.222394
13.380000	-4159.981940
13.390000	-667.932181
13.400000	2248.793083
13.410000	3986.956505
13.420000	4881.063764
13.430000	5443.586114
13.440000	5757.739616
13.450000	5940.223840
13.460000	6018.752515
13.470000	6087.624497
13.480000	6138.060915
13.490000	6202.047587
13.500000	6137.466747
13.510000	5979.866050
13.520000	5471.974142
13.530000	4809.833759
13.540000	3928.667696
13.550000	3277.446671
13.560000	3119.751157
13.570000	3631.382503
13.580000	5042.880532
13.590000	7038.378025
13.600000	8845.314179
13.610000	8884.046930
13.620000	6115.119677
13.630000	853.191087
13.640000	-6114.417725
13.650000	-13462.652904
13.660000	-20107.355771
13.670000	-25296.001460
13.680000	-28546.501120
13.690000	-29100.007516
13.700000	-26939.751234
13.710000	-23129.108785
13.720000	-19465.814785
13.730000	-16958.841257
13.740000	-15542.725906
13.750000	-14595.845635
13.760000	-14009.512703
13.770000	-13220.067911
13.780000	-12159.796386
13.790000	-10602.657208
13.800000	-9264.469223
13.810000	-7589.222580
13.820000	-5616.915204
13.830000	-2118.104363
13.840000	2248.315847
13.850000	7199.242701
13.860000	10711.631281
13.870000	12741.221118
13.880000	12615.417253
13.890000	9966.212020
13.900000	-4977.211049
13.910000	-10174.139209
13.920000	-15234.540368
13.930000	-20352.339574
13.940000	-24259.231137
13.950000	-26100.025516
13.960000	-27307.642738
13.970000	-28019.291918
13.980000	-28137.548928
13.990000	-26398.493107
14.000000	-23242.607843
14.010000	-19309.044027
14.020000	-16052.042004
14.030000	-14046.649044
14.040000	-13352.194109
14.050000	-13504.282113
14.060000	-14005.387052
14.070000	-14459.992443
14.080000	-14896.540011
14.090000	-14021.532627
14.100000	-14285.769273
14.110000	-15033.664769
14.120000	-16848.189003
14.130000	-17347.774651
14.140000	-16636.219660
14.150000	-14970.086647
14.160000	-12491.382631
14.170000	-10275.406599
14.180000	-9001.901335
14.190000	-8442.003968
14.200000	-7750.831810
14.210000	-7010.247784
14.220000	-6224.647888
14.230000	-5705.764679
14.240000	-5153.543143
14.250000	-4459.564586
14.260000	-3477.421195
14.270000	-2211.529649
14.280000	-886.652423
14.290000	372.702275
14.300000	1612.843434
14.310000	3074.729706
14.320000	4831.809727
14.330000	6600.042062
14.340000	8037.553577
14.350000	8938.333537
14.360000	9319.519142
14.370000	9364.025301
14.380000	9176.885194
14.390000	8687.518495
14.400000	7892.722714
14.410000	6901.609166
14.420000	6026.409657
14.430000	5381.116049
14.440000	4984.464777
14.450000	4536.713749
14.460000	3937.702645
14.470000	3262.095207
14.480000	2702.236303
14.490000	2343.491028
14.500000	2060.835907
14.510000	1800.060722
14.520000	1522.793960
14.530000	1242.088827
14.540000	985.110153
14.550000	774.091638
14.560000	654.814798
14.570000	719.882344
14.580000	897.730027
14.590000	1147.420830
14.600000	1598.780099
14.610000	2424.411473
14.620000	3623.022708
14.630000	4789.966573
14.640000	5654.975502
14.650000	6162.454496
14.660000	6488.242566
14.670000	6723.390207
14.680000	6859.920316
14.690000	6946.833719
14.700000	6955.404486
14.710000	6928.829892
14.720000	6768.857111
14.730000	6582.749288
14.740000	6330.265117
14.750000	6180.606159
14.760000	6096.804092
14.770000	6086.283823
14.780000	6056.769689
14.790000	6007.915993
14.800000	5940.441741
14.810000	5810.798254
14.820000	5538.385146
14.830000	5278.035008
14.840000	4950.394570
14.850000	4694.248123
14.860000	4399.766357
14.870000	4253.989751
14.880000	3957.182223
14.890000	2698.710423
14.900000	1444.861988
14.910000	539.773596
14.920000	730.701388
14.930000	863.334216
14.940000	883.951687
14.950000	814.157558
14.960000	751.467446
14.970000	712.149161
14.980000	683.295602
14.990000	969.071929
15.000000	1219.722454
15.010000	1526.602079
15.020000	1612.199785
15.030000	1704.251275
15.040000	1762.339705
15.050000	1818.499621
15.060000	1939.977550
15.070000	2234.929250
15.080000	2517.210366
15.090000	2776.245401
15.100000	2897.228889
15.110000	3061.782016
15.120000	3207.651538
15.130000	3284.760308
15.140000	3235.796822
15.150000	3177.961332
15.160000	3194.593424
15.170000	3246.571201
15.180000	3308.841384
15.190000	3400.047976
15.200000	3609.698348
15.210000	3825.051094
15.220000	4055.306173
15.230000	4211.868969
15.240000	4345.380506
15.250000	4463.654004
15.260000	4633.034398
15.270000	4826.268076
15.280000	5066.914587
15.290000	5340.197516
15.300000	5472.111999
15.310000	5389.158086
15.320000	5161.459467
15.330000	5058.756299
15.340000	5072.131394
15.350000	5064.760082
15.360000	5051.978486
15.370000	5036.820990
15.380000	5102.470261
15.390000	5162.507562
15.400000	5212.612587
15.410000	5293.743767
15.420000	5403.394312
15.430000	5534.058498
15.440000	5569.302560
15.450000	5590.341865
15.460000	5658.247967
15.470000	5746.477086
15.480000	5793.523150
15.490000	5796.866723
15.500000	5817.063881
15.510000	5888.944541
15.520000	5957.449730
15.530000	6001.540930
15.540000	6041.707860
15.550000	6092.211484
15.560000	6185.105814
15.570000	6276.096274
15.580000	6372.067877
15.590000	6457.342199
15.600000	6497.400831
15.610000	6520.181791
15.620000	6557.833590
15.630000	6655.143746
15.640000	6659.143546
15.650000	6713.673921
15.660000	6701.822955
15.670000	6683.441127
15.680000	6621.654110
15.690000	6603.632267
15.700000	6753.001079
15.710000	6916.811874
15.720000	7057.077601
15.730000	7099.972508
15.740000	7133.008995
15.750000	7228.502054
15.760000	7345.706041
15.770000	7462.825313
15.780000	7592.237385
15.790000	7764.938877
15.800000	7885.158396
15.810000	8002.187345
15.820000	8085.261259
15.830000	8199.432581
15.840000	8215.228595
15.850000	8231.702668
15.860000	8208.542056
15.870000	8253.774087
15.880000	8220.547662
15.890000	7675.114606
15.900000	6985.143015
15.910000	6208.658062
15.920000	5828.623640
15.930000	5478.250459
15.940000	5267.795360
15.950000	5205.608444
15.960000	5172.994886
15.970000	5151.950958
15.980000	5145.290759
15.990000	5193.433756
16.000000	5238.016781
16.010000	5174.154674
16.020000	5105.679690
16.030000	5002.870106
16.040000	4847.399564
16.050000	4635.983489
16.060000	4390.208658
16.070000	4317.291871
16.080000	4242.986067
16.090000	4136.006463
16.100000	3869.177818
16.110000	3569.427479
16.120000	3279.143329
16.130000	3041.855001
16.140000	2874.035291
16.150000	2741.809045
16.160000	2633.316548
16.170000	2507.676210
16.180000	2420.853955
16.190000	2369.033299
16.200000	2356.732329
16.210000	2346.256462
16.220000	2262.821439
16.230000	2162.816418
16.240000	2119.597559
16.250000	2263.169586
16.260000	2444.575647
16.270000	2584.345616
16.280000	2614.213692
16.290000	2569.098055
16.300000	2526.258179
16.310000	2487.597463
16.320000	2414.141441
16.330000	2236.628496
16.340000	1961.176963
16.350000	1719.613750
16.360000	1682.591793
16.370000	1967.723031
16.380000	2621.745363
16.390000	3444.417713
16.400000	4134.214830
16.410000	4574.210477
16.420000	4805.038409
16.430000	5006.303233
16.440000	4956.007501
16.450000	4493.476507
16.460000	3451.200092
16.470000	2088.059994
16.480000	406.256915
16.490000	-1507.224320
16.500000	-3493.592945
16.510000	-5218.466830
16.520000	-6753.668842
16.530000	-7925.481853
16.540000	-8515.405153
16.550000	-8174.926338
16.560000	-6990.793244
16.570000	-4957.911248
16.580000	-2955.071328
16.590000	-1271.408576
16.600000	-395.699283
16.610000	471.160245
16.620000	1218.700551
16.630000	1818.143217
16.640000	2172.433082
16.650000	2686.355191
16.660000	3138.292906
16.670000	3718.877601
16.680000	3690.444991
16.690000	3794.635303
16.700000	3105.185346
16.710000	2195.678738
16.720000	-184.922490
16.730000	-3175.650145
16.740000	-7192.380092
16.750000	-9989.514951
16.760000	-11791.804902
16.770000	-11392.299342
16.780000	-10770.503000
16.790000	-10871.781016
16.800000	-42572.382357
16.810000	-43509.430473
16.820000	-40324.780969
16.830000	-34063.940495
16.840000	-28958.699197
16.850000	-24622.135920
16.860000	-21693.535208
16.870000	-19319.139470
16.880000	-17754.962386
16.890000	-14275.324153
16.900000	-5863.474123
16.910000	-3864.105842
16.920000	-4764.845794
16.930000	-5312.271970
16.940000	-5573.538304
16.950000	-5150.710275
16.960000	-4690.984985
16.970000	-3924.514181
16.980000	-3462.737191
16.990000	-6062.592010
17.000000	-11448.004237
17.010000	-14001.931134
17.020000	-12917.147161
17.030000	-10439.876872
17.040000	-7558.448103
17.050000	-4428.758143
17.060000	-2151.566304
17.070000	-292.980048
17.080000	751.481599
17.090000	1367.721595
17.100000	1306.228107
17.110000	980.354168
17.120000	70.404728
17.130000	-1611.541356
17.140000	-4629.675641
17.150000	-8268.813355
17.160000	-11651.868542
17.170000	-13683.710478
17.180000	-14784.781493
17.190000	-15248.482766
17.200000	-15700.163520
17.210000	-16052.855817
17.220000	-16372.856776
17.230000	-16700.714738
17.240000	-17054.043180
17.250000	-17389.963099
17.260000	-17508.018383
17.270000	-17127.545330
17.280000	-15978.910511
17.290000	-13654.968860
17.300000	-10389.781665
17.310000	-6795.647979
17.320000	-3905.356531
17.330000	-1919.589138
17.340000	-879.706598
17.350000	-274.891760
17.360000	4.631862
17.370000	376.108199
17.380000	552.495466
17.390000	819.809710
17.400000	759.553095
17.410000	910.270250
17.420000	912.944018
17.430000	1264.548422
17.440000	1288.914137
17.450000	1245.866757
17.460000	419.341334
17.470000	-383.158164
17.480000	-1515.948976
17.490000	-4639.754415
17.500000	-12955.688034
17.510000	-15011.130776
17.520000	-14621.665442
17.530000	-13822.990119
17.540000	-13117.991934
17.550000	-11171.316714
17.560000	-8856.900772
17.570000	-6450.178676
17.580000	-5528.562885
17.590000	-5846.876761
17.600000	-6741.248350
17.610000	-7344.855382
17.620000	-8084.990738
17.630000	-8700.443389
17.640000	-9263.480628
17.650000	-9460.467511
17.660000	-9327.090371
17.670000	-8712.470638
17.680000	-8004.335134
17.690000	-7384.394514
17.700000	-6904.707888
17.710000	-5834.650232
17.720000	-4109.053988
17.730000	-2194.509443
17.740000	-699.597052
17.750000	-87.774348
17.760000	-227.641205
17.770000	-760.881538
17.780000	-1404.688889
17.790000	-2007.475878
17.800000	-2854.393459
17.810000	-3769.591992
17.820000	-4717.267872
17.830000	-5879.422082
17.840000	-7404.162159
17.850000	-9396.243242
17.860000	-11304.027559
17.870000	-13040.444740
17.880000	-14159.341443
17.890000	-15491.585367
17.900000	-16041.065971
17.910000	-15837.301667
17.920000	-13567.191634
17.930000	-10369.169971
17.940000	-6976.954239
17.950000	-5163.637959
17.960000	-4547.874174
17.970000	-4884.885363
17.980000	-4783.044802
17.990000	-2104.404710
18.000000	5779.619502
18.010000	8435.185646
18.020000	8547.156554
18.030000	7974.647899
18.040000	7231.206799
18.050000	5639.130649
18.060000	3951.482740
18.070000	1772.089849
18.080000	-236.363280
18.090000	-1231.484029
18.100000	-1121.293504
18.110000	-277.684916
18.120000	439.754024
18.130000	964.279237
18.140000	1469.452534
18.150000	1613.823362
18.160000	1767.102315
18.170000	1818.716545
18.180000	1983.317044
18.190000	2077.190781
18.200000	2219.709556
18.210000	2288.015187
18.220000	2335.939623
18.230000	2199.931572
18.240000	2055.125717
18.250000	2002.005470
18.260000	2092.544525
18.270000	2099.348064
18.280000	2015.274319
18.290000	1567.002318
18.300000	1238.129136
18.310000	979.910550
18.320000	1040.518878
18.330000	1051.180369
18.340000	997.608300
18.350000	924.341116
18.360000	750.084775
18.370000	462.092756
18.380000	43.288600
18.390000	-470.267132
18.400000	-1020.033354
18.410000	-1440.918613
18.420000	-1574.955832
18.430000	-1517.844473
18.440000	-1408.905821
18.450000	-1382.661543
18.460000	-1374.877653
18.470000	-1360.149677
18.480000	-1300.709944
18.490000	-1202.315092
18.500000	-1050.374068
18.510000	-857.773669
18.520000	-614.523016
18.530000	-387.654751
18.540000	-64.719914
18.550000	416.120971
18.560000	831.097932
18.570000	935.642142
18.580000	602.042694
18.590000	143.517024
18.600000	-286.639073
18.610000	-702.585278
18.620000	-1013.546514
18.630000	-1198.055118
18.640000	-1247.663520
18.650000	-1259.986690
18.660000	-1106.660226
18.670000	-570.504631
18.680000	275.719823
18.690000	1073.368728
18.700000	1406.121373
18.710000	1333.732988
18.720000	1135.646370
18.730000	1075.911761
18.740000	1107.510505
18.750000	1101.061211
18.760000	1060.942290
18.770000	1002.778520
18.780000	1041.520543
18.790000	1280.340495
18.800000	1651.509770
18.810000	2035.644299
18.820000	2411.321759
18.830000	2814.328925
18.840000	3238.913325
18.850000	3625.094904
18.860000	4024.712245
18.870000	4506.143135
18.880000	4921.490543
18.890000	5191.957755
18.900000	5329.096770
18.910000	5413.879305
18.920000	5442.723479
18.930000	5422.418472
18.940000	5435.817956
18.950000	5475.638608
18.960000	5512.449790
18.970000	5572.278866
18.980000	5682.689898
18.990000	5859.159527
19.000000	5969.467459
19.010000	6041.425653
19.020000	6156.674897
19.030000	6275.643630
19.040000	6456.103834
19.050000	6511.814872
19.060000	6584.392672
19.070000	6614.730148
19.080000	6650.940542
19.090000	6694.484331
19.100000	6723.393566
19.110000	6815.818752
19.120000	6908.766559
19.130000	7048.095440
19.140000	7141.739654
19.150000	7263.475462
19.160000	7355.000026
19.170000	7483.184820
19.180000	7537.761519
19.190000	7513.505740
19.200000	7412.869169
19.210000	7261.216642
19.220000	7132.773329
19.230000	7024.713447
19.240000	6995.511889
19.250000	6978.534456
19.260000	7005.857808
19.270000	7064.235596
19.280000	7204.719936
19.290000	7370.648784
19.300000	7539.017307
19.310000	7662.339061
19.320000	7721.739074
19.330000	7710.075478
19.340000	7686.324407
19.350000	7627.937959
19.360000	7622.229418
19.370000	7716.041799
19.380000	7946.461341
19.390000	8233.178060
19.400000	8435.215933
19.410000	8588.824761
19.420000	8707.933895
19.430000	8822.541218
19.440000	8916.886027
19.450000	8956.232915
19.460000	8968.705614
19.470000	8914.433397
19.480000	8875.222271
19.490000	8846.092342
19.500000	8765.280357
19.510000	8761.639391
19.520000	8810.281197
19.530000	8860.480891
19.540000	8800.145906
19.550000	8678.130484
19.560000	8618.249440
19.570000	8516.186615
19.580000	8398.746347
19.590000	8505.527180
19.600000	8698.907185
19.610000	8894.714508
19.620000	8859.357498
19.630000	8806.830889
19.640000	8816.136568
19.650000	8870.717416
19.660000	8949.268227
19.670000	8995.874149
19.680000	9091.473944
19.690000	9203.750856
19.700000	9341.489722
19.710000	9456.835247
19.720000	9559.024915
19.730000	9642.908689
19.740000	9723.309437
19.750000	9781.918116
19.760000	9806.637120
19.770000	9803.669631
19.780000	9799.043406
19.790000	9851.534181
19.800000	9786.831468
19.810000	9681.107477
19.820000	9529.416261
19.830000	9394.551711
19.840000	9195.623264
19.850000	8870.061689
19.860000	8494.225779
19.870000	8114.501737
19.880000	7749.095020
19.890000	7128.159772
19.900000	6560.561175
19.910000	6076.056908
19.920000	5867.144870
19.930000	5604.188690
19.940000	5343.455332
19.950000	5198.141777
19.960000	5148.396697
19.970000	5124.619241
19.980000	5079.725578
19.990000	4996.168122
20.000000	4913.867183
20.010000	4868.691986
20.020000	4808.417468
20.030000	4729.999396
20.040000	4562.761597
20.050000	4415.443621
20.060000	4257.698825
20.070000	4159.135203
20.080000	4104.373138
20.090000	4164.365403
20.100000	4214.810300
20.110000	4195.401441
20.120000	4007.770573
20.130000	3540.359791
20.140000	2604.809303
20.150000	1371.256351
20.160000	322.992525
20.170000	-278.173550
20.180000	-623.790112
20.190000	-1020.977435
20.200000	-1347.786712
20.210000	-1490.198069
20.220000	-1711.550595
20.230000	-2099.001502
20.240000	-2143.078334
20.250000	-1194.826888
20.260000	291.623349
20.270000	824.420851
20.280000	-159.536592
20.290000	-2405.165847
20.300000	-5110.277987
20.310000	-7776.005563
20.320000	-10097.641697
20.330000	-11884.917717
20.340000	-13316.111479
20.350000	-14060.193829
20.360000	-13768.631565
20.370000	-11899.038049
20.380000	-8610.180039
20.390000	-4312.010117
20.400000	-173.586665
20.410000	2612.177204
20.420000	3543.461237
20.430000	2988.308214
20.440000	2135.984046
20.450000	1565.647673
20.460000	1476.345113
20.470000	1577.188522
20.480000	1840.307029
20.490000	2372.977094
20.500000	3128.052740
20.510000	3676.923928
20.520000	3561.254160
20.530000	2549.361996
20.540000	1071.807851
20.550000	-388.524873
20.560000	-1603.141165
20.570000	-2627.999063
20.580000	-3584.411104
20.590000	-4469.609240
20.600000	-5251.412387
20.610000	-6072.179591
20.620000	-7130.718125
20.630000	-8742.889452
20.640000	-10910.982516
20.650000	-13177.491534
20.660000	-15229.801729
20.670000	-16760.934350
20.680000	-17905.995387
20.690000	-18417.822339
20.700000	-18355.526796
20.710000	-17661.220193
20.720000	-16117.786643
20.730000	-13306.898949
20.740000	-9117.725599
20.750000	-4410.747613
20.760000	-826.643717
20.770000	873.983852
20.780000	1073.071756
20.790000	839.095738
20.800000	591.498669
20.810000	356.287012
20.820000	333.563000
20.830000	596.287588
20.840000	1171.325148
20.850000	1863.167744
20.860000	2687.824497
20.870000	3490.400656
20.880000	4152.913276
20.890000	4370.942093
20.900000	4029.007437
20.910000	3147.341881
20.920000	1868.254969
20.930000	483.970612
20.940000	-1013.171530
20.950000	-2506.243087
20.960000	-3535.174437
20.970000	-3752.953756
20.980000	-3313.741196
20.990000	-2839.470757
21.000000	-2579.473652
21.010000	-2513.437077
21.020000	-2786.852236
21.030000	-3646.874159
21.040000	-5016.532905
21.050000	-6478.569695
21.060000	-7211.965105
21.070000	-6773.497412
21.080000	-4992.006409
21.090000	-2093.043893
21.100000	1415.313218
21.110000	4938.307892
21.120000	8112.737942
21.130000	10966.870090
21.140000	13469.801437
21.150000	15508.340248
21.160000	16825.937784
21.170000	17242.486156
21.180000	16295.095694
21.190000	14049.882274
21.200000	10934.710009
21.210000	7350.332248
21.220000	3372.558889
21.230000	-495.919607
21.240000	-3895.527639
21.250000	-6374.796135
21.260000	-7986.878617
21.270000	-9255.511666
21.280000	-10315.709794
21.290000	-11599.592367
21.300000	-13102.558540
21.310000	-15056.875203
21.320000	-16561.513931
21.330000	-16872.142093
21.340000	-15603.008795
21.350000	-13469.655860
21.360000	-11028.288853
21.370000	-8496.797207
21.380000	-6003.547038
21.390000	-3535.441176
21.400000	-1384.869192
21.410000	261.646976
21.420000	1263.041146
21.430000	1775.325026
21.440000	1862.138037
21.450000	1833.118627
21.460000	1733.615225
21.470000	1607.681144
21.480000	1295.638261
21.490000	819.514403
21.500000	-27.863630
21.510000	-1167.428655
21.520000	-2308.346810
21.530000	-3049.632519
21.540000	-3440.964871
21.550000	-4210.597640
21.560000	-5536.970713
21.570000	-6240.063229
21.580000	-4760.834133
21.590000	-1071.633790
21.600000	2897.693545
21.610000	5194.166016
21.620000	5160.881339
21.630000	3581.689700
21.640000	1855.859219
21.650000	396.270350
21.660000	-1243.757927
21.670000	-3650.767653
21.680000	-6487.071463
21.690000	-8771.607101
21.700000	-9934.750540
21.710000	-9174.042813
21.720000	-6455.442785
21.730000	-2504.133275
21.740000	1167.466500
21.750000	3232.382588
21.760000	3256.591927
21.770000	1785.351639
21.780000	-3.114043
21.790000	-2880.270929
21.800000	-4892.906560
21.810000	-6215.307009
21.820000	-5011.080189
21.830000	-3187.194825
21.840000	-816.118895
21.850000	903.253209
21.860000	1145.297298
21.870000	-985.059792
21.880000	-4669.484098
21.890000	-3883.644355
21.900000	-2133.375761
21.910000	40.025632
21.920000	-1653.769661
21.930000	-3134.534963
21.940000	-4152.953402
21.950000	-4793.248070
21.960000	-4022.638829
21.970000	-2095.064714
21.980000	681.290802
21.990000	3728.809530
22.000000	7131.802924
22.010000	11077.063230
22.020000	14718.576528
22.030000	17662.991829
22.040000	18924.487889
22.050000	19433.949802
22.060000	18840.644055
22.070000	18435.848973
22.080000	17314.866401
22.090000	14895.224248
22.100000	-8103.006490
22.110000	-12233.145583
22.120000	-13802.742799
22.130000	-13191.059794
22.140000	-12570.282024
22.150000	-11352.299412
22.160000	-10370.633133
22.170000	-8846.017078
22.180000	-7658.115325
22.190000	-6233.318212
22.200000	-4961.819905
22.210000	-3353.109168
22.220000	-1903.477037
22.230000	-354.068401
22.240000	783.841506
22.250000	2029.560421
22.260000	2967.015022
22.270000	3990.171392
22.280000	4528.296137
22.290000	4869.230942
22.300000	4904.913506
22.310000	4929.485311
22.320000	4883.984324
22.330000	5004.640164
22.340000	5218.629100
22.350000	5511.043263
22.360000	5601.299705
22.370000	5717.598950
22.380000	5808.624052
22.390000	5972.987469
22.400000	5933.002116
22.410000	5869.054214
22.420000	5792.000788
22.430000	5880.333717
22.440000	5949.754765
22.450000	6087.109033
22.460000	6057.375134
22.470000	6040.106054
22.480000	5874.476258
22.490000	5031.506757
22.500000	4107.415172
22.510000	3308.248991
22.520000	3312.062764
22.530000	3292.604226
22.540000	3001.040036
22.550000	2648.298361
22.560000	2225.488712
22.570000	1950.690039
22.580000	1565.368141
22.590000	712.884381
22.600000	-208.608262
22.610000	-973.658921
22.620000	-1176.019112
22.630000	-1257.129205
22.640000	-1294.028896
22.650000	-1038.640689
22.660000	-668.141866
22.670000	-208.005056
22.680000	155.365918
22.690000	579.971589
22.700000	933.470320
22.710000	1183.281954
22.720000	1285.936845
22.730000	1264.499400
22.740000	1222.681517
22.750000	1271.793320
22.760000	1517.465148
22.770000	1809.437925
22.780000	2087.214425
22.790000	2644.774163
22.800000	3196.421866
22.810000	3657.378084
22.820000	3648.201402
22.830000	3590.896844
22.840000	3538.346230
22.850000	3488.643063
22.860000	3431.511477
22.870000	3326.348170
22.880000	3281.459992
22.890000	3302.477613
22.900000	3479.345137
22.910000	3695.410041
22.920000	3927.857104
22.930000	4119.950376
22.940000	4324.369290
22.950000	4521.657556
22.960000	4650.797539
22.970000	4755.681645
22.980000	4860.198133
22.990000	4946.617207
23.000000	5020.687458
23.010000	4949.862277
23.020000	4928.094619
23.030000	4893.758167
23.040000	4889.138311
23.050000	4808.597213
23.060000	4637.446187
23.070000	4486.794408
23.080000	4328.047880
23.090000	4189.155951
23.100000	4116.039477
23.110000	4114.412408
23.120000	4141.902457
23.130000	4208.146587
23.140000	4287.334343
23.150000	4504.292130
23.160000	4660.540547
23.170000	4866.947600
23.180000	4917.534740
23.190000	4988.308373
23.200000	5068.001950
23.210000	5251.278662
23.220000	5407.165836
23.230000	5478.766605
23.240000	5577.102887
23.250000	5670.839916
23.260000	5794.528291
23.270000	5845.842343
23.280000	5906.094086
23.290000	5915.089721
23.300000	5920.253292
23.310000	5984.006973
23.320000	6083.805289
23.330000	6196.880556
23.340000	6240.814466
23.350000	6239.999218
23.360000	6133.204187
23.370000	6031.871811
23.380000	6016.452377
23.390000	6066.742091
23.400000	6098.128314
23.410000	6096.741796
23.420000	5997.261828
23.430000	5846.980089
23.440000	5479.401141
23.450000	5148.964483
23.460000	4723.064329
23.470000	4317.214198
23.480000	3757.179100
23.490000	2370.339319
23.500000	1106.658173
23.510000	106.144406
23.520000	59.217019
23.530000	111.270786
23.540000	134.667472
23.550000	230.584010
23.560000	271.377957
23.570000	377.129573
23.580000	396.892777
23.590000	387.457874
23.600000	340.103281
23.610000	404.760987
23.620000	530.297372
23.630000	676.292791
23.640000	782.299151
23.650000	980.546594
23.660000	1175.865911
23.670000	1382.286624
23.680000	1556.123874
23.690000	1795.596194
23.700000	2054.495014
23.710000	2355.267578
23.720000	2607.058246
23.730000	2797.654947
23.740000	2825.539527
23.750000	2819.501541
23.760000	2842.329516
23.770000	2906.697108
23.780000	2943.712042
23.790000	3018.072753
23.800000	3083.599774
23.810000	3194.864753
23.820000	3253.871309
23.830000	3410.135930
23.840000	3534.506660
23.850000	3672.345438
23.860000	3733.893033
23.870000	3823.874359
23.880000	3869.573716
23.890000	3916.171815
23.900000	3913.767675
23.910000	3939.254958
23.920000	3827.397029
23.930000	3799.496481
23.940000	3701.087298
23.950000	3778.929240
23.960000	3732.025243
23.970000	3790.903539
23.980000	3670.959513
23.990000	3679.243526
24.000000	3598.858182
24.010000	3870.790010
24.020000	4084.146087
24.030000	4707.477001
24.040000	5204.060686
24.050000	6134.227557
24.060000	6795.553445
24.070000	7841.076683
24.080000	8404.578381
24.090000	5686.104003
24.100000	2333.445711
24.110000	361.141095
24.120000	3427.031107
24.130000	6646.855751
24.140000	8311.684034
24.150000	7641.797829
24.160000	5834.771996
24.170000	4610.507708
24.180000	3828.746312
24.190000	3248.598811
24.200000	2371.666466
24.210000	1770.279332
24.220000	853.702874
24.230000	-290.872039
24.240000	-2163.238018
24.250000	-4259.636767
24.260000	-6548.182536
24.270000	-8180.537866
24.280000	-8846.321272
24.290000	-8287.637632
24.300000	-6882.599141
24.310000	-4973.368681
24.320000	-3542.704154
24.330000	-3080.484678
24.340000	-3976.610856
24.350000	-5709.176866
24.360000	-7943.783986
24.370000	-10140.058951
24.380000	-11642.400413
24.390000	-11634.931382
24.400000	-9960.594274
24.410000	-7118.711863
24.420000	-3900.365308
24.430000	-1073.541946
24.440000	909.614299
24.450000	1837.501332
24.460000	1831.383729
24.470000	1621.087869
24.480000	1361.776141
24.490000	1251.991093
24.500000	1161.459166
24.510000	1019.581463
24.520000	826.856885
24.530000	478.397966
24.540000	-7.896409
24.550000	-677.451555
24.560000	-1873.630624
24.570000	-3612.568777
24.580000	-5679.233551
24.590000	-7658.310031
24.600000	-9133.010355
24.610000	-10022.488999
24.620000	-10069.153788
24.630000	-9532.610902
24.640000	-8694.216310
24.650000	-8312.573164
24.660000	-8786.824601
24.670000	-10350.617365
24.680000	-12763.002577
24.690000	-15424.219242
24.700000	-17462.646968
24.710000	-18479.335611
24.720000	-18732.983650
24.730000	-18317.555172
24.740000	-17577.901252
24.750000	-16634.051829
24.760000	-15594.684892
24.770000	-13875.545034
24.780000	-10582.519650
24.790000	-6705.450487
24.800000	-3878.363781
24.810000	-3343.187936
24.820000	-4801.889349
24.830000	-6990.853171
24.840000	-9430.817771
24.850000	-11422.832289
24.860000	-13028.420834
24.870000	-14733.230837
24.880000	-16579.729747
24.890000	-17847.458816
24.900000	-17881.812759
24.910000	-17048.417090
24.920000	-16373.305942
24.930000	-16085.116276
24.940000	-16449.834004
24.950000	-17301.896983
24.960000	-17947.512440
24.970000	-17686.595904
24.980000	-16605.286651
24.990000	-15163.926366
25.000000	-13990.124682
25.010000	-12791.334493
25.020000	-11065.994025
25.030000	-8671.668065
25.040000	-6054.084828
25.050000	-4359.197762
25.060000	-3785.847375
25.070000	-4213.122416
25.080000	-4986.417356
25.090000	-5638.167448
25.100000	-6084.648269
25.110000	-6477.799768
25.120000	-7182.069499
25.130000	-7995.148692
25.140000	-8844.119240
25.150000	-9500.342887
25.160000	-9999.835297
25.170000	-10347.056238
25.180000	-10489.667525
25.190000	-11174.235628
25.200000	-12031.038454
25.210000	-13095.465176
25.220000	-13484.824709
25.230000	-13023.907449
25.240000	-10735.009018
25.250000	-6198.522477
25.260000	-594.923838
25.270000	3659.075640
25.280000	4977.188647
25.290000	3774.058424
25.300000	1828.519103
25.310000	439.460765
25.320000	-301.393980
25.330000	-916.082996
25.340000	-1672.869489
25.350000	-2700.502082
25.360000	-3926.048645
25.370000	-5251.107846
25.380000	-6220.169310
25.390000	-7117.667273
25.400000	-7909.669220
25.410000	-8589.554321
25.420000	-8991.650456
25.430000	-9580.088191
25.440000	-10235.277613
25.450000	-10803.776978
25.460000	-9822.220206
25.470000	-7159.369752
25.480000	-3011.974055
25.490000	-25.597304
25.500000	1055.252771
25.510000	-82.545850
25.520000	-1428.375671
25.530000	-3334.887983
25.540000	-5343.009101
25.550000	-8930.114922
25.560000	-12253.755642
25.570000	-15834.060481
25.580000	-17479.615978
25.590000	-17184.956295
25.600000	7635.080813
25.610000	9653.118871
25.620000	10322.533222
25.630000	9971.393953
25.640000	10182.118347
25.650000	9710.023012
25.660000	9638.551842
25.670000	8896.189083
25.680000	8310.993482
25.690000	7001.786417
25.700000	5529.523468
25.710000	3300.006670
25.720000	1320.916948
25.730000	-545.119430
25.740000	-1826.216108
25.750000	-3213.972931
25.760000	-4347.655865
25.770000	-5136.764202
25.780000	-4997.601762
25.790000	-4505.598332
25.800000	-3727.006865
25.810000	-3251.058329
25.820000	-2591.646350
25.830000	-1846.976109
25.840000	-695.317077
25.850000	329.573471
25.860000	1095.934995
25.870000	1610.991799
25.880000	2180.829924
25.890000	2911.684893
25.900000	3774.177697
25.910000	4533.306848
25.920000	5255.849561
25.930000	5892.439967
25.940000	6612.621065
25.950000	7410.925661
25.960000	8396.207977
25.970000	9494.746097
25.980000	10638.982760
25.990000	11554.169761
26.000000	12313.553591
26.010000	12890.828145
26.020000	13582.186160
26.030000	14256.824137
26.040000	14882.935351
26.050000	15376.188166
26.060000	15868.123914
26.070000	16462.322593
26.080000	17244.778679
26.090000	18517.899789
26.100000	19459.861130
26.110000	19858.333480
26.120000	19437.284632
26.130000	18952.784692
26.140000	18561.578122
26.150000	18112.238758
26.160000	17709.423965
26.170000	17230.249818
26.180000	16768.713614
26.190000	16251.983521
26.200000	15718.488992
26.210000	15084.226946
26.220000	14299.871353
26.230000	13436.645527
26.240000	12578.130605
26.250000	11696.934397
26.260000	10859.488021
26.270000	10010.060184
26.280000	9340.028486
26.290000	8808.383881
26.300000	8525.485978
26.310000	8420.375899
26.320000	8440.157728
26.330000	8381.785100
26.340000	8150.621697
26.350000	7836.192739
26.360000	7712.750436
26.370000	7712.483003
26.380000	7569.822831
26.390000	6969.454734
26.400000	6100.764107
26.410000	5081.376591
26.420000	4312.963918
26.430000	3784.641501
26.440000	3437.171516
26.450000	2851.055251
26.460000	2121.261500
26.470000	1407.781300
26.480000	1211.753183
26.490000	1164.915175
26.500000	775.365289
26.510000	-1107.301935
26.520000	-4594.714251
26.530000	-9770.656333
26.540000	-15798.289862
26.550000	-21384.975164
26.560000	-25172.626930
26.570000	-27414.941613
26.580000	-28778.798900
26.590000	-27964.399860
26.600000	-25871.574127
26.610000	-23169.788754
26.620000	-21685.424972
26.630000	-20453.075741
26.640000	-18643.216047
26.650000	-16921.704534
26.660000	-15005.302450
26.670000	-13688.195340
26.680000	-12388.847036
26.690000	-9346.685030
26.700000	-6438.954097
26.710000	-4160.950365
26.720000	-4160.464786
26.730000	-4202.456323
26.740000	-3803.692260
26.750000	-3410.420654
26.760000	-2876.865995
26.770000	-2633.205970
26.780000	-2323.452990
26.790000	-1513.085562
