Time(s)	GREEN_denoised_wiener
0.000000	303.323824
0.010000	482.926533
0.020000	537.569526
0.030000	594.808963
0.040000	652.123181
0.050000	713.063078
0.060000	775.015058
0.070000	839.015846
0.080000	904.257299
0.090000	967.651249
0.100000	1016.829743
0.110000	1023.598998
0.120000	975.467912
0.130000	876.615237
0.140000	749.846716
0.150000	617.653518
0.160000	497.902484
0.170000	404.370318
0.180000	334.603511
0.190000	284.104755
0.200000	246.656475
0.210000	224.552640
0.220000	216.723678
0.230000	216.675844
0.240000	217.479973
0.250000	212.824435
0.260000	206.287189
0.270000	198.990104
0.280000	194.458229
0.290000	194.508370
0.300000	203.326460
0.310000	221.708070
0.320000	249.215444
0.330000	283.593643
0.340000	323.798676
0.350000	369.505504
0.360000	418.066562
0.370000	470.117468
0.380000	524.353588
0.390000	579.754729
0.400000	634.663424
0.410000	691.093341
0.420000	749.660728
0.430000	809.452425
0.440000	869.348833
0.450000	928.837904
0.460000	990.403244
0.470000	1051.567850
0.480000	1113.826666
0.490000	1176.316089
0.500000	1239.612140
0.510000	1304.088526
0.520000	1364.072409
0.530000	1397.841591
0.540000	1380.548769
0.550000	1301.324344
0.560000	1175.789132
0.570000	1028.188639
0.580000	880.046472
0.590000	750.403826
0.600000	646.295130
0.610000	567.623635
0.620000	505.878128
0.630000	457.882118
0.640000	425.498889
0.650000	406.820729
0.660000	394.795902
0.670000	379.107310
0.680000	356.469055
0.690000	330.770313
0.700000	304.494946
0.710000	280.791622
0.720000	261.540380
0.730000	250.841936
0.740000	249.265563
0.750000	256.245121
0.760000	270.009968
0.770000	290.007386
0.780000	315.108395
0.790000	343.790710
0.800000	374.227993
0.810000	407.604172
0.820000	443.030295
0.830000	479.772987
0.840000	516.519122
0.850000	552.965881
0.860000	590.366712
0.870000	628.174834
0.880000	667.238983
0.890000	706.398959
0.900000	747.139045
0.910000	789.639864
0.920000	836.398992
0.930000	882.212963
0.940000	905.634156
0.950000	880.459314
0.960000	793.257187
0.970000	660.807899
0.980000	508.589831
0.990000	360.504335
1.000000	232.586172
1.010000	131.861118
1.020000	59.584873
1.030000	7.877464
1.040000	-25.717092
1.050000	-41.750074
1.060000	-44.010619
1.070000	-42.377225
1.080000	-47.957296
1.090000	-61.960519
1.100000	-80.206046
1.110000	-98.527616
1.120000	-114.777656
1.130000	-125.074148
1.140000	-127.338635
1.150000	-120.608378
1.160000	-104.218614
1.170000	-79.466391
1.180000	-47.082314
1.190000	-9.648313
1.200000	32.407533
1.210000	79.185301
1.220000	128.571839
1.230000	178.365665
1.240000	227.419153
1.250000	276.230447
1.260000	327.619192
1.270000	381.767451
1.280000	438.163240
1.290000	495.982625
1.300000	554.720300
1.310000	615.881902
1.320000	673.602133
1.330000	709.090464
1.340000	692.464717
1.350000	611.358109
1.360000	476.735448
1.370000	316.683262
1.380000	155.673148
1.390000	13.672688
1.400000	-100.744058
1.410000	-187.017101
1.420000	-250.835892
1.430000	-295.357656
1.440000	-320.911268
1.450000	-327.689402
1.460000	-319.655484
1.470000	-300.679626
1.480000	-284.418899
1.490000	-270.624222
1.500000	-265.860507
1.510000	-258.846189
1.520000	-253.336712
1.530000	-238.688813
1.540000	-221.186517
1.550000	-191.148265
1.560000	-159.754537
1.570000	-119.885269
1.580000	-80.026803
1.590000	-30.567513
1.600000	17.649572
1.610000	72.138585
1.620000	119.272239
1.630000	175.264105
1.640000	224.812243
1.650000	285.817818
1.660000	334.240483
1.670000	393.839346
1.680000	438.200547
1.690000	297.135373
1.700000	81.936201
1.710000	-167.094673
1.720000	-271.279426
1.730000	-340.448714
1.740000	-406.947393
1.750000	-449.320393
1.760000	-486.057383
1.770000	-501.764892
1.780000	-520.274559
1.790000	-533.120367
1.800000	-554.219793
1.810000	-569.398827
1.820000	-587.227858
1.830000	-592.947123
1.840000	-593.295769
1.850000	-577.782437
1.860000	-554.749961
1.870000	-518.915082
1.880000	-477.907911
1.890000	-428.018403
1.900000	-374.759877
1.910000	-317.774472
1.920000	-261.293511
1.930000	-202.179554
1.940000	-142.845158
1.950000	-81.910506
1.960000	-21.743566
1.970000	40.034933
1.980000	101.676526
1.990000	164.986457
2.000000	227.414132
2.010000	291.949159
2.020000	357.469558
2.030000	427.252874
2.040000	495.495452
2.050000	540.508182
2.060000	531.157104
2.070000	453.806388
2.080000	322.221993
2.090000	164.137400
2.100000	5.944104
2.110000	-134.226906
2.120000	-246.362250
2.130000	-331.294041
2.140000	-397.362469
2.150000	-449.692459
2.160000	-490.695552
2.170000	-516.079646
2.180000	-530.059376
2.190000	-538.478878
2.200000	-550.774158
2.210000	-562.514636
2.220000	-573.508711
2.230000	-580.216173
2.240000	-581.926187
2.250000	-576.255106
2.260000	-560.685455
2.270000	-536.312954
2.280000	-504.120232
2.290000	-465.715166
2.300000	-422.229837
2.310000	-374.459404
2.320000	-322.346869
2.330000	-267.551604
2.340000	-210.804744
2.350000	-156.330266
2.360000	-102.590469
2.370000	-48.788108
2.380000	7.283725
2.390000	63.397780
2.400000	119.486290
2.410000	176.575642
2.420000	235.343395
2.430000	297.411458
2.440000	360.177450
2.450000	423.910238
2.460000	486.660347
2.470000	536.035125
2.480000	542.751497
2.490000	487.508587
2.500000	375.230186
2.510000	231.025003
2.520000	80.363890
2.530000	-56.485680
2.540000	-165.866866
2.550000	-248.381995
2.560000	-310.794510
2.570000	-360.292939
2.580000	-396.381338
2.590000	-417.548211
2.600000	-426.326548
2.610000	-428.827404
2.620000	-432.957603
2.630000	-439.100330
2.640000	-446.600350
2.650000	-452.381294
2.660000	-451.586371
2.670000	-442.017864
2.680000	-422.590552
2.690000	-395.010673
2.700000	-360.274819
2.710000	-318.683733
2.720000	-273.649922
2.730000	-225.363689
2.740000	-175.043716
2.750000	-121.051785
2.760000	-64.795313
2.770000	-8.424810
2.780000	47.440958
2.790000	103.522723
2.800000	162.666496
2.810000	223.441823
2.820000	285.879243
2.830000	348.339415
2.840000	412.082914
2.850000	476.882425
2.860000	543.605640
2.870000	613.074565
2.880000	685.108071
2.890000	758.579770
2.900000	823.902789
2.910000	852.347782
2.920000	822.365802
2.930000	730.480522
2.940000	600.886414
2.950000	460.268208
2.960000	331.377501
2.970000	228.346663
2.980000	154.152218
2.990000	103.048593
3.000000	65.229705
3.010000	37.749779
3.020000	22.300167
3.030000	17.422375
3.040000	16.001643
3.050000	10.406591
3.060000	0.703790
3.070000	-9.954701
3.080000	-20.286692
3.090000	-25.661133
3.100000	-23.971957
3.110000	-14.058187
3.120000	3.984456
3.130000	29.855818
3.140000	62.249548
3.150000	98.410441
3.160000	136.494897
3.170000	177.617432
3.180000	221.380157
3.190000	266.465782
3.200000	313.247097
3.210000	360.954518
3.220000	408.422957
3.230000	455.422309
3.240000	501.240459
3.250000	547.539397
3.260000	594.028514
3.270000	641.969801
3.280000	691.121291
3.290000	740.038888
3.300000	789.194440
3.310000	840.419941
3.320000	891.898917
3.330000	934.756067
3.340000	943.532077
3.350000	894.404022
3.360000	782.858705
3.370000	630.764624
3.380000	466.175592
3.390000	311.081591
3.400000	177.771932
3.410000	72.019828
3.420000	-10.353489
3.430000	-78.082470
3.440000	-134.492342
3.450000	-179.871646
3.460000	-214.660425
3.470000	-245.707502
3.480000	-280.860591
3.490000	-320.886843
3.500000	-362.078324
3.510000	-400.763065
3.520000	-433.660836
3.530000	-458.673156
3.540000	-472.938793
3.550000	-476.956930
3.560000	-471.248175
3.570000	-457.943401
3.580000	-439.590548
3.590000	-416.288561
3.600000	-389.636023
3.610000	-358.993454
3.620000	-325.719760
3.630000	-289.727373
3.640000	-252.841974
3.650000	-214.153890
3.660000	-175.672536
3.670000	-134.601088
3.680000	-92.883551
3.690000	-47.402029
3.700000	1.193893
3.710000	52.095183
3.720000	106.241182
3.730000	161.214673
3.740000	207.567109
3.750000	214.573460
3.760000	162.219975
3.770000	47.944148
3.780000	-99.076231
3.790000	-251.727302
3.800000	-389.092813
3.810000	-503.806204
3.820000	-594.162066
3.830000	-663.937500
3.840000	-717.269854
3.850000	-754.763515
3.860000	-776.413929
3.870000	-786.974087
3.880000	-795.608473
3.890000	-808.214228
3.900000	-822.820133
3.910000	-837.159130
3.920000	-849.071169
3.930000	-855.139834
3.940000	-854.034015
3.950000	-843.156636
3.960000	-825.050709
3.970000	-797.533670
3.980000	-763.454577
3.990000	-722.609146
4.000000	-678.241545
4.010000	-631.719891
4.020000	-583.399611
4.030000	-533.871951
4.040000	-481.926846
4.050000	-429.740875
4.060000	-376.152585
4.070000	-322.323957
4.080000	-267.748288
4.090000	-212.616940
4.100000	-156.717630
4.110000	-96.943484
4.120000	-35.409589
4.130000	28.362058
4.140000	93.185416
4.150000	156.288017
4.160000	202.704947
4.170000	200.792751
4.180000	135.227122
4.190000	8.972107
4.200000	-151.562013
4.210000	-319.556553
4.220000	-471.402533
4.230000	-594.157177
4.240000	-690.996756
4.250000	-767.808101
4.260000	-833.308364
4.270000	-887.478060
4.280000	-928.658581
4.290000	-954.856953
4.300000	-971.071255
4.310000	-985.955874
4.320000	-1002.511778
4.330000	-1018.416937
4.340000	-1031.663305
4.350000	-1037.915122
4.360000	-1035.866702
4.370000	-1022.786297
4.380000	-999.122429
4.390000	-967.039127
4.400000	-927.083999
4.410000	-883.345300
4.420000	-835.410154
4.430000	-787.374124
4.440000	-737.764603
4.450000	-687.118702
4.460000	-633.823353
4.470000	-576.574305
4.480000	-517.267702
4.490000	-456.737093
4.500000	-397.092284
4.510000	-336.933591
4.520000	-277.300198
4.530000	-218.504676
4.540000	-159.213455
4.550000	-98.118974
4.560000	-33.502001
4.570000	33.883572
4.580000	101.494902
4.590000	150.799287
4.600000	150.079403
4.610000	82.379413
4.620000	-46.650083
4.630000	-207.684793
4.640000	-374.764774
4.650000	-526.470712
4.660000	-649.945500
4.670000	-746.671810
4.680000	-824.185248
4.690000	-892.923208
4.700000	-953.774361
4.710000	-1000.864881
4.720000	-1029.742814
4.730000	-1045.541560
4.740000	-1057.765191
4.750000	-1070.244477
4.760000	-1080.812808
4.770000	-1086.988127
4.780000	-1088.574851
4.790000	-1082.765957
4.800000	-1068.716837
4.810000	-1045.584871
4.820000	-1014.237786
4.830000	-974.441539
4.840000	-927.804413
4.850000	-877.008274
4.860000	-823.407676
4.870000	-766.610314
4.880000	-708.390141
4.890000	-650.919846
4.900000	-594.740996
4.910000	-537.260106
4.920000	-477.134423
4.930000	-414.309503
4.940000	-348.900372
4.950000	-281.064193
4.960000	-213.377929
4.970000	-146.518411
4.980000	-78.552848
4.990000	-7.343039
5.000000	67.229265
5.010000	141.117026
5.020000	206.631062
5.030000	236.820762
5.040000	208.005301
5.050000	110.860946
5.060000	-34.910173
5.070000	-201.779928
5.080000	-363.531585
5.090000	-504.150944
5.100000	-618.885831
5.110000	-710.577832
5.120000	-788.960466
5.130000	-858.692013
5.140000	-919.723172
5.150000	-965.489065
5.160000	-997.876283
5.170000	-1024.000758
5.180000	-1050.060231
5.190000	-1076.195582
5.200000	-1098.599503
5.210000	-1113.422853
5.220000	-1116.503532
5.230000	-1111.035660
5.240000	-1098.100131
5.250000	-1078.345354
5.260000	-1052.728678
5.270000	-1023.021404
5.280000	-993.728536
5.290000	-959.366831
5.300000	-916.430301
5.310000	-865.085147
5.320000	-808.837032
5.330000	-747.822988
5.340000	-681.938186
5.350000	-609.584788
5.360000	-534.414786
5.370000	-453.689694
5.380000	-362.245008
5.390000	-268.190969
5.400000	-178.431446
5.410000	-102.057398
5.420000	-36.945848
5.430000	22.393709
5.440000	75.832990
5.450000	129.838655
5.460000	187.913131
5.470000	238.552212
5.480000	249.914292
5.490000	195.925539
5.500000	79.305513
5.510000	-69.647362
5.520000	-221.326763
5.530000	-355.266585
5.540000	-459.001853
5.550000	-533.610128
5.560000	-584.709488
5.570000	-623.990036
5.580000	-653.409693
5.590000	-669.039349
5.600000	-668.800157
5.610000	-656.456154
5.620000	-641.557553
5.630000	-627.540129
5.640000	-614.990675
5.650000	-603.638217
5.660000	-590.432212
5.670000	-572.084610
5.680000	-544.219288
5.690000	-505.888516
5.700000	-459.028615
5.710000	-405.706672
5.720000	-346.848254
5.730000	-283.872519
5.740000	-218.347526
5.750000	-150.714045
5.760000	-80.856926
5.770000	-5.892503
5.780000	73.279197
5.790000	161.601457
5.800000	264.072294
5.810000	376.728080
5.820000	484.492599
5.830000	570.842241
5.840000	638.290485
5.850000	695.632728
5.860000	754.422126
5.870000	816.055273
5.880000	881.212186
5.890000	947.463425
5.900000	1013.667020
5.910000	1075.858816
5.920000	1109.059537
5.930000	1086.912900
5.940000	999.159139
5.950000	866.715882
5.960000	718.611337
5.970000	572.150699
5.980000	436.706155
5.990000	322.251950
6.000000	229.774768
6.010000	155.338523
6.020000	90.496864
6.030000	38.790919
6.040000	4.220145
6.050000	-18.114174
6.060000	-27.707760
6.070000	-24.018162
6.080000	-15.325204
6.090000	-16.271241
6.100000	-31.914247
6.110000	-52.815403
6.120000	-67.494892
6.130000	-76.054889
6.140000	-73.725309
6.150000	-62.977058
6.160000	-38.597055
6.170000	2.766922
6.180000	53.840298
6.190000	103.839914
6.200000	147.966430
6.210000	189.608097
6.220000	230.093301
6.230000	266.371008
6.240000	299.572106
6.250000	333.816267
6.260000	371.387027
6.270000	421.288162
6.280000	478.839562
6.290000	534.422037
6.300000	584.651781
6.310000	631.914661
6.320000	681.816084
6.330000	723.371965
6.340000	731.953488
6.350000	686.182434
6.360000	579.810340
6.370000	440.764985
6.380000	295.006985
6.390000	159.334544
6.400000	43.864430
6.410000	-46.764819
6.420000	-111.608509
6.430000	-160.547180
6.440000	-197.050130
6.450000	-216.961248
6.460000	-223.163429
6.470000	-219.697198
6.480000	-212.266355
6.490000	-205.748962
6.500000	-199.672354
6.510000	-200.136232
6.520000	-202.365624
6.530000	-201.172525
6.540000	-191.041166
6.550000	-169.533456
6.560000	-138.711602
6.570000	-94.192229
6.580000	-29.692042
6.590000	45.792130
6.600000	124.015007
6.610000	192.784732
6.620000	253.779557
6.630000	308.463138
6.640000	359.901891
6.650000	413.835924
6.660000	469.025742
6.670000	532.251741
6.680000	602.148537
6.690000	683.038139
6.700000	760.241078
6.710000	829.542182
6.720000	888.026392
6.730000	945.102905
6.740000	998.469325
6.750000	1020.283550
6.760000	983.939334
6.770000	888.558814
6.780000	755.494618
6.790000	601.846875
6.800000	448.418137
6.810000	304.795781
6.820000	188.388365
6.830000	91.367510
6.840000	14.073407
6.850000	-50.388013
6.860000	-104.202428
6.870000	-144.436379
6.880000	-174.134681
6.890000	-198.129412
6.900000	-225.384466
6.910000	-253.764568
6.920000	-281.273665
6.930000	-304.367593
6.940000	-322.810492
6.950000	-334.269821
6.960000	-336.986940
6.970000	-331.148517
6.980000	-317.469043
6.990000	-299.004261
7.000000	-272.571037
7.010000	-217.114351
7.020000	-115.654060
7.030000	19.726159
7.040000	136.850155
7.050000	230.392970
7.060000	311.764888
7.070000	399.778261
7.080000	475.607992
7.090000	534.567724
7.100000	584.517822
7.110000	632.052898
7.120000	677.777304
7.130000	719.897840
7.140000	787.488162
7.150000	901.086177
7.160000	1033.100570
7.170000	1096.812753
7.180000	1063.573332
7.190000	949.028740
7.200000	807.186082
7.210000	646.821998
7.220000	483.184974
7.230000	328.976823
7.240000	190.200888
7.250000	71.831095
7.260000	-33.113571
7.270000	-127.600964
7.280000	-210.380281
7.290000	-272.308331
7.300000	-308.288237
7.310000	-323.340099
7.320000	-330.848927
7.330000	-340.658376
7.340000	-349.001612
7.350000	-355.281207
7.360000	-356.108952
7.370000	-357.224565
7.380000	-355.152904
7.390000	-357.159141
7.400000	-353.444839
7.410000	-319.013282
7.420000	-227.694649
7.430000	-96.613888
7.440000	39.379519
7.450000	132.456062
7.460000	150.536701
7.470000	164.181221
7.480000	198.609539
7.490000	289.308309
7.500000	373.787219
7.510000	453.652264
7.520000	532.010050
7.530000	578.946762
7.540000	632.126597
7.550000	735.968119
7.560000	936.957327
7.570000	1189.445118
7.580000	1431.786342
7.590000	1601.294992
7.600000	1676.103375
7.610000	1667.278065
7.620000	1597.160942
7.630000	1479.948475
7.640000	1321.238070
7.650000	1149.057130
7.660000	985.007640
7.670000	838.843443
7.680000	775.305204
7.690000	822.238819
7.700000	957.175060
7.710000	1056.065772
7.720000	1035.868191
7.730000	962.679741
7.740000	891.240923
7.750000	863.970721
7.760000	832.742538
7.770000	796.769347
7.780000	767.655857
7.790000	728.534145
7.800000	713.085756
7.810000	770.719911
7.820000	921.145207
7.830000	1068.633101
7.840000	1122.930861
7.850000	1113.252253
7.860000	1102.854525
7.870000	1125.835820
7.880000	1147.968351
7.890000	1167.887455
7.900000	1189.474368
7.910000	1205.619987
7.920000	1215.040761
7.930000	1217.399448
7.940000	1220.674269
7.950000	1226.873392
7.960000	1236.013116
7.970000	1244.046909
7.980000	1253.079506
7.990000	1260.919182
8.000000	1269.200193
8.010000	1275.156382
8.020000	1284.721673
8.030000	1301.430431
8.040000	1311.572431
8.050000	1273.002885
8.060000	1159.509970
8.070000	985.061894
8.080000	798.251978
8.090000	632.789220
8.100000	500.643298
8.110000	396.511277
8.120000	315.745069
8.130000	245.251937
8.140000	173.559563
8.150000	101.066615
8.160000	41.117498
8.170000	2.242424
8.180000	-25.334021
8.190000	-52.544318
8.200000	-86.066760
8.210000	-121.593988
8.220000	-160.107322
8.230000	-197.924343
8.240000	-232.778797
8.250000	-251.184432
8.260000	-244.424114
8.270000	-209.755200
8.280000	-154.391237
8.290000	-80.607052
8.300000	12.689384
8.310000	120.897103
8.320000	233.124184
8.330000	337.436331
8.340000	428.949429
8.350000	506.356277
8.360000	573.827088
8.370000	633.307288
8.380000	687.075976
8.390000	736.960504
8.400000	789.374033
8.410000	851.318369
8.420000	923.022977
8.430000	994.350363
8.440000	1064.399668
8.450000	1129.409984
8.460000	1168.765313
8.470000	1138.774568
8.480000	1009.202673
8.490000	787.945047
8.500000	509.748021
8.510000	200.124136
8.520000	-115.005144
8.530000	-413.005715
8.540000	-669.052480
8.550000	-880.162690
8.560000	-1057.104992
8.570000	-1202.932817
8.580000	-1304.748299
8.590000	-1349.671193
8.600000	-1352.770154
8.610000	-1333.055755
8.620000	-1298.062752
8.630000	-1236.357374
8.640000	-1156.045057
8.650000	-1075.322962
8.660000	-1006.648049
8.670000	-944.542607
8.680000	-881.883360
8.690000	-815.075632
8.700000	-744.767522
8.710000	-668.571020
8.720000	-587.298008
8.730000	-501.035446
8.740000	-415.816011
8.750000	-335.465152
8.760000	-259.293105
8.770000	-183.524689
8.780000	-107.082728
8.790000	-33.903260
8.800000	39.175069
8.810000	113.073134
8.820000	187.791314
8.830000	257.394058
8.840000	324.124043
8.850000	388.738112
8.860000	455.159202
8.870000	522.763263
8.880000	588.547929
8.890000	630.763537
8.900000	614.928144
8.910000	526.845827
8.920000	379.743145
8.930000	207.677965
8.940000	38.232824
8.950000	-111.827317
8.960000	-231.935736
8.970000	-324.008274
8.980000	-392.419279
8.990000	-443.837267
9.000000	-478.861392
9.010000	-496.303426
9.020000	-502.967697
9.030000	-507.416815
9.040000	-519.052200
9.050000	-538.147853
9.060000	-562.105016
9.070000	-583.842933
9.080000	-597.470934
9.090000	-603.532328
9.100000	-601.143046
9.110000	-590.200787
9.120000	-567.450214
9.130000	-538.203288
9.140000	-503.723565
9.150000	-464.514456
9.160000	-418.968659
9.170000	-367.475430
9.180000	-315.538901
9.190000	-262.062818
9.200000	-207.758758
9.210000	-151.623584
9.220000	-95.631650
9.230000	-40.826753
9.240000	16.530201
9.250000	77.985561
9.260000	143.709679
9.270000	202.454487
9.280000	225.194869
9.290000	185.952885
9.300000	81.430018
9.310000	-64.453061
9.320000	-220.961994
9.330000	-364.524657
9.340000	-480.691814
9.350000	-562.930852
9.360000	-616.099205
9.370000	-646.988746
9.380000	-662.486673
9.390000	-662.340269
9.400000	-648.192676
9.410000	-627.688352
9.420000	-605.871692
9.430000	-585.677538
9.440000	-559.836316
9.450000	-528.333687
9.460000	-493.788605
9.470000	-458.970743
9.480000	-425.384636
9.490000	-386.900768
9.500000	-341.973914
9.510000	-289.145067
9.520000	-233.896338
9.530000	-182.371978
9.540000	-138.794319
9.550000	-99.558267
9.560000	-62.677663
9.570000	-24.053039
9.580000	16.781355
9.590000	63.145666
9.600000	116.253519
9.610000	171.346864
9.620000	217.059724
9.630000	223.181790
9.640000	167.907794
9.650000	48.086689
9.660000	-109.476498
9.670000	-272.976025
9.680000	-421.538875
9.690000	-542.709959
9.700000	-629.932257
9.710000	-684.112569
9.720000	-716.000887
9.730000	-733.154656
9.740000	-735.363118
9.750000	-721.843463
