Time(s)	IR_denoised_wiener
0.000000	1212.847452
0.010000	2255.072977
0.020000	3157.722327
0.030000	4231.594890
0.040000	5258.627794
0.050000	6237.213278
0.060000	7079.804307
0.070000	7924.296368
0.080000	8683.546624
0.090000	9308.004937
0.100000	9816.336818
0.110000	10168.083203
0.120000	10479.093256
0.130000	10784.147188
0.140000	11129.761700
0.150000	11406.333473
0.160000	11619.970302
0.170000	11899.751041
0.180000	12245.722493
0.190000	12620.635200
0.200000	12808.222995
0.210000	12824.735535
0.220000	12803.292859
0.230000	12821.937030
0.240000	12994.049543
0.250000	13019.930967
0.260000	12977.440715
0.270000	12886.032397
0.280000	12951.615578
0.290000	13422.525512
0.300000	13838.121851
0.310000	14165.809709
0.320000	14150.970413
0.330000	14094.240970
0.340000	14084.863544
0.350000	14068.238752
0.360000	14103.032347
0.370000	14152.274681
0.380000	14211.594315
0.390000	14147.261676
0.400000	13940.113278
0.410000	13676.182483
0.420000	13501.109965
0.430000	13370.230318
0.440000	13225.722529
0.450000	13027.982401
0.460000	12831.917681
0.470000	12686.041968
0.480000	12639.107159
0.490000	12682.940737
0.500000	12808.625272
0.510000	12891.854985
0.520000	12955.882710
0.530000	13071.234677
0.540000	13251.654609
0.550000	13462.152337
0.560000	13580.526779
0.570000	13429.259101
0.580000	13288.999536
0.590000	13395.920295
0.600000	13898.910139
0.610000	14058.486654
0.620000	13296.275864
0.630000	12058.881548
0.640000	10976.493158
0.650000	10402.865094
0.660000	9868.130038
0.670000	9223.078163
0.680000	8491.257243
0.690000	7663.550977
0.700000	6716.026784
0.710000	5777.459761
0.720000	4960.100956
0.730000	4267.085629
0.740000	3601.918322
0.750000	2912.851262
0.760000	2316.548440
0.770000	1929.299374
0.780000	1786.305977
0.790000	1675.418191
0.800000	1456.277367
0.810000	1229.214673
0.820000	1204.567399
0.830000	1688.624429
0.840000	2472.458644
0.850000	3205.996021
0.860000	3500.593334
0.870000	3577.057413
0.880000	3801.476118
0.890000	3876.645910
0.900000	3479.302670
0.910000	2539.612253
0.920000	1439.384557
0.930000	464.663490
0.940000	-371.268411
0.950000	-839.345265
0.960000	-1016.748803
0.970000	-1131.421354
0.980000	-1440.629957
0.990000	-1961.491694
1.000000	-2300.370401
1.010000	-2549.551046
1.020000	-2543.724664
1.030000	-2509.007042
1.040000	-2306.732157
1.050000	-2381.386723
1.060000	-2582.761818
1.070000	-2072.866422
1.080000	-698.996239
1.090000	1017.814013
1.100000	1763.601967
1.110000	1686.854827
1.120000	1252.412564
1.130000	1019.498222
1.140000	1040.507643
1.150000	1093.731783
1.160000	907.809184
1.170000	586.003598
1.180000	476.459100
1.190000	540.889650
1.200000	721.062962
1.210000	815.056235
1.220000	1028.795325
1.230000	1239.996137
1.240000	1291.773872
1.250000	1204.430353
1.260000	1109.064158
1.270000	1078.043784
1.280000	989.494548
1.290000	729.352020
1.300000	461.695307
1.310000	278.468293
1.320000	148.898239
1.330000	58.969540
1.340000	-18.930833
1.350000	-40.660400
1.360000	-76.736708
1.370000	-202.967025
1.380000	-440.053665
1.390000	-753.451283
1.400000	-975.668460
1.410000	-1037.535512
1.420000	-1059.133234
1.430000	-1162.622569
1.440000	-1367.312890
1.450000	-1530.261610
1.460000	-1532.556407
1.470000	-1316.734185
1.480000	-928.414699
1.490000	-600.386030
1.500000	-447.949041
1.510000	-434.619926
1.520000	-339.643071
1.530000	-158.781171
1.540000	66.872206
1.550000	290.375145
1.560000	432.298355
1.570000	553.583579
1.580000	627.483381
1.590000	709.684619
1.600000	706.591054
1.610000	696.924743
1.620000	766.717733
1.630000	895.872092
1.640000	1071.195216
1.650000	1205.614813
1.660000	1282.196736
1.670000	1333.491278
1.680000	1453.030006
1.690000	1646.457036
1.700000	1791.509063
1.710000	1864.356646
1.720000	1828.282613
1.730000	1795.327771
1.740000	1813.543053
1.750000	1895.530534
1.760000	1997.644353
1.770000	2143.245691
1.780000	2313.959032
1.790000	2417.084366
1.800000	2434.472424
1.810000	2430.476547
1.820000	2462.626918
1.830000	2472.877384
1.840000	2473.633916
1.850000	2474.596014
1.860000	2550.477582
1.870000	2582.774918
1.880000	2519.160144
1.890000	2424.933531
1.900000	2403.938012
1.910000	2476.852637
1.920000	2541.700688
1.930000	2597.035648
1.940000	2636.102660
1.950000	2618.780293
1.960000	2612.786817
1.970000	2585.568230
1.980000	2546.571051
1.990000	2472.918111
2.000000	2405.179590
2.010000	2388.596835
2.020000	2384.873992
2.030000	2409.738516
2.040000	2385.960249
2.050000	2245.552000
2.060000	1998.907431
2.070000	1786.701505
2.080000	1660.587504
2.090000	1597.288459
2.100000	1482.660433
2.110000	1293.767520
2.120000	1098.958167
2.130000	925.774404
2.140000	783.511495
2.150000	614.903315
2.160000	442.588256
2.170000	305.379744
2.180000	191.494928
2.190000	22.975744
2.200000	-179.025746
2.210000	-345.330123
2.220000	-422.958916
2.230000	-489.363111
2.240000	-543.713520
2.250000	-615.182485
2.260000	-716.461054
2.270000	-839.985299
2.280000	-956.522349
2.290000	-980.340412
2.300000	-990.411019
2.310000	-1045.014556
2.320000	-1161.564155
2.330000	-1281.190070
2.340000	-1331.057325
2.350000	-1342.363873
2.360000	-1326.208668
2.370000	-1319.990766
2.380000	-1322.636002
2.390000	-1360.742790
2.400000	-1442.061483
2.410000	-1491.985976
2.420000	-1502.053430
2.430000	-1470.299240
2.440000	-1492.032197
2.450000	-1554.034822
2.460000	-1589.585138
2.470000	-1559.233833
2.480000	-1496.059855
2.490000	-1445.857712
2.500000	-1426.180981
2.510000	-1414.763553
2.520000	-1458.550876
2.530000	-1523.506314
2.540000	-1517.487852
2.550000	-1390.425284
2.560000	-1204.795243
2.570000	-1027.752367
2.580000	-955.912775
2.590000	-891.609008
2.600000	-851.407843
2.610000	-820.109454
2.620000	-739.182216
2.630000	-648.946986
2.640000	-488.076908
2.650000	-411.779330
2.660000	-331.369062
2.670000	-198.122674
2.680000	-39.605900
2.690000	31.898913
2.700000	108.315168
2.710000	252.436963
2.720000	487.389850
2.730000	650.393068
2.740000	713.429422
2.750000	804.371512
2.760000	975.855950
2.770000	1244.176483
2.780000	1474.459708
2.790000	1692.681732
2.800000	1956.073864
2.810000	2274.982147
2.820000	2553.319010
2.830000	2800.829253
2.840000	3085.980806
2.850000	3345.235156
2.860000	3543.641802
2.870000	3680.321282
2.880000	3815.723830
2.890000	3896.012015
2.900000	3798.868846
2.910000	3664.340296
2.920000	3546.025896
2.930000	3491.233255
2.940000	3463.534057
2.950000	3465.145904
2.960000	3512.326755
2.970000	3515.680079
2.980000	3467.588162
2.990000	3460.398609
3.000000	3522.917178
3.010000	3664.638550
3.020000	3772.482949
3.030000	3842.417018
3.040000	3834.187179
3.050000	3842.803833
3.060000	3885.246130
3.070000	3888.177142
3.080000	3829.011184
3.090000	3710.184687
3.100000	3645.312549
3.110000	3593.664681
3.120000	3611.107656
3.130000	3734.319108
3.140000	3901.190593
3.150000	4057.553155
3.160000	4101.699411
3.170000	4110.833657
3.180000	4097.250264
3.190000	4083.695076
3.200000	4068.618468
3.210000	4046.427981
3.220000	4028.581244
3.230000	4096.566099
3.240000	4153.599021
3.250000	4135.002111
3.260000	4072.088542
3.270000	3936.814884
3.280000	3891.639412
3.290000	3780.957168
3.300000	3754.898050
3.310000	3718.626272
3.320000	3719.411530
3.330000	3692.851409
3.340000	3597.849960
3.350000	3526.969418
3.360000	3499.611360
3.370000	3523.911848
3.380000	3510.291171
3.390000	3446.250859
3.400000	3493.298494
3.410000	3694.445366
3.420000	3849.483428
3.430000	3916.250913
3.440000	3801.035025
3.450000	3699.357055
3.460000	3601.861355
3.470000	3503.309844
3.480000	3424.926908
3.490000	3399.458666
3.500000	3469.849352
3.510000	3583.839358
3.520000	3601.355078
3.530000	3551.506958
3.540000	3554.597908
3.550000	3627.374486
3.560000	3713.455269
3.570000	3715.275288
3.580000	3616.680268
3.590000	3522.984711
3.600000	3490.576822
3.610000	3480.903554
3.620000	3435.218991
3.630000	3296.626089
3.640000	3169.099135
3.650000	3043.163987
3.660000	3014.057975
3.670000	3026.744366
3.680000	3060.229640
3.690000	3005.198902
3.700000	2884.210975
3.710000	2703.720721
3.720000	2472.975520
3.730000	2251.821062
3.740000	2080.456313
3.750000	1984.315036
3.760000	1904.470218
3.770000	1846.080456
3.780000	1840.314932
3.790000	1854.761205
3.800000	1794.074002
3.810000	1664.472015
3.820000	1576.200454
3.830000	1657.979112
3.840000	1666.046607
3.850000	1528.698717
3.860000	1291.284709
3.870000	1261.874195
3.880000	1349.491593
3.890000	1383.559652
3.900000	1288.685665
3.910000	1174.810367
3.920000	1148.256487
3.930000	1085.480212
3.940000	987.884744
3.950000	862.209412
3.960000	837.223295
3.970000	882.540371
3.980000	828.214514
3.990000	706.125389
4.000000	553.249872
4.010000	500.662733
4.020000	554.299139
4.030000	661.059280
4.040000	754.663949
4.050000	690.589720
4.060000	554.673979
4.070000	486.945233
4.080000	608.304754
4.090000	739.814201
4.100000	764.105326
4.110000	681.671275
4.120000	635.959955
4.130000	603.728969
4.140000	556.455549
4.150000	451.734351
4.160000	472.218782
4.170000	580.782598
4.180000	734.944153
4.190000	786.180112
4.200000	692.599915
4.210000	639.168548
4.220000	664.819428
4.230000	794.747740
4.240000	877.178351
4.250000	935.430292
4.260000	944.691167
4.270000	989.028280
4.280000	1034.493196
4.290000	1123.446164
4.300000	1252.443345
4.310000	1341.257357
4.320000	1409.602461
4.330000	1484.352947
4.340000	1588.679724
4.350000	1667.157898
4.360000	1682.395314
4.370000	1646.016500
4.380000	1691.695359
4.390000	1789.003827
4.400000	1881.834513
4.410000	1920.247916
4.420000	1947.800453
4.430000	2056.859556
4.440000	2213.650238
4.450000	2370.994825
4.460000	2441.613777
4.470000	2449.991067
4.480000	2423.135018
4.490000	2454.383672
4.500000	2503.500299
4.510000	2537.336709
4.520000	2549.476667
4.530000	2517.112410
4.540000	2489.515360
4.550000	2436.196718
4.560000	2416.993118
4.570000	2350.079545
4.580000	2208.138129
4.590000	2055.394606
4.600000	1957.798590
4.610000	1994.586775
4.620000	2024.691132
4.630000	2010.229390
4.640000	1948.510561
4.650000	1881.153784
4.660000	1839.123974
4.670000	1783.372283
4.680000	1772.488440
4.690000	1825.962740
4.700000	1904.500585
4.710000	1987.744122
4.720000	2013.199011
4.730000	2059.377889
4.740000	2120.126401
4.750000	2154.707909
4.760000	2141.894993
4.770000	2086.226020
4.780000	2012.833828
4.790000	1948.525417
4.800000	1879.099716
4.810000	1820.343180
4.820000	1723.620976
4.830000	1559.308426
4.840000	1369.096327
4.850000	1220.097987
4.860000	1124.504918
4.870000	1048.508212
4.880000	917.879080
4.890000	733.865231
4.900000	603.947411
4.910000	497.240838
4.920000	416.837235
4.930000	303.837242
4.940000	209.082413
4.950000	226.602420
4.960000	285.253629
4.970000	289.676996
4.980000	205.965743
4.990000	105.408821
5.000000	56.701928
5.010000	65.327756
5.020000	-30.999078
5.030000	-248.331871
5.040000	-592.656430
5.050000	-925.248504
5.060000	-1145.409815
5.070000	-1306.583881
5.080000	-1351.859270
5.090000	-1432.159708
5.100000	-1883.824704
5.110000	-3132.324155
5.120000	-5877.892367
5.130000	-10284.890935
5.140000	-18064.446627
5.150000	-34909.930125
5.160000	-53639.939160
5.170000	-60641.531629
5.180000	-63530.627161
5.190000	-64052.228903
5.200000	-62978.871605
5.210000	-61324.362289
5.220000	-59982.832336
5.230000	-59633.284526
5.240000	-59684.685552
5.250000	-59247.434765
5.260000	-58036.581122
5.270000	-56026.010786
5.280000	-53961.644872
5.290000	-51723.254759
5.300000	-49689.123542
5.310000	-47610.153121
5.320000	-45558.527003
5.330000	-43345.374699
5.340000	-40800.686711
5.350000	-38629.033426
5.360000	-36907.488337
5.370000	-35525.539069
5.380000	-33929.431206
5.390000	-32256.965700
5.400000	-30827.557189
5.410000	-29812.331854
5.420000	-29567.868312
5.430000	-30162.912010
5.440000	-31220.956330
5.450000	-31846.394634
5.460000	-31434.165446
5.470000	-29546.654946
5.480000	-26270.794202
5.490000	-22060.453665
5.500000	-17464.663867
5.510000	-12981.175732
5.520000	-9000.495641
5.530000	-5816.587606
5.540000	-3182.718411
5.550000	-1089.674398
5.560000	418.649994
5.570000	1389.900422
5.580000	2142.512161
5.590000	2866.880082
5.600000	3484.064245
5.610000	4006.212727
5.620000	4355.812661
5.630000	4616.771085
5.640000	4807.169054
5.650000	5136.984992
5.660000	5486.755452
5.670000	5782.130642
5.680000	6025.032129
5.690000	6269.907610
5.700000	6534.367571
5.710000	6821.811673
5.720000	7160.944787
5.730000	7575.881505
5.740000	7884.473258
5.750000	8044.860441
5.760000	8158.592039
5.770000	8392.220262
5.780000	8775.209183
5.790000	9046.329045
5.800000	9201.084611
5.810000	9184.859021
5.820000	9173.490849
5.830000	9234.996303
5.840000	9389.340769
5.850000	9634.989009
5.860000	9953.062962
5.870000	10360.003997
5.880000	10782.803390
5.890000	11187.060856
5.900000	11516.424539
5.910000	11847.428824
5.920000	12065.471890
5.930000	12219.201314
5.940000	12350.127349
5.950000	12496.597655
5.960000	12604.499478
5.970000	12641.362062
5.980000	12663.094234
5.990000	12720.429990
6.000000	12786.798839
6.010000	12832.816721
6.020000	12886.993262
6.030000	12949.126268
6.040000	12955.351962
6.050000	12889.576853
6.060000	12820.958602
6.070000	12721.110527
6.080000	12590.332164
6.090000	12374.854215
6.100000	12140.730318
6.110000	11940.927677
6.120000	11731.230753
6.130000	11557.287229
6.140000	11252.858501
6.150000	10828.177341
6.160000	10299.551991
6.170000	9712.867529
6.180000	9145.721141
6.190000	8579.685527
6.200000	8129.985184
6.210000	7847.056257
6.220000	7643.604435
6.230000	7462.579648
6.240000	7184.791989
6.250000	6848.945015
6.260000	6569.264569
6.270000	6350.088742
6.280000	6219.886133
6.290000	5979.024507
6.300000	5749.812922
6.310000	5551.433763
6.320000	5420.546827
6.330000	5217.787677
6.340000	4940.419751
6.350000	4707.241429
6.360000	4541.130832
6.370000	4373.547912
6.380000	4216.836731
6.390000	4103.016584
6.400000	4040.254057
6.410000	3966.404513
6.420000	3911.706231
6.430000	3902.565074
6.440000	3824.222533
6.450000	3726.631872
6.460000	3642.814815
6.470000	3685.375016
6.480000	3699.465552
6.490000	3687.678843
6.500000	3628.847843
6.510000	3580.998849
6.520000	3437.912859
6.530000	3289.994546
6.540000	3089.402276
6.550000	2822.891139
6.560000	2576.639055
6.570000	2477.375129
6.580000	2563.778395
6.590000	2672.450189
6.600000	2707.584488
6.610000	2747.820476
6.620000	2833.102048
6.630000	2879.670381
6.640000	3003.990526
6.650000	3078.338852
6.660000	3117.093457
6.670000	3036.229437
6.680000	2949.232790
6.690000	2882.710176
6.700000	2767.940574
6.710000	2593.513416
6.720000	2408.982359
6.730000	2296.908652
6.740000	2291.393816
6.750000	2354.276266
6.760000	2381.797360
6.770000	2378.448170
6.780000	2463.023195
6.790000	2635.804276
6.800000	2823.223911
6.810000	2954.012400
6.820000	3042.506770
6.830000	3169.250677
6.840000	3387.230192
6.850000	3713.240393
6.860000	3981.637943
6.870000	4173.820591
6.880000	4316.357574
6.890000	4473.693799
6.900000	4506.039715
6.910000	4274.092911
6.920000	3974.837813
6.930000	3817.385377
6.940000	3911.557619
6.950000	4127.214189
6.960000	4343.499330
6.970000	4545.531428
6.980000	4663.488435
6.990000	4688.214489
7.000000	4724.991929
7.010000	4767.458499
7.020000	4777.276008
7.030000	4731.948554
7.040000	4674.610303
7.050000	4769.976563
7.060000	4910.401260
7.070000	4998.905933
7.080000	4984.858882
7.090000	4951.075138
7.100000	5067.763765
7.110000	5210.977530
7.120000	5315.705482
7.130000	5317.757624
7.140000	5338.365707
7.150000	5454.626151
7.160000	5571.763917
7.170000	5625.121127
7.180000	5570.428843
7.190000	5506.219319
7.200000	5397.939492
7.210000	5246.960984
7.220000	5148.920700
7.230000	5158.802792
7.240000	5175.351365
7.250000	5160.363112
7.260000	5094.713147
7.270000	5004.593299
7.280000	4849.771213
7.290000	4550.593893
7.300000	4164.751771
7.310000	3817.324740
7.320000	3670.713197
7.330000	3631.230430
7.340000	3556.752941
7.350000	3439.716843
7.360000	3373.614493
7.370000	3332.418986
7.380000	3317.762404
7.390000	3391.162372
7.400000	3542.924507
7.410000	3654.148594
7.420000	3648.412364
7.430000	3630.507906
7.440000	3661.989770
7.450000	3710.818033
7.460000	3678.926594
7.470000	3642.146074
7.480000	3627.937032
7.490000	3675.712894
7.500000	3694.127072
7.510000	3740.559718
7.520000	3797.315173
7.530000	3842.598940
7.540000	3895.485214
7.550000	3924.033749
7.560000	3906.886009
7.570000	3891.525290
7.580000	3926.824211
7.590000	4048.847828
7.600000	4139.872084
7.610000	4206.041844
7.620000	4208.660566
7.630000	4169.264211
7.640000	4148.084034
7.650000	4196.322916
7.660000	4248.045979
7.670000	4088.833044
7.680000	3788.981524
7.690000	3408.171269
7.700000	3147.495028
7.710000	2814.283166
7.720000	2459.197621
7.730000	2082.108555
7.740000	1879.625787
7.750000	1804.782359
7.760000	1787.841020
7.770000	1798.412686
7.780000	1814.927759
7.790000	1811.544050
7.800000	1756.844101
7.810000	1731.827891
7.820000	1792.868639
7.830000	1892.334018
7.840000	1854.381080
7.850000	1716.932734
7.860000	1667.140932
7.870000	1811.145216
7.880000	1937.196003
7.890000	1916.084773
7.900000	1905.872483
7.910000	2030.762425
7.920000	2250.259704
7.930000	2383.549771
7.940000	2414.593233
7.950000	2459.860107
7.960000	2533.135730
7.970000	2686.431706
7.980000	2808.384365
7.990000	2902.472164
8.000000	2935.684776
8.010000	3088.248828
8.020000	3341.253965
8.030000	3641.746216
8.040000	3870.453720
8.050000	3959.529355
8.060000	3972.156308
8.070000	3918.641966
8.080000	3894.900448
8.090000	3883.247364
8.100000	3894.526080
8.110000	3912.580063
8.120000	3855.437364
8.130000	3779.423965
8.140000	3717.413840
8.150000	3709.749541
8.160000	3510.062201
8.170000	3183.722201
8.180000	2952.930332
8.190000	2916.476391
8.200000	2997.100194
8.210000	3009.383544
8.220000	2921.807520
8.230000	2853.483905
8.240000	2811.986023
8.250000	2820.736676
8.260000	2851.462754
8.270000	2866.067329
8.280000	2896.902473
8.290000	2778.956686
8.300000	2613.839863
8.310000	2403.000896
8.320000	2308.980886
8.330000	2228.741400
8.340000	2127.733614
8.350000	1977.586982
8.360000	1833.134143
8.370000	1770.575017
8.380000	1630.301919
8.390000	1475.587920
8.400000	1261.917475
8.410000	1053.975692
8.420000	823.684294
8.430000	634.685853
8.440000	468.627463
8.450000	352.252515
8.460000	291.243173
8.470000	289.208278
8.480000	312.148122
8.490000	279.426220
8.500000	243.473223
8.510000	203.884788
8.520000	186.587451
8.530000	180.957504
8.540000	180.759329
8.550000	122.248929
8.560000	110.101503
8.570000	53.040938
8.580000	48.999858
8.590000	-7.023531
8.600000	-97.399684
8.610000	-318.371082
8.620000	-506.725882
8.630000	-574.232781
8.640000	-535.311164
8.650000	-507.690980
8.660000	-478.519476
8.670000	-400.037254
8.680000	-279.531855
8.690000	-91.949835
8.700000	101.895872
8.710000	284.597155
8.720000	392.534779
8.730000	505.874910
8.740000	593.200807
8.750000	729.108506
8.760000	829.426509
8.770000	909.274955
8.780000	933.171098
8.790000	940.970591
8.800000	944.491999
8.810000	940.609546
8.820000	1022.726765
8.830000	1189.635084
8.840000	1294.873389
8.850000	1328.677901
8.860000	1310.406175
8.870000	1338.909572
8.880000	1276.591057
8.890000	1177.633826
8.900000	1111.782172
8.910000	1137.287652
8.920000	1121.073228
8.930000	1038.863375
8.940000	1049.153631
8.950000	1263.261153
8.960000	1598.985098
8.970000	1913.773346
8.980000	2203.140207
8.990000	2388.022722
9.000000	2479.148182
9.010000	2456.458014
9.020000	2448.498994
9.030000	2418.371104
9.040000	2321.090658
9.050000	2215.162315
9.060000	2159.608442
9.070000	2198.835548
9.080000	2320.891050
9.090000	2475.654341
9.100000	2613.088370
9.110000	2734.526119
9.120000	2931.442561
9.130000	3063.334085
9.140000	3131.757628
9.150000	3174.141948
9.160000	3316.548162
9.170000	3542.454200
9.180000	3708.884670
9.190000	4023.954633
9.200000	4316.400314
9.210000	4636.281294
9.220000	4850.628797
9.230000	4946.483611
9.240000	4966.887602
9.250000	4997.008582
9.260000	5145.414709
9.270000	5312.161937
9.280000	5370.733591
9.290000	5363.975534
9.300000	5366.331284
9.310000	5391.477841
9.320000	5461.136900
9.330000	5483.851973
9.340000	5548.617632
9.350000	5555.884530
9.360000	5559.358983
9.370000	5404.180648
9.380000	5235.423877
9.390000	5081.653159
9.400000	5062.565414
9.410000	5087.370470
9.420000	5128.700611
9.430000	5102.080244
9.440000	5013.897837
9.450000	5007.307905
9.460000	5021.005502
9.470000	5067.540137
9.480000	5063.982341
9.490000	5036.533176
9.500000	4936.210048
9.510000	4807.904343
9.520000	4724.965779
9.530000	4668.468129
9.540000	4549.304319
9.550000	4382.422752
9.560000	4217.506079
9.570000	4127.538611
9.580000	3994.944411
9.590000	3869.871127
9.600000	3778.736229
9.610000	3728.230771
9.620000	3730.620622
9.630000	3655.271124
9.640000	3535.691620
9.650000	3430.445279
9.660000	3307.240598
9.670000	3238.965009
9.680000	3185.866048
9.690000	3186.080311
9.700000	3214.695752
9.710000	3170.693093
9.720000	3072.221681
9.730000	2977.781338
9.740000	2904.327174
9.750000	2934.405750
9.760000	2891.071628
9.770000	2860.099062
9.780000	2741.314976
9.790000	2597.912955
9.800000	2339.804796
9.810000	2021.787833
9.820000	1774.160587
9.830000	1649.102294
9.840000	1563.126768
9.850000	1556.067317
9.860000	1584.170736
9.870000	1777.479210
9.880000	1889.144561
9.890000	1545.837538
9.900000	1105.415937
9.910000	597.579300
9.920000	263.548465
9.930000	-643.450239
9.940000	-2336.582343
9.950000	-5336.725091
9.960000	-9953.410866
9.970000	-20403.726633
9.980000	-36524.581619
9.990000	-46195.981404
10.000000	-49833.809120
10.010000	-51829.483388
10.020000	-53400.880795
10.030000	-54877.650711
10.040000	-56355.747484
10.050000	-56957.583842
10.060000	-56873.322371
10.070000	-56349.115110
10.080000	-55485.610443
10.090000	-54209.616511
10.100000	-52569.681577
10.110000	-50861.245464
10.120000	-49255.862308
10.130000	-47700.039588
10.140000	-46291.909202
10.150000	-45316.462780
10.160000	-44619.197332
10.170000	-43982.827416
10.180000	-43273.493736
10.190000	-42827.260181
10.200000	-42564.757942
10.210000	-41867.652555
10.220000	-40119.130410
10.230000	-37626.350677
10.240000	-34952.638088
10.250000	-32807.545457
10.260000	-31397.522151
10.270000	-30694.851556
10.280000	-30560.183482
10.290000	-30975.570847
10.300000	-31718.357991
10.310000	-32399.570909
10.320000	-32813.769457
10.330000	-32827.496639
10.340000	-32410.186372
10.350000	-31332.259972
10.360000	-29580.242191
10.370000	-27273.427613
10.380000	-24414.344377
10.390000	-20988.242119
10.400000	-16984.479247
10.410000	-13018.123513
10.420000	-9831.639152
10.430000	-7432.320865
10.440000	-5587.134076
10.450000	-3918.108454
10.460000	-2497.513762
10.470000	-1275.201083
10.480000	-69.165669
10.490000	1055.065633
10.500000	2058.300886
10.510000	3079.207239
10.520000	4123.796396
10.530000	5094.464466
10.540000	6017.372264
10.550000	6818.192984
10.560000	7615.899827
10.570000	8309.411346
10.580000	8860.701567
10.590000	9319.645492
10.600000	9674.782519
10.610000	10079.787467
10.620000	10347.722094
10.630000	10401.030490
10.640000	10237.007623
10.650000	10117.814375
10.660000	10125.618464
10.670000	10156.914195
10.680000	10073.967355
10.690000	9897.955303
10.700000	9753.444404
10.710000	9721.727722
10.720000	9739.380049
10.730000	9716.957270
10.740000	9693.536400
10.750000	9726.777965
10.760000	9846.161122
10.770000	9879.596417
10.780000	9807.093856
10.790000	9637.723762
10.800000	9595.183913
10.810000	9643.043172
10.820000	9697.388722
10.830000	9704.696451
10.840000	9653.965912
10.850000	9624.525200
10.860000	9482.891035
10.870000	9269.435559
10.880000	9004.369829
10.890000	8807.566908
10.900000	8698.190769
10.910000	8643.512582
10.920000	8553.482506
10.930000	8457.084750
10.940000	8398.119098
10.950000	8327.042594
10.960000	8257.910247
10.970000	8149.165356
10.980000	8029.884115
10.990000	7852.403746
11.000000	7570.526030
11.010000	7206.498394
11.020000	6769.471099
11.030000	6343.475316
11.040000	5994.046078
11.050000	5695.219031
11.060000	5416.965351
11.070000	5167.092776
11.080000	5052.185979
11.090000	5113.153438
11.100000	5251.394616
11.110000	5349.871825
11.120000	5448.747196
11.130000	5618.389141
11.140000	5819.852585
11.150000	6034.686174
11.160000	6288.138444
11.170000	6626.438254
11.180000	7053.375437
11.190000	7482.346657
11.200000	8018.881591
11.210000	8532.685620
11.220000	8947.283935
11.230000	9220.203057
11.240000	9409.383827
11.250000	9590.527638
11.260000	9764.038490
11.270000	9974.738959
11.280000	10195.262724
11.290000	10303.795086
11.300000	10315.971669
11.310000	10296.763492
11.320000	10227.898273
11.330000	10076.808380
11.340000	9839.689011
11.350000	9649.349617
11.360000	9412.315300
11.370000	9169.720162
11.380000	8927.974954
11.390000	8742.356072
11.400000	8582.867245
11.410000	8362.972507
11.420000	8058.736204
11.430000	7807.171259
11.440000	7625.084078
11.450000	7512.468332
11.460000	7346.574704
11.470000	7121.902643
11.480000	6904.077840
11.490000	6656.207774
11.500000	6402.569905
11.510000	6044.665095
11.520000	5680.760250
11.530000	5317.363309
11.540000	5064.730162
11.550000	4858.411294
11.560000	4667.958034
11.570000	4588.971658
11.580000	4506.776105
11.590000	4428.703071
11.600000	4256.809151
11.610000	4003.910963
11.620000	3719.449846
11.630000	3390.455922
11.640000	3143.650767
11.650000	3006.573068
11.660000	2936.504681
11.670000	2957.053012
11.680000	2962.852980
11.690000	2895.846138
11.700000	2725.795558
11.710000	2575.913187
11.720000	2582.962399
11.730000	2547.578641
11.740000	2395.328526
11.750000	2174.772590
11.760000	2013.102482
11.770000	1864.016389
11.780000	1656.001378
11.790000	1513.995078
11.800000	1479.534327
11.810000	1496.904230
11.820000	1508.594357
11.830000	1580.685947
11.840000	1667.882681
11.850000	1689.238363
11.860000	1618.858561
11.870000	1599.457956
11.880000	1661.063397
11.890000	1776.058729
11.900000	1851.295440
11.910000	1815.928977
11.920000	1787.921947
11.930000	1780.388136
11.940000	1883.972603
11.950000	1965.110331
11.960000	1990.846067
11.970000	2020.633761
11.980000	2111.260571
11.990000	2149.573061
12.000000	1994.481885
12.010000	1834.635782
12.020000	1803.771038
12.030000	1942.996966
12.040000	2118.800977
12.050000	2268.440442
12.060000	2458.073710
12.070000	2568.598000
12.080000	2651.371688
12.090000	2784.720820
12.100000	2926.898517
12.110000	3070.831610
12.120000	3102.358035
12.130000	3092.344810
12.140000	3160.513325
12.150000	3251.940615
12.160000	3374.738028
12.170000	3385.015875
12.180000	3376.512964
12.190000	3370.791073
12.200000	3404.895860
12.210000	3426.887869
12.220000	3378.494579
12.230000	3330.238820
12.240000	3279.794126
12.250000	3299.028282
12.260000	3348.690337
12.270000	3477.628686
12.280000	3590.092120
12.290000	3699.431873
12.300000	3808.033957
12.310000	3930.840073
12.320000	4032.074021
12.330000	4198.823566
12.340000	4351.227002
12.350000	4423.417211
12.360000	4371.345191
12.370000	4304.337604
12.380000	4247.136731
12.390000	4048.346709
12.400000	3815.545511
12.410000	3674.311301
12.420000	3732.812597
12.430000	3797.687223
12.440000	3797.654523
12.450000	3735.506127
12.460000	3643.483520
12.470000	3511.782358
12.480000	3320.858507
12.490000	3240.818799
12.500000	3257.967877
12.510000	3240.770662
12.520000	3077.370219
12.530000	2874.227570
12.540000	2846.643392
12.550000	2905.419833
12.560000	2976.863936
12.570000	3008.909368
12.580000	3036.561235
12.590000	3107.337257
12.600000	3188.608757
12.610000	3309.170546
12.620000	3366.532048
12.630000	3324.421703
12.640000	3251.311970
12.650000	3258.692886
12.660000	3298.889518
12.670000	3356.954966
12.680000	3385.946396
12.690000	3418.335221
12.700000	3441.111241
12.710000	3454.985521
12.720000	3509.642405
12.730000	3500.777453
12.740000	3524.955922
12.750000	3583.872185
12.760000	3705.905466
12.770000	3756.748832
12.780000	3776.562261
12.790000	3839.947438
12.800000	3941.225196
12.810000	4033.592314
12.820000	4047.049535
12.830000	4017.418819
12.840000	3971.739913
12.850000	3965.880480
12.860000	3966.072538
12.870000	3962.294905
12.880000	3871.090083
12.890000	3715.220073
12.900000	3533.369394
12.910000	3424.862164
12.920000	3379.564087
12.930000	3260.704751
12.940000	3100.770908
12.950000	2993.595328
12.960000	2948.290099
12.970000	2857.710537
12.980000	2658.472278
12.990000	2486.581692
13.000000	2449.783964
13.010000	2425.024872
13.020000	2382.556645
13.030000	2249.887483
13.040000	2069.514075
13.050000	1768.968670
13.060000	1440.791110
13.070000	1198.305396
13.080000	990.146308
13.090000	824.334420
13.100000	716.383301
13.110000	653.144623
13.120000	550.951858
13.130000	406.700016
13.140000	264.840290
13.150000	170.779293
13.160000	113.092555
13.170000	106.783075
13.180000	79.956733
13.190000	17.458605
13.200000	-16.112135
13.210000	-5.488129
13.220000	48.620335
13.230000	80.898245
13.240000	51.264655
13.250000	-25.724115
13.260000	-5.226661
13.270000	86.355044
13.280000	145.240007
13.290000	154.842861
13.300000	105.560345
13.310000	-10.163882
13.320000	-215.998431
13.330000	-339.802356
13.340000	-344.097949
13.350000	-349.380270
13.360000	-404.173356
13.370000	-475.576113
13.380000	-448.532691
13.390000	-359.365298
13.400000	-285.851455
13.410000	-244.499769
13.420000	-269.400066
13.430000	-188.250251
13.440000	-13.640702
13.450000	201.703507
13.460000	280.589955
13.470000	213.596559
13.480000	74.860625
13.490000	-50.003011
13.500000	-111.827613
13.510000	-126.307519
13.520000	-117.734248
13.530000	-112.146265
13.540000	-50.604916
13.550000	62.642694
13.560000	146.780708
13.570000	184.404421
13.580000	198.741884
13.590000	265.105163
13.600000	430.085480
13.610000	546.065809
13.620000	637.694200
13.630000	657.285109
13.640000	816.471147
13.650000	954.268977
13.660000	961.176136
13.670000	968.031593
13.680000	1010.403403
13.690000	1175.384985
13.700000	1275.658204
13.710000	1340.780564
13.720000	1421.081869
13.730000	1508.459412
13.740000	1641.409219
13.750000	1753.624708
13.760000	1819.287323
13.770000	1871.389660
13.780000	1936.250457
13.790000	1999.812299
13.800000	2076.057732
13.810000	2131.536987
13.820000	2215.188804
13.830000	2293.130215
13.840000	2436.034891
13.850000	2647.632566
13.860000	2795.264498
13.870000	2871.903208
13.880000	2819.776398
13.890000	2736.687903
13.900000	2556.255833
13.910000	2296.454486
13.920000	2085.118904
13.930000	2012.531505
13.940000	2039.705504
13.950000	2078.550554
13.960000	2094.180105
13.970000	2129.523499
13.980000	2157.534294
13.990000	2144.214067
14.000000	2118.128629
14.010000	2152.426969
14.020000	2213.494507
14.030000	2264.694564
14.040000	2306.022192
14.050000	2379.804478
14.060000	2519.583306
14.070000	2598.863889
14.080000	2628.575729
14.090000	2641.368281
14.100000	2683.321811
14.110000	2705.326093
14.120000	2731.983298
14.130000	2807.716021
14.140000	2853.013450
14.150000	2847.642514
14.160000	2806.177636
14.170000	2819.147381
14.180000	2890.471683
14.190000	2991.929668
14.200000	3166.992943
14.210000	3339.411357
14.220000	3481.674201
14.230000	3606.694756
14.240000	3664.872306
14.250000	3650.451636
14.260000	3613.909064
14.270000	3686.445571
14.280000	3827.821394
14.290000	3879.124430
14.300000	3850.874342
14.310000	3755.815699
14.320000	3679.464476
14.330000	3460.831560
14.340000	3207.792339
14.350000	2925.562342
14.360000	2742.787018
14.370000	2610.463911
14.380000	2493.810348
14.390000	2394.786862
14.400000	2384.675390
14.410000	2467.908356
14.420000	2502.116868
14.430000	2494.751784
14.440000	2550.132302
14.450000	2622.488320
14.460000	2509.687708
14.470000	2272.914918
14.480000	2046.407998
14.490000	1938.231241
14.500000	1816.093779
14.510000	1670.173599
14.520000	1601.036418
14.530000	1512.526644
14.540000	1418.228782
14.550000	1220.519872
14.560000	1042.971594
14.570000	858.372506
14.580000	635.307017
14.590000	390.291556
14.600000	198.401983
14.610000	57.929014
14.620000	37.282771
14.630000	14.968715
14.640000	83.004411
14.650000	-58.817173
14.660000	-372.094989
14.670000	-959.076488
14.680000	-1457.675592
14.690000	-1812.270127
14.700000	-1964.009321
14.710000	-2669.468108
14.720000	-4126.910362
14.730000	-5821.811812
14.740000	-6711.801091
14.750000	-7544.848266
14.760000	-9997.292638
14.770000	-19572.515504
14.780000	-40162.171817
14.790000	-54460.386780
14.800000	-51364.454399
14.810000	-47399.034210
14.820000	-44118.653949
14.830000	-41470.340726
14.840000	-38631.377748
14.850000	-36428.639733
14.860000	-34456.177899
14.870000	-33337.896759
14.880000	-32346.730450
14.890000	-31397.379326
14.900000	-29960.526088
14.910000	-28519.772767
14.920000	-27311.437358
14.930000	-26700.313040
14.940000	-26389.323692
14.950000	-26498.457214
14.960000	-27043.046283
14.970000	-28180.446964
14.980000	-29753.692690
14.990000	-31258.935898
15.000000	-31748.904398
15.010000	-30468.065757
15.020000	-27272.574690
15.030000	-22707.199043
15.040000	-17387.339636
15.050000	-12764.380904
15.060000	-9253.859072
15.070000	-6809.588861
15.080000	-4844.845520
15.090000	-3153.933869
15.100000	-1636.541867
15.110000	-464.443201
15.120000	595.794485
15.130000	1577.755138
15.140000	2582.576419
15.150000	3448.494907
15.160000	4219.523833
15.170000	4839.229199
15.180000	5507.783197
15.190000	6784.894876
15.200000	7951.811759
15.210000	8843.364929
15.220000	8917.425509
15.230000	8935.038021
15.240000	9088.103023
15.250000	9182.614618
15.260000	9277.775828
15.270000	9319.850536
15.280000	9434.914981
15.290000	9551.519318
15.300000	9711.343080
15.310000	9864.584521
15.320000	10070.053230
15.330000	10202.798085
15.340000	10326.269852
15.350000	10427.794120
15.360000	10574.365991
15.370000	10698.417011
15.380000	10793.629153
15.390000	10834.321131
15.400000	10896.174009
15.410000	10935.903948
15.420000	10906.048247
15.430000	10819.328272
15.440000	10666.874669
15.450000	10558.090804
15.460000	10354.702668
15.470000	10106.720727
15.480000	9773.299724
15.490000	9432.363739
15.500000	9078.690177
15.510000	8723.742503
15.520000	8325.625432
15.530000	7909.331045
15.540000	7479.532266
15.550000	7107.798647
15.560000	6866.136845
15.570000	6734.043214
15.580000	6672.723368
15.590000	6061.723475
15.600000	5355.630213
15.610000	4659.813232
15.620000	4474.658280
15.630000	4429.882179
15.640000	4361.959004
15.650000	4318.904462
15.660000	4244.346186
15.670000	4265.805812
15.680000	4286.492055
15.690000	4258.216196
15.700000	4109.617229
15.710000	3971.224749
15.720000	3798.305376
15.730000	3619.145529
15.740000	3299.927267
15.750000	2916.354699
15.760000	2564.986616
15.770000	2305.510012
15.780000	2216.144831
15.790000	2225.970868
15.800000	2326.523607
15.810000	2429.595563
15.820000	2448.289331
15.830000	2405.572504
15.840000	2427.388843
15.850000	2517.264620
15.860000	2690.906980
15.870000	2771.814404
15.880000	2818.456466
15.890000	3058.214486
15.900000	3348.041947
15.910000	3739.536256
15.920000	3969.149269
15.930000	4213.120322
15.940000	4340.467457
15.950000	4319.364994
15.960000	4305.021180
15.970000	4381.803806
15.980000	4606.889110
15.990000	4983.817679
16.000000	5439.602686
16.010000	5850.414508
16.020000	6066.634763
16.030000	6092.155660
16.040000	6101.859167
16.050000	6088.452440
16.060000	6135.054466
16.070000	6143.640816
16.080000	6192.456199
16.090000	6321.780357
16.100000	6390.080444
16.110000	6372.628982
16.120000	6273.170851
16.130000	6292.071919
16.140000	6346.871675
16.150000	6368.271132
16.160000	6382.554685
16.170000	6465.324953
16.180000	6552.572846
16.190000	6624.885947
16.200000	6738.181965
16.210000	6831.175089
16.220000	6940.108301
16.230000	6965.473308
16.240000	7003.620378
16.250000	7022.799989
16.260000	7067.053371
16.270000	7136.384211
16.280000	7198.775943
16.290000	7240.060635
16.300000	7293.671378
16.310000	7337.625879
16.320000	7391.721439
16.330000	7454.170521
16.340000	7514.451623
16.350000	7562.419024
16.360000	7584.540672
16.370000	7633.883902
16.380000	7669.737514
16.390000	7724.246109
16.400000	7804.895670
16.410000	7911.280781
16.420000	8022.356327
16.430000	8088.260499
16.440000	8169.141615
16.450000	8246.377918
16.460000	8301.947454
16.470000	8328.876054
16.480000	8393.971061
16.490000	8546.338726
16.500000	8659.523611
16.510000	8719.452461
16.520000	8697.710374
16.530000	8697.599392
16.540000	8683.852405
16.550000	8632.109852
16.560000	8571.138247
16.570000	8501.538454
16.580000	8489.263300
16.590000	8521.741932
16.600000	8611.779376
16.610000	8702.740069
16.620000	8744.629746
16.630000	8742.201913
16.640000	8770.316570
16.650000	8905.977386
16.660000	9076.563969
16.670000	9176.965551
16.680000	9156.259138
16.690000	9073.551815
16.700000	9002.286470
16.710000	8968.296946
16.720000	8932.755952
16.730000	8890.417451
16.740000	8781.020811
16.750000	8654.784489
16.760000	8551.195851
16.770000	8430.536810
16.780000	8276.367438
16.790000	8071.549558
16.800000	7936.174627
16.810000	7840.405501
16.820000	7748.550299
16.830000	7624.507744
16.840000	7512.055601
16.850000	7428.777710
16.860000	7311.909270
16.870000	7190.531660
16.880000	7042.850883
16.890000	6964.832633
16.900000	6880.874059
16.910000	6753.787728
16.920000	6599.587746
16.930000	6463.028553
16.940000	6380.815144
16.950000	6285.514829
16.960000	6190.123865
16.970000	6046.689695
16.980000	5942.321736
16.990000	5808.617791
17.000000	5672.958492
17.010000	5430.353551
17.020000	5142.887414
17.030000	4902.667068
17.040000	4756.181657
17.050000	4673.924421
17.060000	4612.251554
17.070000	4510.611707
17.080000	4415.754393
17.090000	4267.471958
17.100000	4102.318194
17.110000	3992.553923
17.120000	3948.831508
17.130000	3952.669652
17.140000	3811.308299
17.150000	3623.356134
17.160000	3412.678606
17.170000	3277.005921
17.180000	3165.061687
17.190000	3033.761822
17.200000	2847.878187
17.210000	2620.055929
17.220000	2438.637503
17.230000	2341.273888
17.240000	2239.775758
17.250000	2141.473573
17.260000	1989.451722
17.270000	1861.084374
17.280000	1719.517661
17.290000	1618.308625
17.300000	1534.399709
17.310000	1459.929212
17.320000	1423.397616
17.330000	1428.826597
17.340000	1503.130463
17.350000	1528.326100
17.360000	1550.976688
17.370000	1506.844059
17.380000	1527.010152
17.390000	1598.612094
17.400000	1627.794574
17.410000	1670.760319
17.420000	1709.003139
17.430000	1814.447539
17.440000	1777.055831
17.450000	1595.989156
17.460000	1472.604939
17.470000	1448.694822
17.480000	1522.965914
17.490000	1597.058642
17.500000	1707.282735
17.510000	1864.934261
17.520000	1966.191735
17.530000	2061.135453
17.540000	2169.915901
17.550000	2307.213482
17.560000	2427.694907
17.570000	2469.125892
17.580000	2549.510868
17.590000	2623.124957
17.600000	2687.643465
17.610000	2665.108125
17.620000	2656.453628
17.630000	2690.741146
17.640000	2752.984424
17.650000	2855.618763
17.660000	2942.156183
17.670000	3011.138762
17.680000	3081.201985
17.690000	3156.431918
17.700000	3185.235560
17.710000	3191.734626
17.720000	3237.166880
17.730000	3349.068094
17.740000	3422.518562
17.750000	3405.658938
17.760000	3403.072361
17.770000	3395.008166
17.780000	3422.553885
17.790000	3397.423419
17.800000	3360.806426
17.810000	3362.605358
17.820000	3354.191767
17.830000	3376.430500
17.840000	3323.231514
17.850000	3244.736711
17.860000	3073.327037
17.870000	2901.522535
17.880000	2782.681989
17.890000	2690.784514
17.900000	2643.845909
17.910000	2614.603973
17.920000	2662.256273
17.930000	2733.116151
17.940000	2819.790320
17.950000	2829.049531
17.960000	2814.043770
17.970000	2878.766971
17.980000	3027.661911
17.990000	3160.495378
18.000000	3166.543373
18.010000	3117.009245
18.020000	3106.100761
18.030000	3127.185832
18.040000	3151.196469
18.050000	3151.629643
18.060000	3204.828381
18.070000	3292.393830
18.080000	3413.750013
18.090000	3765.266538
18.100000	4172.547709
18.110000	4599.072440
18.120000	4762.551653
18.130000	4831.658277
18.140000	4888.185011
18.150000	4891.435734
18.160000	4868.525976
18.170000	4834.695210
18.180000	4848.493784
18.190000	4800.327305
18.200000	4695.270839
18.210000	4560.841831
18.220000	4483.022393
18.230000	4286.111312
18.240000	4014.177657
18.250000	3761.979822
18.260000	3596.041530
18.270000	3438.230174
18.280000	3237.752615
18.290000	3059.229254
18.300000	2889.675212
18.310000	2734.362711
18.320000	2547.534774
18.330000	2352.422304
18.340000	2236.968246
18.350000	2124.752806
18.360000	1971.538606
18.370000	1713.403879
18.380000	1492.041132
18.390000	1326.745658
18.400000	1166.035580
18.410000	946.400144
18.420000	712.666083
18.430000	533.451219
18.440000	446.870124
18.450000	425.639393
18.460000	392.245657
18.470000	291.858715
18.480000	123.731307
18.490000	-42.775105
18.500000	-175.605153
18.510000	-190.325323
18.520000	-215.928675
18.530000	-287.692957
18.540000	-426.962684
18.550000	-627.741530
18.560000	-1013.783031
18.570000	-1703.546133
18.580000	-2593.103750
18.590000	-3440.423181
18.600000	-4171.678803
18.610000	-4790.312019
18.620000	-5237.890696
18.630000	-5562.306848
18.640000	-5703.961808
18.650000	-5532.602525
18.660000	-5218.025690
18.670000	-5060.766334
18.680000	-5138.994900
18.690000	-5242.327328
18.700000	-5192.248316
18.710000	-5027.689154
18.720000	-4694.790700
18.730000	-4404.997005
18.740000	-4453.788071
18.750000	-4878.827718
18.760000	-5500.091956
18.770000	-6665.018293
18.780000	-9291.213044
18.790000	-13838.790292
18.800000	-22872.204602
18.810000	-38556.415060
18.820000	-55263.148527
18.830000	-61875.904026
18.840000	-65391.495722
18.850000	-66993.012397
18.860000	-66299.325423
18.870000	-63821.256963
18.880000	-59898.996839
18.890000	-56180.741923
18.900000	-52856.648582
18.910000	-49915.996825
18.920000	-47271.748745
18.930000	-44203.840476
18.940000	-41166.737968
18.950000	-38716.628735
18.960000	-36749.915418
18.970000	-34984.929847
18.980000	-32924.838491
18.990000	-31123.120067
19.000000	-29427.160779
19.010000	-28392.929011
19.020000	-27352.461131
19.030000	-27058.647074
19.040000	-26745.262533
19.050000	-27339.021598
19.060000	-27879.888275
19.070000	-29302.606313
19.080000	-30387.602482
19.090000	-30671.821262
19.100000	-9946.158437
19.110000	-7167.445577
19.120000	-5346.471857
19.130000	-4392.582404
19.140000	-2863.366690
19.150000	-1801.876350
19.160000	-306.583066
19.170000	671.413662
19.180000	1822.716788
19.190000	2480.651143
19.200000	3221.106270
19.210000	3630.181740
19.220000	4175.596972
19.230000	4524.528152
19.240000	4989.877203
19.250000	5351.427712
19.260000	5880.526322
19.270000	6287.807349
19.280000	6510.485851
19.290000	5447.691836
19.300000	4317.505150
19.310000	3182.427572
19.320000	3096.273460
19.330000	3086.959796
19.340000	3263.706868
19.350000	3517.589179
19.360000	3741.843602
19.370000	3779.779874
19.380000	3683.252593
19.390000	3570.185851
19.400000	3612.511391
19.410000	3747.315909
19.420000	3647.748640
19.430000	3407.304772
19.440000	3229.660365
19.450000	3266.189379
19.460000	3239.100269
19.470000	3040.247679
19.480000	2887.143171
19.490000	2890.388357
19.500000	3023.519735
19.510000	3110.830001
19.520000	3236.655472
19.530000	3382.367838
19.540000	3586.327421
19.550000	3670.023722
19.560000	3614.150994
19.570000	3527.078598
19.580000	3534.069900
19.590000	3886.195200
19.600000	4331.991984
19.610000	4683.202697
19.620000	4735.587988
19.630000	4609.486646
19.640000	4476.042303
19.650000	4286.886896
19.660000	4074.103863
19.670000	3893.405369
19.680000	3765.456172
19.690000	3692.928426
19.700000	3642.430401
19.710000	3607.914503
19.720000	3534.659114
19.730000	3308.793192
19.740000	2901.175827
19.750000	2442.499680
19.760000	2125.251232
19.770000	1996.863557
19.780000	1893.468876
19.790000	1706.435188
19.800000	1476.486224
19.810000	1336.315674
19.820000	1289.204468
19.830000	1230.623133
19.840000	1128.845823
19.850000	1018.502721
19.860000	988.359128
19.870000	1018.807964
19.880000	944.194650
19.890000	603.494831
