Time(s)	RED_denoised_wiener
0.000000	-215.168435
0.010000	-335.714291
0.020000	-365.627740
0.030000	-372.990926
0.040000	-376.515548
0.050000	-375.817467
0.060000	-390.057573
0.070000	-404.482910
0.080000	-413.889387
0.090000	-417.756287
0.100000	-438.711355
0.110000	-474.218629
0.120000	-560.228610
0.130000	-678.453079
0.140000	-833.728619
0.150000	-979.463677
0.160000	-1103.238035
0.170000	-1212.108136
0.180000	-1313.326501
0.190000	-1403.633703
0.200000	-1466.954540
0.210000	-1511.131189
0.220000	-1547.496506
0.230000	-1570.484702
0.240000	-1578.616899
0.250000	-1581.768018
0.260000	-1587.962233
0.270000	-1592.578023
0.280000	-1595.211961
0.290000	-1604.303168
0.300000	-1608.629910
0.310000	-1603.934352
0.320000	-1593.620496
0.330000	-1585.794715
0.340000	-1572.113493
0.350000	-1544.534814
0.360000	-1518.548003
0.370000	-1500.123618
0.380000	-1486.497994
0.390000	-1473.579524
0.400000	-1444.615228
0.410000	-1408.973786
0.420000	-1371.584799
0.430000	-1344.917863
0.440000	-1324.702063
0.450000	-1300.369542
0.460000	-1270.366866
0.470000	-1225.654648
0.480000	-1173.260988
0.490000	-1124.802070
0.500000	-1083.646689
0.510000	-1031.401796
0.520000	-968.594268
0.530000	-907.875900
0.540000	-848.343517
0.550000	-814.924334
0.560000	-804.182728
0.570000	-833.194775
0.580000	-860.023327
0.590000	-874.714328
0.600000	-878.052479
0.610000	-878.077317
0.620000	-873.544089
0.630000	-857.242990
0.640000	-837.227792
0.650000	-819.216849
0.660000	-797.692994
0.670000	-774.688221
0.680000	-758.650346
0.690000	-765.652810
0.700000	-792.691978
0.710000	-824.718724
0.720000	-865.584328
0.730000	-905.543826
0.740000	-955.327162
0.750000	-1001.427656
0.760000	-1039.885888
0.770000	-1060.749063
0.780000	-1066.931690
0.790000	-1065.197130
0.800000	-1064.764676
0.810000	-1068.405604
0.820000	-1074.695255
0.830000	-1082.053764
0.840000	-1087.058543
0.850000	-1099.172736
0.860000	-1109.805306
0.870000	-1115.402908
0.880000	-1114.987468
0.890000	-1116.082379
0.900000	-1124.922990
0.910000	-1132.808665
0.920000	-1136.960215
0.930000	-1139.631810
0.940000	-1138.064292
0.950000	-1137.889535
0.960000	-1141.234516
0.970000	-1140.861547
0.980000	-1135.492006
0.990000	-1114.208869
1.000000	-1095.228842
1.010000	-1087.928777
1.020000	-1117.068992
1.030000	-1186.316003
1.040000	-1268.213097
1.050000	-1330.744319
1.060000	-1363.801822
1.070000	-1395.994250
1.080000	-1420.673139
1.090000	-1445.995083
1.100000	-1456.520691
1.110000	-1471.462927
1.120000	-1470.963551
1.130000	-1463.374983
1.140000	-1458.106810
1.150000	-1455.289806
1.160000	-1480.345198
1.170000	-1490.707638
1.180000	-1499.757715
1.190000	-1493.066947
1.200000	-1492.284556
1.210000	-1491.362788
1.220000	-1478.806398
1.230000	-1464.056778
1.240000	-1440.622467
1.250000	-1421.807122
1.260000	-1395.701927
1.270000	-1384.313907
1.280000	-1356.629689
1.290000	-1299.527720
1.300000	-1216.926094
1.310000	-1128.437094
1.320000	-1059.555047
1.330000	-1015.938977
1.340000	-1000.153079
1.350000	-1014.414737
1.360000	-1020.278164
1.370000	-1011.615235
1.380000	-973.010948
1.390000	-932.899932
1.400000	-888.953554
1.410000	-858.195977
1.420000	-828.437988
1.430000	-780.425217
1.440000	-693.535127
1.450000	-575.679815
1.460000	-444.937693
1.470000	-344.277462
1.480000	-251.432950
1.490000	-35.512466
1.500000	186.792241
1.510000	387.900565
1.520000	458.198234
1.530000	528.382570
1.540000	620.383922
1.550000	693.106055
1.560000	757.463202
1.570000	798.177826
1.580000	846.426439
1.590000	909.275886
1.600000	993.818389
1.610000	1073.379309
1.620000	1132.675858
1.630000	1153.244343
1.640000	1149.396472
1.650000	1121.847931
1.660000	1105.990988
1.670000	1108.153107
1.680000	1119.661805
1.690000	1115.199475
1.700000	1108.563033
1.710000	1119.053335
1.720000	1153.224346
1.730000	1187.288337
1.740000	1228.103684
1.750000	1272.632712
1.760000	1333.498615
1.770000	1396.044092
1.780000	1456.401123
1.790000	1520.295767
1.800000	1575.069743
1.810000	1636.444648
1.820000	1694.489807
1.830000	1756.465276
1.840000	1806.673971
1.850000	1827.978380
1.860000	1827.423587
1.870000	1795.614619
1.880000	1760.112238
1.890000	1725.026548
1.900000	1707.679833
1.910000	1698.209012
1.920000	1699.797663
1.930000	1699.530851
1.940000	1689.114287
1.950000	1691.126089
1.960000	1729.960330
1.970000	1798.495010
1.980000	1859.252379
1.990000	1933.223025
2.000000	2061.132921
2.010000	2241.037234
2.020000	2407.377893
2.030000	2511.773512
2.040000	2542.601115
2.050000	2524.489030
2.060000	2488.390415
2.070000	2472.442003
2.080000	2481.642091
2.090000	2498.889992
2.100000	2520.822851
2.110000	2555.930843
2.120000	2608.220543
2.130000	2655.130228
2.140000	2682.876090
2.150000	2681.910553
2.160000	2664.496390
2.170000	2654.964398
2.180000	2677.692702
2.190000	2739.882440
2.200000	2824.736619
2.210000	2923.404616
2.220000	3027.700111
2.230000	3127.508004
2.240000	3234.311507
2.250000	3342.154128
2.260000	3454.875811
2.270000	3542.970012
2.280000	3595.420910
2.290000	3610.409803
2.300000	3600.940651
2.310000	3597.165886
2.320000	3595.639207
2.330000	3591.858714
2.340000	3582.950406
2.350000	3588.222477
2.360000	3612.834570
2.370000	3640.808469
2.380000	3673.715658
2.390000	3712.008523
2.400000	3756.550069
2.410000	3792.786798
2.420000	3810.685805
2.430000	3822.249495
2.440000	3837.107222
2.450000	3855.313031
2.460000	3880.166276
2.470000	3901.302658
2.480000	3934.261631
2.490000	4038.713493
2.500000	4174.718222
2.510000	4330.170397
2.520000	4445.014169
2.530000	4556.868039
2.540000	4679.217687
2.550000	4805.820038
2.560000	4935.745671
2.570000	5052.039193
2.580000	5158.309245
2.590000	5243.531839
2.600000	5305.545381
2.610000	5327.968159
2.620000	5348.246567
2.630000	5370.631621
2.640000	5413.305408
2.650000	5454.840061
2.660000	5495.411699
2.670000	5528.686377
2.680000	5565.221080
2.690000	5624.214031
2.700000	5692.600327
2.710000	5762.415011
2.720000	5824.636794
2.730000	5889.663549
2.740000	5962.988076
2.750000	6039.211154
2.760000	6119.019048
2.770000	6200.414988
2.780000	6286.394579
2.790000	6373.599431
2.800000	6453.086675
2.810000	6519.459316
2.820000	6578.141288
2.830000	6644.345941
2.840000	6720.160049
2.850000	6799.209835
2.860000	6878.856507
2.870000	6970.112218
2.880000	7070.517140
2.890000	7169.994996
2.900000	7255.504370
2.910000	7314.881644
2.920000	7347.190568
2.930000	7349.096462
2.940000	7354.981699
2.950000	7381.263147
2.960000	7423.717172
2.970000	7467.401201
2.980000	7512.828973
2.990000	7570.567094
3.000000	7636.567165
3.010000	7706.732312
3.020000	7781.984811
3.030000	7871.919849
3.040000	7956.652771
3.050000	8026.465994
3.060000	8080.341324
3.070000	8127.369237
3.080000	8180.368704
3.090000	8237.894423
3.100000	8299.057885
3.110000	8366.421794
3.120000	8435.051560
3.130000	8507.293244
3.140000	8583.696663
3.150000	8665.488472
3.160000	8749.985118
3.170000	8836.341627
3.180000	8924.928518
3.190000	9015.510067
3.200000	9101.503391
3.210000	9185.016516
3.220000	9266.720298
3.230000	9347.501324
3.240000	9427.243948
3.250000	9506.629489
3.260000	9591.086751
3.270000	9683.053774
3.280000	9774.202481
3.290000	9866.807778
3.300000	9955.261866
3.310000	10058.926985
3.320000	10159.512373
3.330000	10251.039069
3.340000	10329.725772
3.350000	10374.057032
3.360000	10396.317593
3.370000	10381.282627
3.380000	10374.022414
3.390000	10372.991725
3.400000	10382.686103
3.410000	10397.613011
3.420000	10415.294974
3.430000	10452.554754
3.440000	10484.052641
3.450000	10517.849919
3.460000	10558.726665
3.470000	10616.414340
3.480000	10680.932427
3.490000	10734.540148
3.500000	10786.124114
3.510000	10837.556171
3.520000	10887.546556
3.530000	10945.504239
3.540000	11004.155658
3.550000	11071.055267
3.560000	11123.908031
3.570000	11186.287148
3.580000	11253.467098
3.590000	11306.360144
3.600000	11367.350042
3.610000	11430.227252
3.620000	11530.215364
3.630000	11634.104177
3.640000	11742.366768
3.650000	11840.462488
3.660000	11918.047970
3.670000	11976.700719
3.680000	12012.222656
3.690000	12021.446554
3.700000	12030.310741
3.710000	12059.673841
3.720000	12113.843975
3.730000	12181.009252
3.740000	12252.867633
3.750000	12334.189663
3.760000	12424.012875
3.770000	12515.486054
3.780000	12619.667541
3.790000	12719.493443
3.800000	12820.834695
3.810000	12905.211292
3.820000	12992.211515
3.830000	13074.955908
3.840000	13169.077237
3.850000	13257.030663
3.860000	13371.496280
3.870000	13485.016313
3.880000	13612.769107
3.890000	13828.894449
3.900000	14048.663245
3.910000	14259.355046
3.920000	14371.725495
3.930000	14487.044047
3.940000	14615.235434
3.950000	14726.983853
3.960000	14839.224237
3.970000	14927.822520
3.980000	15006.321251
3.990000	15052.226581
4.000000	15087.865289
4.010000	15125.920867
4.020000	15176.377986
4.030000	15226.521480
4.040000	15298.948854
4.050000	15376.967774
4.060000	15470.538837
4.070000	15551.915303
4.080000	15647.207002
4.090000	15834.594805
4.100000	16038.032459
4.110000	16235.328280
4.120000	16357.293295
4.130000	16457.287775
4.140000	16574.395886
4.150000	16686.952817
4.160000	16825.505609
4.170000	16961.309968
4.180000	17109.916405
4.190000	17218.984415
4.200000	17294.314900
4.210000	17308.386156
4.220000	17306.723541
4.230000	17235.983118
4.240000	17047.602572
4.250000	16643.224281
4.260000	15949.989539
4.270000	14806.650743
4.280000	12924.444403
4.290000	10036.545553
4.300000	6327.202808
4.310000	1909.298784
4.320000	-2602.282494
4.330000	-6860.315920
4.340000	-10450.225911
4.350000	-13301.529088
4.360000	-15585.162715
4.370000	-17308.968132
4.380000	-18239.453957
4.390000	-18051.850432
4.400000	-16644.729160
4.410000	-14226.965344
4.420000	-10377.998941
4.430000	-5326.526814
4.440000	-3.947805
4.450000	3591.102400
4.460000	5060.397705
4.470000	4364.014587
4.480000	2784.595540
4.490000	668.565728
4.500000	-1864.963422
4.510000	-5379.232545
4.520000	-9432.580452
4.530000	-13412.388853
4.540000	-16925.637644
4.550000	-20681.418594
4.560000	-23373.348211
4.570000	-24215.074863
4.580000	-22251.803427
4.590000	-17751.629495
4.600000	-2959.738856
4.610000	1811.811107
4.620000	4832.951917
4.630000	6597.741719
4.640000	8087.555394
4.650000	8709.079385
4.660000	9048.120867
4.670000	8456.409028
4.680000	7634.764481
4.690000	6125.253402
4.700000	4510.621596
4.710000	2929.557815
4.720000	2058.961064
4.730000	1666.359772
4.740000	1648.642087
4.750000	1857.347813
4.760000	2441.107427
4.770000	3089.033109
4.780000	3422.670890
4.790000	2880.490262
4.800000	1199.653735
4.810000	-2282.560941
4.820000	-7552.306930
4.830000	-14105.402725
4.840000	-18913.317979
4.850000	-21116.573041
4.860000	-20930.831059
4.870000	-19242.057667
4.880000	-16876.653068
4.890000	-17334.365926
4.900000	-19066.097547
4.910000	-21948.755308
4.920000	-22610.792593
4.930000	-22512.262480
4.940000	-21743.246962
4.950000	-20369.900463
4.960000	-18914.491623
4.970000	-17825.547657
4.980000	-16793.874306
4.990000	-13269.069206
5.000000	-8496.501548
5.010000	-4894.396769
5.020000	-3907.177085
5.030000	-3682.916655
5.040000	-3638.733615
5.050000	-4127.274544
5.060000	-4428.953877
5.070000	-4941.650502
5.080000	-5342.817783
5.090000	-6177.371473
5.100000	-7079.148558
5.110000	-8251.298705
5.120000	-8976.934993
5.130000	-9736.169495
5.140000	-10003.288012
5.150000	-10515.511386
5.160000	-10387.861029
5.170000	-10054.825859
5.180000	-8042.213281
5.190000	-5360.993873
5.200000	-2298.278141
5.210000	-1530.765326
5.220000	-2504.516206
5.230000	-5528.292103
5.240000	-8523.589423
5.250000	-13480.758108
5.260000	-20483.391806
5.270000	-27379.135162
5.280000	-31276.998942
5.290000	-31941.150745
5.300000	4839.569506
5.310000	5874.807215
5.320000	5797.297449
5.330000	4316.914278
5.340000	3672.457013
5.350000	1916.736782
5.360000	575.362093
5.370000	-2307.801743
5.380000	-5382.120749
5.390000	-9678.356547
5.400000	-13096.485620
5.410000	-16062.335088
5.420000	-17162.289897
5.430000	-17765.119092
5.440000	-17312.971101
5.450000	-16847.135457
5.460000	-15587.829017
5.470000	-14311.275391
5.480000	-12360.939649
5.490000	-8455.224358
5.500000	-4411.091021
5.510000	-969.753448
5.520000	313.983894
5.530000	988.029156
5.540000	1532.244197
5.550000	1688.900437
5.560000	2132.174234
5.570000	2541.478699
5.580000	3071.176907
5.590000	3414.220103
5.600000	3705.151836
5.610000	3791.595111
5.620000	3723.432846
5.630000	3495.899464
5.640000	3122.839942
5.650000	2762.671372
5.660000	2332.650635
5.670000	2261.576361
5.680000	2515.580786
5.690000	3425.535439
5.700000	4285.043055
5.710000	5148.627564
5.720000	5282.712576
5.730000	5477.271414
5.740000	5415.036812
5.750000	6087.534416
5.760000	6220.156651
5.770000	6294.970519
5.780000	5213.278244
5.790000	2541.970858
5.800000	-14850.103569
5.810000	-14624.239615
5.820000	-12866.899686
5.830000	-11316.452376
5.840000	-11221.917008
5.850000	-10971.498061
5.860000	-10896.298963
5.870000	-9809.741511
5.880000	-8357.417111
5.890000	-5952.976422
5.900000	-3730.640367
5.910000	-1701.844587
5.920000	-710.872436
5.930000	-440.247467
5.940000	-1036.441911
5.950000	-1675.719618
5.960000	-2363.025657
5.970000	-3062.823023
5.980000	-4215.329401
5.990000	-5505.268890
6.000000	-6871.084979
6.010000	-7980.730941
6.020000	-8958.858116
6.030000	-9481.394466
6.040000	-9723.440201
6.050000	-9558.003492
6.060000	-9235.504657
6.070000	-8570.866006
6.080000	-7782.798210
6.090000	-7083.835339
6.100000	-6665.494823
6.110000	-6253.991085
6.120000	-5760.835011
6.130000	-5186.863683
6.140000	-4871.914628
6.150000	-4629.101390
6.160000	-4513.808214
6.170000	-4413.697050
6.180000	-4446.488988
6.190000	-5367.535995
6.200000	-6298.845616
6.210000	-7042.073546
6.220000	-6959.163019
6.230000	-6665.224699
6.240000	-6477.838078
6.250000	-6097.859947
6.260000	-5852.080024
6.270000	-5550.593477
6.280000	-5341.771497
6.290000	-5221.431397
6.300000	-5243.147927
6.310000	-5284.983144
6.320000	-5312.630459
6.330000	-5345.550815
6.340000	-5448.107364
6.350000	-5559.983187
6.360000	-5697.671776
6.370000	-5877.962276
6.380000	-6074.332465
6.390000	-6153.867010
6.400000	-6080.813806
6.410000	-5890.523371
6.420000	-5767.597262
6.430000	-5743.654217
6.440000	-5750.670815
6.450000	-5700.295406
6.460000	-5648.041382
6.470000	-5568.953125
6.480000	-5512.857185
6.490000	-5510.132867
6.500000	-5611.974489
6.510000	-5856.523281
6.520000	-6215.491354
6.530000	-6673.867631
6.540000	-7116.987402
6.550000	-7470.577854
6.560000	-7774.386888
6.570000	-8066.208277
6.580000	-8252.352727
6.590000	-8356.089281
6.600000	-8357.464348
6.610000	-8357.234753
6.620000	-8318.800013
6.630000	-8213.003638
6.640000	-8249.395881
6.650000	-8396.717256
6.660000	-8687.441104
6.670000	-8848.199954
6.680000	-8978.119904
6.690000	-9086.715035
6.700000	-9215.165480
6.710000	-9274.486981
6.720000	-9254.376043
6.730000	-9332.725832
6.740000	-9459.912786
6.750000	-9623.351823
6.760000	-9682.718378
6.770000	-9692.800959
6.780000	-9686.752627
6.790000	-9701.215193
6.800000	-9749.679517
6.810000	-9670.438442
6.820000	-9437.937824
6.830000	-9170.347765
6.840000	-9059.690767
6.850000	-9053.210321
6.860000	-8954.675535
6.870000	-8720.117259
6.880000	-8392.525566
6.890000	-8106.235022
6.900000	-7865.645457
6.910000	-7780.936797
6.920000	-7789.918761
6.930000	-7894.107030
6.940000	-7917.999283
6.950000	-7917.205319
6.960000	-7807.990205
6.970000	-7648.987536
6.980000	-7385.629510
6.990000	-7030.914312
7.000000	-6578.173420
7.010000	-6056.230112
7.020000	-5659.463130
7.030000	-5347.525150
7.040000	-5218.088655
7.050000	-5074.969253
7.060000	-4940.937787
7.070000	-4757.144108
7.080000	-4499.837586
7.090000	-4237.860175
7.100000	-3907.994182
7.110000	-3590.589316
7.120000	-3233.738834
7.130000	-2977.128518
7.140000	-2863.165982
7.150000	-2802.922491
7.160000	-2594.898576
7.170000	-2296.040051
7.180000	-1935.166766
7.190000	-1370.634681
7.200000	-916.297012
7.210000	-622.783070
7.220000	-624.265821
7.230000	-616.335003
7.240000	-454.948946
7.250000	-288.964288
7.260000	3.506300
7.270000	189.828430
7.280000	422.415808
7.290000	1155.180242
7.300000	1991.721849
7.310000	2743.168325
7.320000	3043.943133
7.330000	3314.048915
7.340000	3692.461678
7.350000	4026.531903
7.360000	4355.578408
7.370000	4583.381090
7.380000	4747.134215
7.390000	4832.495525
7.400000	4918.019425
7.410000	4993.106774
7.420000	5086.755804
7.430000	5183.004317
7.440000	5363.169818
7.450000	5487.372076
7.460000	5625.906120
7.470000	5688.043168
7.480000	5656.256275
7.490000	5432.573280
7.500000	5051.049492
7.510000	4781.498457
7.520000	4609.142327
7.530000	4517.166344
7.540000	4441.186485
7.550000	4382.095805
7.560000	4381.759073
7.570000	4390.857641
7.580000	4479.743389
7.590000	4646.838490
7.600000	4819.281997
7.610000	4989.081057
7.620000	5033.255114
7.630000	5064.387699
7.640000	5087.683774
7.650000	5161.925315
7.660000	5247.927170
7.670000	5265.099644
7.680000	5294.364529
7.690000	5338.810450
7.700000	5439.990979
7.710000	5537.324005
7.720000	5629.864291
7.730000	5721.934852
7.740000	5820.828308
7.750000	5955.353702
7.760000	5996.106338
7.770000	6035.463201
7.780000	6017.056921
7.790000	5580.484946
7.800000	4921.615484
7.810000	4069.461354
7.820000	3523.879638
7.830000	3134.730953
7.840000	2859.517272
7.850000	2624.993295
7.860000	2318.790648
7.870000	2042.920294
7.880000	1864.710585
7.890000	1765.686069
7.900000	1746.423234
7.910000	1844.626800
7.920000	2022.333621
7.930000	2260.357243
7.940000	2451.740308
7.950000	2701.740470
7.960000	2974.160934
7.970000	3200.102183
7.980000	3289.925409
7.990000	3200.658699
8.000000	3101.672191
8.010000	3027.242377
8.020000	3272.198566
8.030000	3774.910048
8.040000	4421.978181
8.050000	4086.521903
8.060000	2253.832638
8.070000	-937.679957
8.080000	-4397.974432
8.090000	-7869.444460
8.100000	-11453.377897
8.110000	-15896.927887
8.120000	-21624.023835
8.130000	-27755.140706
8.140000	-28619.383343
8.150000	-23556.563396
8.160000	-13328.915211
8.170000	-8549.504380
8.180000	-6919.808515
8.190000	-8006.898957
8.200000	-10630.541869
8.210000	-13610.576508
8.220000	-15875.857343
8.230000	-17985.681418
8.240000	-20460.013788
8.250000	-22863.444329
8.260000	-23255.317539
8.270000	-21285.523473
8.280000	-18091.654360
8.290000	-15052.878943
8.300000	-12074.220856
8.310000	-8936.504078
8.320000	-5745.288888
8.330000	-3354.125340
8.340000	-1843.173165
8.350000	-1088.792602
8.360000	-982.704021
8.370000	-1650.705794
8.380000	-2620.861452
8.390000	-2592.944262
8.400000	-1222.576361
8.410000	859.875978
8.420000	2696.212321
8.430000	3809.423292
8.440000	4271.916894
8.450000	3824.802291
8.460000	2702.720004
8.470000	1348.831729
8.480000	386.096009
8.490000	55.225036
8.500000	171.384950
8.510000	648.973940
8.520000	1305.492118
8.530000	2385.982804
8.540000	3720.212351
8.550000	4844.941861
8.560000	5167.667119
8.570000	4596.032112
8.580000	3590.064451
8.590000	2689.434381
8.600000	2685.246820
8.610000	1751.744850
8.620000	-1603.035782
8.630000	-9820.037760
8.640000	-20031.818133
8.650000	-23632.295016
8.660000	-23678.063592
8.670000	-21240.749606
8.680000	-18964.662376
8.690000	-15899.224824
8.700000	-11479.212093
8.710000	-6601.272553
8.720000	-2689.098147
8.730000	-582.937919
8.740000	337.810075
8.750000	478.589774
8.760000	427.004696
8.770000	202.678964
8.780000	-68.384936
8.790000	-535.529120
8.800000	-1127.373951
8.810000	-2122.568789
8.820000	-3635.780700
8.830000	-5878.406837
8.840000	-8197.343631
8.850000	-10593.569840
8.860000	-11935.990204
8.870000	-12091.999356
8.880000	-10604.266701
8.890000	-8875.390096
8.900000	-7626.187678
8.910000	-7550.889033
8.920000	-8147.000450
8.930000	-9552.991184
8.940000	-10968.742104
8.950000	-12619.747683
8.960000	-13645.000933
8.970000	-15173.468303
8.980000	-15111.236821
8.990000	-12756.920542
9.000000	5866.290782
9.010000	7572.533178
9.020000	7848.183141
9.030000	7763.368843
9.040000	7520.286517
9.050000	5483.349813
9.060000	2254.063554
9.070000	-933.399192
9.080000	-2299.459385
9.090000	-2427.433051
9.100000	-1223.581405
9.110000	234.192757
9.120000	2206.854551
9.130000	3507.726192
9.140000	4481.382908
9.150000	4768.883728
9.160000	4900.579779
9.170000	4780.884373
9.180000	4633.552295
9.190000	4060.411626
9.200000	2867.322845
9.210000	853.828677
9.220000	-1441.968129
9.230000	-3903.666410
9.240000	-5787.955019
9.250000	-6781.758134
9.260000	-6157.883309
9.270000	-4190.008098
9.280000	-1422.294216
9.290000	1657.827636
9.300000	3623.982162
9.310000	4600.859280
9.320000	4584.510636
9.330000	4903.158176
9.340000	5479.122284
9.350000	6031.513075
9.360000	6372.941056
9.370000	6313.146557
9.380000	6960.616175
9.390000	8215.753930
9.400000	9287.353079
9.410000	8571.092021
9.420000	5988.246753
9.430000	1743.845278
9.440000	-2824.443698
9.450000	-6441.599400
9.460000	-8216.879666
9.470000	-8290.897693
9.480000	-7080.091616
9.490000	-5056.698427
9.500000	-3084.391927
9.510000	-1555.882899
9.520000	-273.411734
9.530000	758.705706
9.540000	1333.676473
9.550000	1883.381987
9.560000	3175.021871
9.570000	5375.080602
9.580000	8026.663369
9.590000	10199.489945
9.600000	11036.185314
9.610000	10466.076142
9.620000	8871.302916
9.630000	6829.219597
9.640000	4116.244170
9.650000	555.851456
9.660000	-3947.229944
9.670000	-9252.105871
9.680000	-15337.272977
9.690000	-21104.622793
9.700000	-24318.504959
9.710000	-24173.569618
9.720000	-21724.484389
9.730000	-18970.398727
9.740000	-16166.291987
9.750000	-12743.915780
9.760000	-8679.875289
9.770000	-5010.285534
9.780000	-2717.583882
9.790000	-2303.604652
9.800000	-3456.657398
9.810000	-5683.019728
9.820000	-8530.771553
9.830000	-11715.149619
9.840000	-15125.950697
9.850000	-18327.634612
9.860000	-20835.907645
9.870000	-22708.182102
9.880000	-23577.937731
9.890000	-22969.329537
9.900000	-21155.588000
9.910000	-18579.166985
9.920000	-15765.019050
9.930000	-12615.510813
9.940000	-8948.429545
9.950000	-5620.916348
9.960000	-3349.656525
9.970000	-2820.100174
9.980000	-3455.943870
9.990000	-4092.188057
10.000000	-4439.485616
10.010000	-4647.325639
10.020000	-5667.069187
10.030000	-7857.002043
10.040000	-10708.100002
10.050000	-12658.945600
10.060000	-12375.240449
10.070000	-10130.786565
10.080000	-7156.150766
10.090000	-4857.580094
10.100000	-3992.744369
10.110000	-4716.510526
10.120000	-6905.360436
10.130000	-9311.133605
10.140000	-11257.322612
10.150000	-12344.621806
10.160000	-12926.450326
10.170000	-13534.024085
10.180000	-13374.360991
10.190000	-12371.810665
10.200000	-10826.712489
10.210000	-9774.685536
10.220000	-9586.968572
10.230000	-9426.631933
10.240000	-8799.215557
10.250000	-7618.744254
10.260000	-6175.533692
10.270000	-4931.692986
10.280000	-3956.464238
10.290000	-2989.755470
10.300000	-1940.871819
10.310000	-714.477101
10.320000	455.484211
10.330000	1514.969965
10.340000	2225.013493
10.350000	2518.242734
10.360000	2661.488331
10.370000	2761.443208
10.380000	2941.048540
10.390000	3121.470095
10.400000	3242.380027
10.410000	3256.593352
10.420000	3111.764082
10.430000	2809.270697
10.440000	2634.340713
10.450000	2791.479040
10.460000	3176.161008
10.470000	3481.229655
10.480000	3537.799587
10.490000	3588.221277
10.500000	3676.009884
10.510000	3860.045900
10.520000	4074.675212
10.530000	4237.962464
10.540000	4363.746478
10.550000	4357.731116
10.560000	4343.905879
10.570000	4270.511809
10.580000	4256.367989
10.590000	4301.138866
10.600000	4372.923100
10.610000	4438.280772
10.620000	4480.382256
10.630000	4545.460293
10.640000	4671.355398
10.650000	4804.264411
10.660000	4937.673964
10.670000	5087.016885
10.680000	5267.218394
10.690000	5509.380192
10.700000	5750.075378
10.710000	6103.475888
10.720000	6500.679850
10.730000	6920.291387
10.740000	7298.095012
10.750000	7590.764825
10.760000	7854.723593
10.770000	8057.271777
10.780000	8250.201330
10.790000	8555.928545
10.800000	8842.942843
10.810000	9074.478723
10.820000	9098.004841
10.830000	9083.892761
10.840000	9042.944032
10.850000	8966.239858
10.860000	8876.295151
10.870000	8777.868759
10.880000	8745.841027
10.890000	8704.089953
10.900000	8649.599538
10.910000	8591.360728
10.920000	8549.409695
10.930000	8524.939041
10.940000	8472.455516
10.950000	8379.977831
10.960000	8251.919291
10.970000	8047.603476
10.980000	7786.931196
10.990000	7433.460455
11.000000	7161.244945
11.010000	6976.918877
11.020000	6897.653098
11.030000	6807.414386
11.040000	6702.777581
11.050000	6649.845294
11.060000	6640.446517
11.070000	6702.795228
11.080000	6786.656345
11.090000	6849.192394
11.100000	6847.630446
11.110000	6813.561711
11.120000	6796.759486
11.130000	6771.499055
11.140000	6727.376340
11.150000	6618.789095
11.160000	6523.785775
11.170000	6439.647153
11.180000	6429.837016
11.190000	6450.674430
11.200000	6478.409932
11.210000	6476.470139
11.220000	6484.332063
11.230000	6439.796902
11.240000	6292.433431
11.250000	6036.062017
11.260000	5781.342375
11.270000	5612.410769
11.280000	5466.340331
11.290000	5284.266686
11.300000	5077.363033
11.310000	4888.043800
11.320000	4794.321873
11.330000	4721.910586
11.340000	4660.634352
11.350000	4606.976096
11.360000	4508.662875
11.370000	4415.842356
11.380000	4255.207893
11.390000	4295.506432
11.400000	4390.474132
11.410000	4559.154996
11.420000	4669.191011
11.430000	4769.169675
11.440000	4908.782685
11.450000	5034.107465
11.460000	5202.222833
11.470000	5365.303268
11.480000	5485.238312
11.490000	5568.840245
11.500000	5642.527875
11.510000	5682.796077
11.520000	5666.042186
11.530000	5667.918541
11.540000	5800.887254
11.550000	6013.823626
11.560000	6175.078648
11.570000	6245.552593
11.580000	6291.464486
11.590000	6369.495996
11.600000	6458.546069
11.610000	6578.129043
11.620000	6724.811383
11.630000	6867.601787
11.640000	7000.395691
11.650000	7076.883291
11.660000	7168.557911
11.670000	7205.031257
11.680000	7239.985464
11.690000	7275.630786
11.700000	7362.139344
11.710000	7502.363224
11.720000	7626.357726
11.730000	7714.165589
11.740000	7755.871130
11.750000	7787.696880
11.760000	7808.552302
11.770000	7831.204482
11.780000	7853.465266
11.790000	7865.297963
11.800000	7847.294445
11.810000	7825.125014
11.820000	7831.420255
11.830000	7857.116101
11.840000	7895.498730
11.850000	7950.416684
11.860000	8001.124366
11.870000	8068.112746
11.880000	8168.690945
11.890000	8274.634172
11.900000	8377.930827
11.910000	8434.006937
11.920000	8528.146391
11.930000	8633.357553
11.940000	8710.281363
11.950000	8738.046088
11.960000	8727.457528
11.970000	8716.764512
11.980000	8688.101021
11.990000	8627.114251
12.000000	8589.224647
12.010000	8599.001192
12.020000	8608.103347
12.030000	8588.566088
12.040000	8526.977288
12.050000	8498.328957
12.060000	8474.523091
12.070000	8452.114329
12.080000	8419.668142
12.090000	8377.552991
12.100000	8325.431757
12.110000	8275.312302
12.120000	8258.534735
12.130000	8266.581212
12.140000	8251.815430
12.150000	8224.961607
12.160000	8190.362441
12.170000	8172.346670
12.180000	8149.399193
12.190000	8140.123407
12.200000	8184.441765
12.210000	8257.669019
12.220000	8385.233981
12.230000	8467.482043
12.240000	8490.538333
12.250000	8463.633919
12.260000	8483.022560
12.270000	8535.424564
12.280000	8559.312579
12.290000	8559.668165
12.300000	8488.058099
12.310000	8388.432919
12.320000	8202.789493
12.330000	8025.881561
12.340000	7822.760695
12.350000	7561.265564
12.360000	7247.763703
12.370000	6880.885865
12.380000	6470.386328
12.390000	6007.375497
12.400000	5535.070702
12.410000	5070.710465
12.420000	4554.792341
12.430000	3829.688615
12.440000	3079.028579
12.450000	2325.800789
12.460000	1769.322253
12.470000	1365.816306
12.480000	1080.208713
12.490000	1035.833644
12.500000	1502.729360
12.510000	2813.251230
12.520000	4664.732791
12.530000	6373.179539
12.540000	7409.718138
12.550000	7661.470711
12.560000	7190.735986
12.570000	6237.465538
12.580000	4923.977441
12.590000	3867.363597
12.600000	3164.331480
12.610000	2636.712747
12.620000	2320.811484
12.630000	2298.387798
12.640000	2637.117993
12.650000	2699.990008
12.660000	2323.251087
12.670000	1874.575989
12.680000	1465.869929
12.690000	1209.682704
12.700000	1304.574682
12.710000	1839.000721
12.720000	2137.358639
12.730000	1592.348096
12.740000	384.144561
12.750000	-887.983690
12.760000	-1675.374751
12.770000	-1925.179516
12.780000	-1916.978700
12.790000	-2196.948491
12.800000	-3194.438689
12.810000	-4624.602090
12.820000	-6309.708395
12.830000	-7791.670451
12.840000	-8382.534111
12.850000	-7496.876982
12.860000	-5234.099793
12.870000	-2612.134487
12.880000	-298.567121
12.890000	1506.692914
12.900000	2770.220856
12.910000	3515.472231
12.920000	3939.612605
12.930000	4393.130285
12.940000	4918.948167
12.950000	5272.117156
12.960000	5268.902224
12.970000	4714.521578
12.980000	3531.958450
12.990000	2042.462716
13.000000	632.300196
13.010000	-231.603578
13.020000	-502.075842
13.030000	-272.623764
13.040000	11.344822
13.050000	-57.779515
13.060000	-601.356959
13.070000	-1658.286699
13.080000	-3345.854551
13.090000	-5540.716084
13.100000	-7784.684832
13.110000	-9522.132752
13.120000	-10069.420956
13.130000	-9042.298288
13.140000	-6563.478498
13.150000	-3715.698634
13.160000	-1007.225228
13.170000	1378.858201
13.180000	3347.999655
13.190000	4067.112806
13.200000	3343.039440
13.210000	1568.030304
13.220000	-483.485022
13.230000	-2355.543122
13.240000	-3949.275481
13.250000	-5303.114507
13.260000	-6470.062438
13.270000	-7110.232210
13.280000	-6820.637078
13.290000	-5881.857240
13.300000	-4971.601148
13.310000	-4543.166719
13.320000	-4477.964045
13.330000	-4533.106419
13.340000	-4706.628952
13.350000	-4615.307923
13.360000	-4034.039072
13.370000	-2683.005350
13.380000	-798.849125
13.390000	1214.186902
13.400000	2847.067800
13.410000	3851.775654
13.420000	4429.897321
13.430000	4815.796928
13.440000	5011.429095
13.450000	5137.817212
13.460000	5204.658448
13.470000	5309.078971
13.480000	5423.544725
13.490000	5578.162963
13.500000	5624.268477
13.510000	5599.083865
13.520000	5236.483250
13.530000	4723.237340
13.540000	3980.287661
13.550000	3450.140826
13.560000	3368.505954
13.570000	3882.447055
13.580000	5134.021032
13.590000	6802.791181
13.600000	8229.243919
13.610000	7918.143282
13.620000	4861.104862
13.630000	-632.553771
13.640000	-7523.141661
13.650000	-13390.259860
13.660000	-17967.177899
13.670000	-21257.335203
13.680000	-23438.188593
13.690000	-23807.043072
13.700000	-21904.920807
13.710000	-18651.926227
13.720000	-15709.411709
13.730000	-13881.847149
13.740000	-13066.136185
13.750000	-12627.368588
13.760000	-12489.123933
13.770000	-12092.963535
13.780000	-11455.422957
13.790000	-10354.302759
13.800000	-9520.741548
13.810000	-8262.468068
13.820000	-6631.173447
13.830000	-3404.538485
13.840000	689.299039
13.850000	5378.237536
13.860000	8740.166005
13.870000	10697.003795
13.880000	10540.894467
13.890000	7904.185732
13.900000	-6745.154295
13.910000	-11747.026687
13.920000	-16390.601330
13.930000	-20563.579034
13.940000	-22908.021140
13.950000	-23168.241302
13.960000	-23201.661373
13.970000	-23479.847799
13.980000	-23516.087369
13.990000	-21930.084778
14.000000	-19340.421748
14.010000	-16255.437353
14.020000	-13900.477094
14.030000	-12511.156366
14.040000	-12164.514753
14.050000	-12408.172098
14.060000	-12888.239946
14.070000	-13180.745151
14.080000	-13426.933420
14.090000	-12709.492631
14.100000	-13011.006066
14.110000	-13661.367832
14.120000	-14991.908491
14.130000	-15179.737872
14.140000	-14403.050837
14.150000	-12823.805907
14.160000	-10628.000507
14.170000	-8738.303856
14.180000	-7765.164441
14.190000	-7373.274493
14.200000	-6867.074281
14.210000	-6320.759724
14.220000	-5725.153857
14.230000	-5326.677313
14.240000	-4858.552477
14.250000	-4232.812807
14.260000	-3323.237654
14.270000	-2120.993815
14.280000	-882.706484
14.290000	267.803953
14.300000	1364.206507
14.310000	2689.905490
14.320000	4305.126293
14.330000	5903.287914
14.340000	7152.266163
14.350000	7911.154304
14.360000	8219.863264
14.370000	8255.025265
14.380000	8072.091664
14.390000	7619.902565
14.400000	6886.729158
14.410000	5983.753166
14.420000	5206.176004
14.430000	4672.757922
14.440000	4365.888527
14.450000	3988.302912
14.460000	3436.442808
14.470000	2822.083768
14.480000	2332.516950
14.490000	2036.853815
14.500000	1809.705305
14.510000	1613.514819
14.520000	1416.226436
14.530000	1213.571081
14.540000	1020.119512
14.550000	858.303718
14.560000	798.132623
14.570000	924.400898
14.580000	1162.366051
14.590000	1472.253846
14.600000	1963.670708
14.610000	2788.217624
14.620000	3907.115831
14.630000	4946.592529
14.640000	5672.276213
14.650000	6057.538210
14.660000	6289.692182
14.670000	6440.502253
14.680000	6507.908828
14.690000	6530.916862
14.700000	6482.950764
14.710000	6402.850813
14.720000	6195.966617
14.730000	5969.681068
14.740000	5677.903152
14.750000	5487.773291
14.760000	5355.938595
14.770000	5301.381126
14.780000	5227.000273
14.790000	5146.973621
14.800000	5060.366730
14.810000	4913.434581
14.820000	4624.336732
14.830000	4341.208396
14.840000	3997.398484
14.850000	3729.556038
14.860000	3428.801734
14.870000	3269.029922
14.880000	2943.902603
14.890000	1640.128375
14.900000	343.963343
14.910000	-584.475324
14.920000	-409.593424
14.930000	-288.258634
14.940000	-301.175958
14.950000	-387.634768
14.960000	-472.031855
14.970000	-521.107836
14.980000	-565.042323
14.990000	-346.103492
15.000000	-163.562358
15.010000	82.350776
15.020000	162.368123
15.030000	248.929587
15.040000	291.039793
15.050000	340.144945
15.060000	462.775054
15.070000	748.780161
15.080000	1013.111399
15.090000	1249.262174
15.100000	1370.584347
15.110000	1539.786075
15.120000	1690.451953
15.130000	1768.701979
15.140000	1728.365243
15.150000	1690.100863
15.160000	1723.496609
15.170000	1796.245134
15.180000	1875.986641
15.190000	1985.232470
15.200000	2200.985565
15.210000	2414.402117
15.220000	2635.002517
15.230000	2780.345614
15.240000	2903.752262
15.250000	3015.196769
15.260000	3170.655183
15.270000	3345.854442
15.280000	3566.054492
15.290000	3812.418065
15.300000	3912.726299
15.310000	3794.282156
15.320000	3561.244302
15.330000	3479.952106
15.340000	3517.300223
15.350000	3528.341830
15.360000	3532.501125
15.370000	3542.072041
15.380000	3625.215397
15.390000	3686.713283
15.400000	3738.249527
15.410000	3830.153368
15.420000	3941.446941
15.430000	4071.006865
15.440000	4094.999254
15.450000	4130.212878
15.460000	4201.991707
15.470000	4289.315829
15.480000	4329.894705
15.490000	4336.648842
15.500000	4364.937321
15.510000	4436.913250
15.520000	4504.475755
15.530000	4547.943977
15.540000	4590.486263
15.550000	4639.953114
15.560000	4728.583639
15.570000	4804.416911
15.580000	4881.881959
15.590000	4951.833872
15.600000	4983.137076
15.610000	4998.080686
15.620000	5033.781927
15.630000	5126.339568
15.640000	5137.294700
15.650000	5195.345372
15.660000	5173.450654
15.670000	5143.909996
15.680000	5064.970371
15.690000	5058.600313
15.700000	5219.423304
15.710000	5396.958023
15.720000	5547.509028
15.730000	5608.602525
15.740000	5665.003028
15.750000	5771.834964
15.760000	5885.560828
15.770000	6001.507663
15.780000	6132.498897
15.790000	6268.782566
15.800000	6346.952433
15.810000	6421.375695
15.820000	6496.930008
15.830000	6604.699274
15.840000	6610.443782
15.850000	6623.012547
15.860000	6591.171629
15.870000	6624.085130
15.880000	6574.846559
15.890000	6000.326109
15.900000	5289.119437
15.910000	4493.956341
15.920000	4119.944685
15.930000	3778.774058
15.940000	3569.748612
15.950000	3499.307515
15.960000	3458.872135
15.970000	3444.428343
15.980000	3437.921929
15.990000	3476.329786
16.000000	3493.649628
16.010000	3418.842731
16.020000	3345.118350
16.030000	3241.301831
16.040000	3085.230804
16.050000	2879.111344
16.060000	2646.349453
16.070000	2576.656730
16.080000	2496.413737
16.090000	2385.565207
16.100000	2116.789135
16.110000	1822.122831
16.120000	1531.150989
16.130000	1293.333934
16.140000	1128.695243
16.150000	997.642231
16.160000	893.254512
16.170000	761.076250
16.180000	675.755652
16.190000	621.513504
16.200000	612.254241
16.210000	602.701783
16.220000	514.573388
16.230000	408.848074
16.240000	364.849410
16.250000	512.704693
16.260000	702.257365
16.270000	846.300255
16.280000	872.603463
16.290000	844.830353
16.300000	818.486063
16.310000	804.795350
16.320000	731.694028
16.330000	554.386968
16.340000	285.609324
16.350000	55.514662
16.360000	42.200801
16.370000	359.340826
16.380000	1048.467139
16.390000	1890.321293
16.400000	2598.751247
16.410000	3066.325031
16.420000	3345.671605
16.430000	3598.823430
16.440000	3592.029950
16.450000	3196.131637
16.460000	2243.803498
16.470000	1001.816281
16.480000	-574.095632
16.490000	-2369.216714
16.500000	-4220.351805
16.510000	-5802.297503
16.520000	-7239.672092
16.530000	-8349.698512
16.540000	-8890.998421
16.550000	-8543.385843
16.560000	-7414.337863
16.570000	-5545.733855
16.580000	-3776.710177
16.590000	-2310.179830
16.600000	-1624.687149
16.610000	-867.820041
16.620000	-249.433703
16.630000	244.299961
16.640000	484.571670
16.650000	909.117557
16.660000	1279.525995
16.670000	1800.288836
16.680000	1730.685940
16.690000	1867.816726
16.700000	1251.817608
16.710000	506.489429
16.720000	-1666.202901
16.730000	-4229.300550
16.740000	-7572.018632
16.750000	-9437.035274
16.760000	-10387.797642
16.770000	-9346.814318
16.780000	-8427.895156
16.790000	-8276.133008
16.800000	-42477.573643
16.810000	-42666.630932
16.820000	-39090.380480
16.830000	-33077.887465
16.840000	-28516.520667
16.850000	-24735.012169
16.860000	-22344.969408
16.870000	-20306.834907
16.880000	-18900.943623
16.890000	-15639.486572
16.900000	-6285.669294
16.910000	-4403.902080
16.920000	-5073.304942
16.930000	-5409.401505
16.940000	-5453.351975
16.950000	-4870.770622
16.960000	-4290.612633
16.970000	-3476.998692
16.980000	-2945.838945
16.990000	-5740.736560
17.000000	-9111.542981
17.010000	-11911.258588
17.020000	-10844.303615
17.030000	-8490.297697
17.040000	-5801.316918
17.050000	-2975.163936
17.060000	-936.892645
17.070000	751.816655
17.080000	1738.796600
17.090000	2321.016810
17.100000	2283.517005
17.110000	2025.341135
17.120000	1269.151306
17.130000	-242.842033
17.140000	-3073.947530
17.150000	-6502.389116
17.160000	-9638.143915
17.170000	-11446.431060
17.180000	-12390.680456
17.190000	-12735.484794
17.200000	-13048.272640
17.210000	-13226.254165
17.220000	-13351.260826
17.230000	-13495.886159
17.240000	-13680.659663
17.250000	-13889.637194
17.260000	-13913.411844
17.270000	-13500.823655
17.280000	-12421.436364
17.290000	-10379.711959
17.300000	-7627.175900
17.310000	-4676.194223
17.320000	-2349.644167
17.330000	-763.943665
17.340000	65.626221
17.350000	551.945493
17.360000	794.500231
17.370000	1133.628978
17.380000	1312.535394
17.390000	1584.850703
17.400000	1576.985906
17.410000	1789.279195
17.420000	1883.942628
17.430000	2296.641938
17.440000	2398.453651
17.450000	2398.452944
17.460000	1654.107317
17.470000	907.550352
17.480000	-118.888352
17.490000	-3295.948253
17.500000	-9342.674788
17.510000	-11650.918647
17.520000	-11172.741965
17.530000	-10412.747500
17.540000	-9761.844291
17.550000	-8039.095536
17.560000	-6094.358804
17.570000	-4137.184068
17.580000	-3548.922213
17.590000	-4021.795004
17.600000	-4942.472700
17.610000	-5572.553264
17.620000	-6328.350061
17.630000	-6953.283221
17.640000	-7474.825229
17.650000	-7626.688393
17.660000	-7409.847542
17.670000	-6698.556264
17.680000	-5877.413250
17.690000	-5165.776219
17.700000	-4607.634088
17.710000	-3501.416055
17.720000	-1821.509907
17.730000	-43.227559
17.740000	1305.342732
17.750000	1805.804891
17.760000	1622.006490
17.770000	1070.471216
17.780000	424.769400
17.790000	-187.042417
17.800000	-1047.707037
17.810000	-1965.695245
17.820000	-2924.102338
17.830000	-4087.282580
17.840000	-5549.071360
17.850000	-7319.070023
17.860000	-8903.754002
17.870000	-10337.065678
17.880000	-11261.117218
17.890000	-12504.407159
17.900000	-13025.428814
17.910000	-12871.487394
17.920000	-10750.139292
17.930000	-7846.447832
17.940000	-4828.502272
17.950000	-3345.171271
17.960000	-2939.814953
17.970000	-3418.345186
17.980000	-3452.739250
17.990000	-845.887722
18.000000	5996.284327
18.010000	8582.627721
18.020000	8553.382604
18.030000	7827.727296
18.040000	6960.107206
18.050000	5272.739619
18.060000	3546.137467
18.070000	1339.701551
18.080000	-586.561452
18.090000	-860.010847
18.100000	-17.525570
18.110000	1418.298505
18.120000	2066.805853
18.130000	2468.539920
18.140000	2895.725402
18.150000	2952.608156
18.160000	3066.570277
18.170000	3052.662127
18.180000	3168.969208
18.190000	3184.045111
18.200000	3265.139709
18.210000	3251.874378
18.220000	3238.358251
18.230000	3027.923655
18.240000	2829.378672
18.250000	2707.267783
18.260000	2732.109436
18.270000	2663.788837
18.280000	2529.273350
18.290000	1966.276499
18.300000	1537.014990
18.310000	1190.120182
18.320000	1237.130754
18.330000	1236.943463
18.340000	1165.107076
18.350000	1081.383634
18.360000	897.398178
18.370000	612.789908
18.380000	210.704388
18.390000	-271.592056
18.400000	-787.564794
18.410000	-1180.603168
18.420000	-1297.772851
18.430000	-1237.564240
18.440000	-1131.327850
18.450000	-1109.443280
18.460000	-1106.930852
18.470000	-1097.343322
18.480000	-1044.419325
18.490000	-955.940675
18.500000	-817.085971
18.510000	-625.476361
18.520000	-385.338817
18.530000	-170.100726
18.540000	128.678681
18.550000	573.254999
18.560000	944.031772
18.570000	990.972952
18.580000	611.572006
18.590000	137.668585
18.600000	-285.278855
18.610000	-681.311081
18.620000	-971.721171
18.630000	-1141.336143
18.640000	-1186.730548
18.650000	-1206.172535
18.660000	-1067.636647
18.670000	-565.667032
18.680000	201.098379
18.690000	896.999945
18.700000	1142.528241
18.710000	1033.457065
18.720000	824.548983
18.730000	762.382036
18.740000	792.569552
18.750000	791.278829
18.760000	761.436944
18.770000	709.353016
18.780000	753.449802
18.790000	986.196217
18.800000	1340.534227
18.810000	1700.083083
18.820000	2047.405618
18.830000	2409.944496
18.840000	2783.377102
18.850000	3119.876469
18.860000	3478.835818
18.870000	3891.927729
18.880000	4228.379784
18.890000	4424.363576
18.900000	4515.065702
18.910000	4559.403859
18.920000	4539.081363
18.930000	4488.800723
18.940000	4487.431852
18.950000	4525.838537
18.960000	4557.230702
18.970000	4611.307298
18.980000	4717.251393
18.990000	4879.600658
19.000000	4974.480680
19.010000	5041.907750
19.020000	5161.050036
19.030000	5274.073335
19.040000	5426.139270
19.050000	5460.590447
19.060000	5522.632245
19.070000	5547.775048
19.080000	5573.985469
19.090000	5613.135536
19.100000	5642.158967
19.110000	5730.334534
19.120000	5806.199393
19.130000	5930.819590
19.140000	6012.410596
19.150000	6132.372738
19.160000	6215.786680
19.170000	6335.928900
19.180000	6372.896552
19.190000	6284.297336
19.200000	6119.191969
19.210000	5913.900077
19.220000	5800.019939
19.230000	5713.237119
19.240000	5706.443706
19.250000	5697.144309
19.260000	5732.500337
19.270000	5806.516968
19.280000	5946.260584
19.290000	6099.619614
19.300000	6238.034248
19.310000	6360.080089
19.320000	6412.617036
19.330000	6402.658104
19.340000	6378.600265
19.350000	6332.368874
19.360000	6340.437947
19.370000	6432.574594
19.380000	6662.298396
19.390000	6946.028875
19.400000	7154.659803
19.410000	7316.208212
19.420000	7437.256638
19.430000	7548.415260
19.440000	7633.019388
19.450000	7661.215837
19.460000	7662.575715
19.470000	7600.465507
19.480000	7561.769408
19.490000	7529.394850
19.500000	7455.176766
19.510000	7458.082619
19.520000	7495.439881
19.530000	7512.035942
19.540000	7409.217248
19.550000	7276.807352
19.560000	7214.656049
19.570000	7118.652563
19.580000	7008.736275
19.590000	7128.412532
19.600000	7334.388142
19.610000	7539.627614
19.620000	7516.955573
19.630000	7469.992872
19.640000	7477.814338
19.650000	7527.070757
19.660000	7605.976896
19.670000	7648.966733
19.680000	7743.859469
19.690000	7845.462325
19.700000	7967.200815
19.710000	8055.404189
19.720000	8132.046551
19.730000	8199.254183
19.740000	8263.867177
19.750000	8309.000206
19.760000	8321.658884
19.770000	8313.105728
19.780000	8308.781503
19.790000	8358.903650
19.800000	8286.904580
19.810000	8181.719743
19.820000	8018.670111
19.830000	7857.387411
19.840000	7603.297565
19.850000	7241.224014
19.860000	6848.461886
19.870000	6463.903335
19.880000	6086.128945
19.890000	5409.692969
19.900000	4787.548203
19.910000	4257.225272
19.920000	4041.751050
19.930000	3772.739070
19.940000	3495.694922
19.950000	3340.754577
19.960000	3285.153110
19.970000	3258.572057
19.980000	3207.922828
19.990000	3122.769165
20.000000	3038.746484
20.010000	2994.232768
20.020000	2929.223767
20.030000	2839.772371
20.040000	2658.112642
20.050000	2495.054144
20.060000	2323.539360
20.070000	2213.851230
20.080000	2155.657396
20.090000	2226.801324
20.100000	2284.745710
20.110000	2274.231435
20.120000	2084.921099
20.130000	1602.553825
20.140000	641.133874
20.150000	-587.131000
20.160000	-1563.915483
20.170000	-2049.352205
20.180000	-2281.049835
20.190000	-2586.596103
20.200000	-2822.668334
20.210000	-2853.640642
20.220000	-2957.871987
20.230000	-3209.908772
20.240000	-3079.198982
20.250000	-1952.069120
20.260000	-350.099765
20.270000	185.178240
20.280000	-817.854726
20.290000	-3067.271873
20.300000	-5734.933387
20.310000	-8333.121927
20.320000	-10548.624756
20.330000	-12191.445592
20.340000	-13455.507495
20.350000	-13999.103338
20.360000	-13492.897695
20.370000	-11419.385913
20.380000	-7998.456269
20.390000	-3675.097824
20.400000	363.133284
20.410000	2966.146246
20.420000	3705.891182
20.430000	2996.554250
20.440000	2045.009045
20.450000	1418.052459
20.460000	1287.890109
20.470000	1345.407735
20.480000	1560.047358
20.490000	2045.669494
20.500000	2745.578029
20.510000	3214.036626
20.520000	3019.319769
20.530000	1958.202608
20.540000	486.708757
20.550000	-919.742930
20.560000	-2015.700039
20.570000	-2870.386961
20.580000	-3642.523555
20.590000	-4373.211552
20.600000	-5037.671074
20.610000	-5773.321242
20.620000	-6778.159210
20.630000	-8362.581809
20.640000	-10508.254514
20.650000	-12719.709796
20.660000	-14714.112858
20.670000	-16184.284339
20.680000	-17278.402946
20.690000	-17734.581233
20.700000	-17625.461266
20.710000	-16876.991998
20.720000	-15248.913771
20.730000	-12332.457771
20.740000	-8087.229579
20.750000	-3427.062889
20.760000	39.360796
20.770000	1624.008431
20.780000	1747.142860
20.790000	1480.015280
20.800000	1213.537061
20.810000	953.444818
20.820000	895.934823
20.830000	1126.383607
20.840000	1691.038575
20.850000	2371.074308
20.860000	3178.589687
20.870000	3944.747640
20.880000	4529.031294
20.890000	4646.503462
20.900000	4206.151096
20.910000	3236.399289
20.920000	1862.013829
20.930000	380.915363
20.940000	-1207.131360
20.950000	-2773.737992
20.960000	-3858.554519
20.970000	-4088.822001
20.980000	-3641.009923
20.990000	-3140.997743
21.000000	-2820.908197
21.010000	-2633.597750
21.020000	-2680.071580
21.030000	-3200.104001
21.040000	-4182.738296
21.050000	-5299.931531
21.060000	-5755.979566
21.070000	-5110.928658
21.080000	-3171.758341
21.090000	-214.740768
21.100000	3244.947285
21.110000	6649.470483
21.120000	9705.185683
21.130000	12525.272853
21.140000	15014.993326
21.150000	17125.675227
21.160000	18559.255903
21.170000	19073.035898
21.180000	18030.241927
21.190000	15540.919684
21.200000	12068.336026
21.210000	7837.285647
21.220000	2951.567436
21.230000	-1763.230568
21.240000	-5618.108575
21.250000	-8025.558806
21.260000	-9229.268447
21.270000	-9957.753877
21.280000	-10298.537240
21.290000	-10843.537967
21.300000	-11407.542700
21.310000	-12364.730325
21.320000	-12656.485402
21.330000	-11778.986246
21.340000	-9832.627933
21.350000	-7717.980656
21.360000	-5894.767435
21.370000	-4263.647664
21.380000	-2816.365483
21.390000	-1387.090487
21.400000	-83.590465
21.410000	1006.312479
21.420000	1729.128355
21.430000	2148.435629
21.440000	2195.273625
21.450000	2149.306594
21.460000	2020.802400
21.470000	1896.176581
21.480000	1591.712220
21.490000	1177.198921
21.500000	424.258929
21.510000	-554.052063
21.520000	-1515.049689
21.530000	-2063.094573
21.540000	-2289.574522
21.550000	-2911.734862
21.560000	-4103.151851
21.570000	-4646.434039
21.580000	-3020.441073
21.590000	740.046984
21.600000	4709.864440
21.610000	6957.296686
21.620000	6821.112603
21.630000	5078.282839
21.640000	3150.918799
21.650000	1492.394132
21.660000	-389.419663
21.670000	-2972.670910
21.680000	-5703.471936
21.690000	-7651.918544
21.700000	-8426.552062
21.710000	-7407.755415
21.720000	-4546.749474
21.730000	-548.211316
21.740000	3035.842764
21.750000	4938.900433
21.760000	4730.848962
21.770000	3027.334383
21.780000	1025.903204
21.790000	-2038.505796
21.800000	-4056.698715
21.810000	-5243.279157
21.820000	-3794.641669
21.830000	-1842.411941
21.840000	524.808894
21.850000	2158.325741
21.860000	2199.504797
21.870000	-209.151552
21.880000	-4220.669368
21.890000	-3867.541127
21.900000	-1282.635445
21.910000	423.650367
21.920000	-1400.712812
21.930000	-2969.753738
21.940000	-4101.765063
21.950000	-4758.102816
21.960000	-3921.682015
21.970000	-1785.995568
21.980000	1173.407640
21.990000	4445.796387
22.000000	8038.367877
22.010000	12331.728699
22.020000	16387.486823
22.030000	20007.141240
22.040000	21927.796943
22.050000	23088.716569
22.060000	22794.063534
22.070000	22604.937669
22.080000	21406.426574
22.090000	19109.749629
22.100000	-11287.656286
22.110000	-15558.976684
22.120000	-16564.432013
22.130000	-14324.878962
22.140000	-12255.604671
22.150000	-9880.653803
22.160000	-8346.460948
22.170000	-6378.674753
22.180000	-5006.205601
22.190000	-3419.542561
22.200000	-2133.150091
22.210000	-507.805640
22.220000	849.919292
22.230000	2336.454484
22.240000	3373.078250
22.250000	4549.691733
22.260000	5349.965775
22.270000	6253.764826
22.280000	6645.610699
22.290000	6908.345137
22.300000	6848.437208
22.310000	6808.829555
22.320000	6684.797438
22.330000	6737.414526
22.340000	6844.533529
22.350000	7027.487821
22.360000	6995.171520
22.370000	7013.851104
22.380000	6989.578318
22.390000	7057.266803
22.400000	6923.230721
22.410000	6788.797122
22.420000	6628.012777
22.430000	6627.330216
22.440000	6596.511728
22.450000	6645.772102
22.460000	6526.440582
22.470000	6448.554798
22.480000	6214.663119
22.490000	5250.046093
22.500000	4185.941237
22.510000	3247.497197
22.520000	3161.671243
22.530000	3057.631929
22.540000	2695.872389
22.550000	2300.776330
22.560000	1838.431378
22.570000	1544.727398
22.580000	1148.996386
22.590000	248.711965
22.600000	-708.710191
22.610000	-1498.856987
22.620000	-1672.408413
22.630000	-1722.291601
22.640000	-1728.585426
22.650000	-1442.437149
22.660000	-1077.314921
22.670000	-636.289142
22.680000	-288.787277
22.690000	141.855193
22.700000	500.205714
22.710000	753.044389
22.720000	863.563092
22.730000	850.425230
22.740000	822.539334
22.750000	871.795365
22.760000	1118.294127
22.770000	1395.410748
22.780000	1668.776621
22.790000	2302.149076
22.800000	2936.635437
22.810000	3479.644950
22.820000	3477.527013
22.830000	3440.143249
22.840000	3404.139876
22.850000	3377.248059
22.860000	3349.387978
22.870000	3279.951390
22.880000	3270.373439
22.890000	3311.696914
22.900000	3509.349944
22.910000	3742.161736
22.920000	3988.940825
22.930000	4181.502014
22.940000	4378.549472
22.950000	4557.954233
22.960000	4670.081204
22.970000	4752.642976
22.980000	4831.575159
22.990000	4892.212701
23.000000	4934.767033
23.010000	4849.134361
23.020000	4821.759492
23.030000	4780.997725
23.040000	4763.364028
23.050000	4658.771186
23.060000	4493.988249
23.070000	4360.363504
23.080000	4234.937658
23.090000	4127.348791
23.100000	4091.309159
23.110000	4123.810238
23.120000	4169.833976
23.130000	4246.429977
23.140000	4344.578374
23.150000	4578.343097
23.160000	4732.036518
23.170000	4912.759629
23.180000	4946.336351
23.190000	5012.760514
23.200000	5084.675608
23.210000	5257.036896
23.220000	5400.000931
23.230000	5471.154137
23.240000	5564.632559
23.250000	5654.871041
23.260000	5770.672412
23.270000	5820.847711
23.280000	5872.065563
23.290000	5871.412698
23.300000	5864.643463
23.310000	5922.958283
23.320000	6018.189402
23.330000	6118.063769
23.340000	6146.182167
23.350000	6127.679623
23.360000	6002.836807
23.370000	5883.658798
23.380000	5849.289553
23.390000	5877.243858
23.400000	5895.822098
23.410000	5878.497878
23.420000	5758.117826
23.430000	5580.934654
23.440000	5199.749977
23.450000	4880.704219
23.460000	4463.738802
23.470000	4075.451406
23.480000	3533.064545
23.490000	2146.321051
23.500000	871.090745
23.510000	-155.549333
23.520000	-211.771890
23.530000	-171.300663
23.540000	-158.411842
23.550000	-70.267691
23.560000	-30.517090
23.570000	75.573032
23.580000	92.451237
23.590000	80.485642
23.600000	36.386490
23.610000	107.951242
23.620000	235.552967
23.630000	382.276401
23.640000	497.140908
23.650000	705.208081
23.660000	905.560766
23.670000	1117.251424
23.680000	1305.945720
23.690000	1567.761021
23.700000	1851.028951
23.710000	2169.550831
23.720000	2425.234793
23.730000	2599.986489
23.740000	2611.018593
23.750000	2612.157163
23.760000	2658.278576
23.770000	2743.571911
23.780000	2807.127433
23.790000	2909.723861
23.800000	3010.429326
23.810000	3141.806125
23.820000	3226.152875
23.830000	3415.907683
23.840000	3559.758695
23.850000	3706.270750
23.860000	3756.668332
23.870000	3852.665450
23.880000	3901.300449
23.890000	3954.153412
23.900000	3960.677541
23.910000	3990.994123
23.920000	3895.468209
23.930000	3872.470278
23.940000	3788.021453
23.950000	3866.936372
23.960000	3824.508806
23.970000	3874.433947
23.980000	3745.322103
23.990000	3728.129972
24.000000	3630.457379
24.010000	3864.799220
24.020000	4034.678172
24.030000	4579.400325
24.040000	4993.602881
24.050000	5803.461995
24.060000	6342.541506
24.070000	7234.685819
24.080000	7648.095813
24.090000	4794.157910
24.100000	2058.620661
24.110000	430.804800
24.120000	3506.975099
24.130000	6462.593942
24.140000	7635.935240
24.150000	6377.076088
24.160000	4169.998832
24.170000	2706.032048
24.180000	1734.294084
24.190000	942.380189
24.200000	-60.737060
24.210000	-706.752200
24.220000	-1660.274873
24.230000	-2888.093309
24.240000	-4883.054510
24.250000	-7011.809815
24.260000	-9018.344026
24.270000	-10091.814177
24.280000	-10098.309371
24.290000	-9072.770353
24.300000	-7380.006851
24.310000	-5296.648477
24.320000	-3762.695100
24.330000	-3233.702730
24.340000	-4108.405187
24.350000	-5830.984327
24.360000	-8066.575731
24.370000	-10262.860058
24.380000	-11741.930490
24.390000	-11671.512000
24.400000	-9934.453904
24.410000	-7097.584638
24.420000	-3982.556825
24.430000	-1337.672889
24.440000	459.804850
24.450000	1218.858510
24.460000	1090.543458
24.470000	803.075148
24.480000	474.368473
24.490000	311.628952
24.500000	169.646750
24.510000	12.901160
24.520000	-195.666126
24.530000	-579.321069
24.540000	-1131.885199
24.550000	-1901.291040
24.560000	-3252.912664
24.570000	-5165.807195
24.580000	-7313.712816
24.590000	-9209.831039
24.600000	-10456.376712
24.610000	-11097.023916
24.620000	-10904.924678
24.630000	-10198.010635
24.640000	-9218.566191
24.650000	-8724.384912
24.660000	-9001.888342
24.670000	-10165.599251
24.680000	-11988.588374
24.690000	-13957.345626
24.700000	-15352.712776
24.710000	-15841.143620
24.720000	-15696.501202
24.730000	-15040.856897
24.740000	-14192.162855
24.750000	-13233.931097
24.760000	-12218.412990
24.770000	-10616.084507
24.780000	-7735.565016
24.790000	-4550.827648
24.800000	-2394.052471
24.810000	-2237.269023
24.820000	-3744.303388
24.830000	-5845.722091
24.840000	-8095.294040
24.850000	-9842.979169
24.860000	-11148.266273
24.870000	-12494.435332
24.880000	-13836.825834
24.890000	-14204.386625
24.900000	-13270.864678
24.910000	-11674.029325
24.920000	-10700.063352
24.930000	-10269.635637
24.940000	-10400.243850
24.950000	-10834.203727
24.960000	-10859.562561
24.970000	-9997.131927
24.980000	-8498.945277
24.990000	-6974.432172
25.000000	-5974.559237
25.010000	-5307.084288
25.020000	-4616.452419
25.030000	-3833.585591
25.040000	-2981.328313
25.050000	-2572.163150
25.060000	-2603.187924
25.070000	-3171.749789
25.080000	-3999.751212
25.090000	-4671.360770
25.100000	-5129.035624
25.110000	-5497.878187
25.120000	-6133.358580
25.130000	-6796.168825
25.140000	-7459.004946
25.150000	-7898.329212
25.160000	-8242.360378
25.170000	-8482.524335
25.180000	-8607.118456
25.190000	-9455.134602
25.200000	-10405.278418
25.210000	-11478.254804
25.220000	-11702.125885
25.230000	-11134.951687
25.240000	-8844.000222
25.250000	-4485.347635
25.260000	689.327497
25.270000	4494.943658
25.280000	5437.470573
25.290000	4017.965039
25.300000	1977.268991
25.310000	606.668250
25.320000	-101.584211
25.330000	-689.513349
25.340000	-1470.226367
25.350000	-2543.527107
25.360000	-3842.161345
25.370000	-5124.480506
25.380000	-5871.085709
25.390000	-6341.325304
25.400000	-6683.457701
25.410000	-7006.147632
25.420000	-7255.803812
25.430000	-7823.611456
25.440000	-8531.339270
25.450000	-9147.348578
25.460000	-8295.484524
25.470000	-5937.513625
25.480000	-2289.080171
25.490000	199.764766
25.500000	884.864816
25.510000	-460.562998
25.520000	-1960.500302
25.530000	-3956.734177
25.540000	-6115.093995
25.550000	-9645.564722
25.560000	-12495.143597
25.570000	-15229.338170
25.580000	-16119.977361
25.590000	-15389.102123
25.600000	7358.100549
25.610000	9390.745312
25.620000	10032.665808
25.630000	9685.670231
25.640000	9825.281242
25.650000	9331.720448
25.660000	9177.229892
25.670000	8380.994213
25.680000	7658.759763
25.690000	6194.649744
25.700000	4466.431487
25.710000	1990.253111
25.720000	-235.235793
25.730000	-2230.687080
25.740000	-3515.603776
25.750000	-4687.665550
25.760000	-5503.404967
25.770000	-5913.587454
25.780000	-5464.504981
25.790000	-4741.104926
25.800000	-3835.661036
25.810000	-3310.990337
25.820000	-2647.920536
25.830000	-1948.991500
25.840000	-910.471963
25.850000	-63.025098
25.860000	509.129176
25.870000	850.889405
25.880000	1268.375006
25.890000	1825.399380
25.900000	2473.574066
25.910000	2989.691012
25.920000	3480.608555
25.930000	3895.478751
25.940000	4422.562733
25.950000	5020.231715
25.960000	5802.207212
25.970000	6653.954999
25.980000	7547.687448
25.990000	8210.937310
26.000000	8763.509659
26.010000	9142.014499
26.020000	9682.360028
26.030000	10205.609111
26.040000	10735.364812
26.050000	11119.987105
26.060000	11544.893232
26.070000	12027.167091
26.080000	12743.457285
26.090000	14485.968096
26.100000	15980.609351
26.110000	16887.932224
26.120000	16462.575332
26.130000	15912.857027
26.140000	15503.543716
26.150000	14995.657958
26.160000	14579.951074
26.170000	14047.619068
26.180000	13557.290670
26.190000	12974.028980
26.200000	12396.191421
26.210000	11686.376964
26.220000	10828.676585
26.230000	9856.776943
26.240000	8903.681952
26.250000	7916.578894
26.260000	7007.717856
26.270000	6084.727475
26.280000	5384.565003
26.290000	4818.887344
26.300000	4531.285250
26.310000	4394.871697
26.320000	4399.892512
26.330000	4313.807351
26.340000	4076.868769
26.350000	3737.599294
26.360000	3623.501333
26.370000	3625.413102
26.380000	3522.713399
26.390000	2913.278445
26.400000	2068.991111
26.410000	1040.414725
26.420000	336.738302
26.430000	-159.963910
26.440000	-407.870579
26.450000	-966.123633
26.460000	-1609.792111
26.470000	-2334.357234
26.480000	-2484.730963
26.490000	-2629.090430
26.500000	-3077.770406
26.510000	-5220.933851
26.520000	-9019.363947
26.530000	-14759.861844
26.540000	-22268.272596
26.550000	-29075.916634
26.560000	-32654.948411
26.570000	-33775.940854
26.580000	-33402.657301
26.590000	-30911.118718
26.600000	-20578.717283
26.610000	-17239.905508
26.620000	-15622.289220
26.630000	-14523.643947
26.640000	-12753.396141
26.650000	-11327.274908
26.660000	-9655.593600
26.670000	-8737.770839
26.680000	-7747.945199
26.690000	-5855.755461
26.700000	-3932.471760
26.710000	-2593.873203
26.720000	-2611.928992
26.730000	-2733.263342
26.740000	-2428.209229
26.750000	-2184.951145
26.760000	-1779.702798
26.770000	-1651.962932
26.780000	-1438.159625
26.790000	-956.857963
