Time(s)	GREEN_denoised_wiener
0.000000	771.487700
0.010000	1134.009096
0.020000	1059.597716
0.030000	927.183153
0.040000	718.173888
0.050000	460.693882
0.060000	179.613521
0.070000	-102.933146
0.080000	-378.450520
0.090000	-627.666098
0.100000	-815.943862
0.110000	-921.575360
0.120000	-977.731373
0.130000	-1017.965075
0.140000	-1035.556966
0.150000	-1040.552148
0.160000	-1021.811635
0.170000	-1022.779003
0.180000	-1033.746118
0.190000	-1037.480250
0.200000	-1026.538470
0.210000	-1001.704320
0.220000	-987.565670
0.230000	-971.999596
0.240000	-970.175764
0.250000	-955.022675
0.260000	-929.381049
0.270000	-894.222868
0.280000	-868.152882
0.290000	-854.902860
0.300000	-821.346658
0.310000	-761.850725
0.320000	-689.787513
0.330000	-635.709833
0.340000	-597.672337
0.350000	-555.387626
0.360000	-494.779113
0.370000	-422.663524
0.380000	-348.770433
0.390000	-295.519975
0.400000	-268.263054
0.410000	-275.936942
0.420000	-297.894229
0.430000	-318.255962
0.440000	-368.212786
0.450000	-420.307810
0.460000	-460.130222
0.470000	-481.280515
0.480000	-515.721008
0.490000	-560.728404
0.500000	-574.109635
0.510000	-543.166007
0.520000	-495.520168
0.530000	-456.176700
0.540000	-431.796381
0.550000	-413.062016
0.560000	-379.629926
0.570000	-330.590767
0.580000	-280.431587
0.590000	-237.029627
0.600000	-208.163673
0.610000	-183.351459
0.620000	-164.532100
0.630000	-155.950945
0.640000	-157.829890
0.650000	-165.814033
0.660000	-184.096422
0.670000	-238.684726
0.680000	-292.473054
0.690000	-353.298058
0.700000	-401.061248
0.710000	-480.379844
0.720000	-572.435000
0.730000	-670.791177
0.740000	-779.468749
0.750000	-881.110817
0.760000	-991.563117
0.770000	-1080.943350
0.780000	-1174.783899
0.790000	-1257.305685
0.800000	-1326.688667
0.810000	-1385.996118
0.820000	-1439.246443
0.830000	-1498.360998
0.840000	-1567.772070
0.850000	-1637.009039
0.860000	-1711.668250
0.870000	-1780.940764
0.880000	-1844.256937
0.890000	-1906.220047
0.900000	-1955.470753
0.910000	-1995.879073
0.920000	-2036.706222
0.930000	-2081.531591
0.940000	-2136.961340
0.950000	-2200.171772
0.960000	-2248.176860
0.970000	-2299.276661
0.980000	-2343.334441
0.990000	-2381.434708
1.000000	-2436.910960
1.010000	-2475.126845
1.020000	-2506.640380
1.030000	-2531.153382
1.040000	-2555.422159
1.050000	-2615.294888
1.060000	-2656.994909
1.070000	-2705.692411
1.080000	-2740.816581
1.090000	-2779.904505
1.100000	-2823.637196
1.110000	-2856.786795
1.120000	-2870.858828
1.130000	-2852.038946
1.140000	-2850.308752
1.150000	-2844.818206
1.160000	-2839.884683
1.170000	-2804.893616
1.180000	-2781.051832
1.190000	-2789.643438
1.200000	-2800.809469
1.210000	-2791.478000
1.220000	-2753.342215
1.230000	-2705.457375
1.240000	-2661.264292
1.250000	-2628.159975
1.260000	-2607.243952
1.270000	-2583.895984
1.280000	-2542.967100
1.290000	-2506.814954
1.300000	-2465.683648
1.310000	-2430.875005
1.320000	-2399.111691
1.330000	-2350.308705
1.340000	-2296.382367
1.350000	-2230.112833
1.360000	-2188.198219
1.370000	-2156.871123
1.380000	-2130.463959
1.390000	-2117.430695
1.400000	-2117.469656
1.410000	-2104.351224
1.420000	-2078.649289
1.430000	-2059.758567
1.440000	-2045.205439
1.450000	-2029.261661
1.460000	-1997.844764
1.470000	-1968.960426
1.480000	-1937.195379
1.490000	-1907.464564
1.500000	-1886.663152
1.510000	-1870.049829
1.520000	-1848.232596
1.530000	-1810.413690
1.540000	-1760.292315
1.550000	-1704.236661
1.560000	-1656.159178
1.570000	-1611.128934
1.580000	-1539.079350
1.590000	-1418.167418
1.600000	-1275.926699
1.610000	-1126.294714
1.620000	-968.527797
1.630000	-796.201722
1.640000	-605.599547
1.650000	-442.709697
1.660000	-315.699759
1.670000	-223.659633
1.680000	-139.195343
1.690000	-47.112404
1.700000	23.383248
1.710000	73.379606
1.720000	94.128520
1.730000	108.484231
1.740000	123.020344
1.750000	139.097927
1.760000	173.810886
1.770000	198.440083
1.780000	226.904944
1.790000	236.533594
1.800000	252.982374
1.810000	283.091507
1.820000	309.842469
1.830000	330.201466
1.840000	334.864419
1.850000	343.903292
1.860000	353.664492
1.870000	365.460815
1.880000	368.940016
1.890000	373.913306
1.900000	376.014951
1.910000	391.927382
1.920000	403.162487
1.930000	416.177928
1.940000	428.786319
1.950000	418.538280
1.960000	421.401468
1.970000	421.586092
1.980000	434.931848
1.990000	425.318289
2.000000	393.389039
2.010000	356.922115
2.020000	302.918331
2.030000	251.438774
2.040000	199.204274
2.050000	159.152791
2.060000	123.250824
2.070000	74.993802
2.080000	42.234855
2.090000	-0.497275
2.100000	-33.176395
2.110000	-86.315351
2.120000	-141.977377
2.130000	-186.669716
2.140000	-222.680397
2.150000	-259.236447
2.160000	-308.920552
2.170000	-351.241531
2.180000	-375.718669
2.190000	-390.830428
2.200000	-420.759597
2.210000	-466.556737
2.220000	-512.289423
2.230000	-549.507068
2.240000	-572.364472
2.250000	-591.709237
2.260000	-617.978972
2.270000	-635.046938
2.280000	-680.951980
2.290000	-711.369402
2.300000	-736.620631
2.310000	-753.200678
2.320000	-784.912301
2.330000	-851.570242
2.340000	-905.903509
2.350000	-977.034637
2.360000	-1045.313647
2.370000	-1127.820671
2.380000	-1192.143139
2.390000	-1249.950928
2.400000	-1314.200496
2.410000	-1362.877310
2.420000	-1416.935882
2.430000	-1447.227253
2.440000	-1482.058068
2.450000	-1493.987550
2.460000	-1499.866508
2.470000	-1500.937376
2.480000	-1497.238488
2.490000	-1486.114424
2.500000	-1469.191280
2.510000	-1465.242041
2.520000	-1471.656561
2.530000	-1496.638316
2.540000	-1507.917365
2.550000	-1507.035192
2.560000	-1483.052667
2.570000	-1456.762368
2.580000	-1434.726387
2.590000	-1399.335004
2.600000	-1371.418541
2.610000	-1334.385376
2.620000	-1336.202852
2.630000	-1328.420081
2.640000	-1315.382294
2.650000	-1285.328301
2.660000	-1263.248049
2.670000	-1259.449182
2.680000	-1254.285459
2.690000	-1254.564241
2.700000	-1248.193403
2.710000	-1245.330434
2.720000	-1238.309993
2.730000	-1233.059124
2.740000	-1229.001443
2.750000	-1229.057690
2.760000	-1230.605481
2.770000	-1234.661600
2.780000	-1239.130513
2.790000	-1236.848651
2.800000	-1216.575588
2.810000	-1207.077660
2.820000	-1189.823663
2.830000	-1186.350449
2.840000	-1167.199551
2.850000	-1127.292214
2.860000	-1084.240579
2.870000	-1040.462523
2.880000	-1025.293265
2.890000	-1006.736220
2.900000	-986.043215
2.910000	-973.976081
2.920000	-975.718649
2.930000	-991.477161
2.940000	-999.943964
2.950000	-1003.987689
2.960000	-1000.764036
2.970000	-1001.147071
2.980000	-1015.193761
2.990000	-1037.877639
3.000000	-1057.886212
3.010000	-1032.469222
3.020000	-960.307181
3.030000	-871.428988
3.040000	-805.370360
3.050000	-768.581327
3.060000	-741.646617
3.070000	-724.738918
3.080000	-736.926888
3.090000	-773.450502
3.100000	-816.792214
3.110000	-846.107024
3.120000	-870.026554
3.130000	-894.043618
3.140000	-923.884194
3.150000	-973.626440
3.160000	-1022.937901
3.170000	-1094.618925
3.180000	-1168.498724
3.190000	-1245.628775
3.200000	-1325.682103
3.210000	-1413.613397
3.220000	-1537.556659
3.230000	-1662.719943
3.240000	-1786.147308
3.250000	-1898.437996
3.260000	-2008.752024
3.270000	-2121.105544
3.280000	-2223.610536
3.290000	-2326.465074
3.300000	-2406.676370
3.310000	-2477.890870
3.320000	-2540.338123
3.330000	-2611.664390
3.340000	-2695.929553
3.350000	-2769.663045
3.360000	-2826.201633
3.370000	-2860.300473
3.380000	-2898.529678
3.390000	-2946.515981
3.400000	-2994.117019
3.410000	-3034.042247
3.420000	-3072.377657
3.430000	-3115.205342
3.440000	-3175.628012
3.450000	-3238.929375
3.460000	-3309.234353
3.470000	-3362.881530
3.480000	-3406.227764
3.490000	-3447.142626
3.500000	-3484.835652
3.510000	-3534.753369
3.520000	-3584.338441
3.530000	-3621.002587
3.540000	-3650.530309
3.550000	-3699.614549
3.560000	-3780.654914
3.570000	-3886.812318
3.580000	-3984.344239
3.590000	-4076.082430
3.600000	-4159.992004
3.610000	-4244.018318
3.620000	-4307.532853
3.630000	-4363.016549
3.640000	-4391.959803
3.650000	-4427.460865
3.660000	-4451.884846
3.670000	-4486.649610
3.680000	-4526.373154
3.690000	-4565.474360
3.700000	-4609.528305
3.710000	-4654.909663
3.720000	-4699.991026
3.730000	-4735.291710
3.740000	-4761.783638
3.750000	-4789.666458
3.760000	-4821.187909
3.770000	-4847.644071
3.780000	-4860.224249
3.790000	-4818.834178
3.800000	-4788.513788
3.810000	-4781.843969
3.820000	-4839.844500
3.830000	-4887.497385
3.840000	-4923.338802
3.850000	-4959.816449
3.860000	-4994.752884
3.870000	-5032.779978
3.880000	-5060.074488
3.890000	-5102.142154
3.900000	-5141.567885
3.910000	-5180.179213
3.920000	-5213.331193
3.930000	-5249.539062
3.940000	-5283.675933
3.950000	-5306.505417
3.960000	-5318.664445
3.970000	-5338.134891
3.980000	-5367.224177
3.990000	-5403.364006
4.000000	-5440.051528
4.010000	-5479.895264
4.020000	-5516.463161
4.030000	-5558.074776
4.040000	-5587.744954
4.050000	-5609.918031
4.060000	-5626.289270
4.070000	-5622.318590
4.080000	-5622.875510
4.090000	-5626.579149
4.100000	-5668.826578
4.110000	-5724.936862
4.120000	-5780.399388
4.130000	-5838.936739
4.140000	-5903.894822
4.150000	-5969.834351
4.160000	-6016.603214
4.170000	-6056.739915
4.180000	-6097.881069
4.190000	-6137.197719
4.200000	-6186.778900
4.210000	-6235.502089
4.220000	-6297.654783
4.230000	-6350.276989
4.240000	-6389.152847
4.250000	-6433.351033
4.260000	-6474.140869
4.270000	-6514.354226
4.280000	-6523.933658
4.290000	-6506.676503
4.300000	-6485.669820
4.310000	-6476.867166
4.320000	-6492.614930
4.330000	-6517.197113
4.340000	-6553.157350
4.350000	-6581.345392
4.360000	-6622.350882
4.370000	-6664.611335
4.380000	-6710.786753
4.390000	-6768.758821
4.400000	-6812.326765
4.410000	-6862.898663
4.420000	-6917.993226
4.430000	-7004.976304
4.440000	-7113.408721
4.450000	-7213.517383
4.460000	-7323.135141
4.470000	-7429.819063
4.480000	-7542.093107
4.490000	-7641.885147
4.500000	-7733.279495
4.510000	-7825.462880
4.520000	-7896.207253
4.530000	-7970.327444
4.540000	-8040.200130
4.550000	-8126.754515
4.560000	-8204.211963
4.570000	-8268.050319
4.580000	-8341.774180
4.590000	-8421.741305
4.600000	-8507.143544
4.610000	-8560.794641
4.620000	-8589.091058
4.630000	-8576.910115
4.640000	-8560.630676
4.650000	-8509.287297
4.660000	-8454.451366
4.670000	-8360.585385
4.680000	-8275.268096
4.690000	-8171.442044
4.700000	-8113.428462
4.710000	-8041.713611
4.720000	-8024.022317
4.730000	-7982.999663
4.740000	-8003.470122
4.750000	-8036.990369
4.760000	-8153.642937
4.770000	-8296.360055
4.780000	-8519.512056
4.790000	-8978.058215
4.800000	-9476.465973
4.810000	-9953.835469
4.820000	-10374.527057
4.830000	-10883.474886
4.840000	-11473.531662
4.850000	-11897.143519
4.860000	-12227.100513
4.870000	-11551.787624
4.880000	-9966.107799
4.890000	-6952.474388
4.900000	-2264.175281
4.910000	11569.949287
4.920000	17922.429573
4.930000	17429.655545
4.940000	9927.050708
4.950000	-4573.666393
4.960000	-7738.958573
4.970000	-1750.747199
4.980000	4906.956058
4.990000	7451.870391
5.000000	8749.869813
5.010000	9324.828333
5.020000	9338.760578
5.030000	8123.057553
5.040000	118.382111
5.050000	-15151.494320
5.060000	-17223.264798
5.070000	-11570.204048
5.080000	-5509.149341
5.090000	-3511.680878
5.100000	-2676.893649
5.110000	-1815.137500
5.120000	-66.720945
5.130000	2557.137516
5.140000	5486.713414
5.150000	8103.078330
5.160000	10042.321092
5.170000	11190.182981
5.180000	11728.893119
5.190000	11919.993978
5.200000	11783.629044
5.210000	11466.317336
5.220000	10923.677513
5.230000	10366.182401
5.240000	9784.970087
5.250000	9232.065948
5.260000	8554.889942
5.270000	7782.642615
5.280000	6918.269407
5.290000	6123.525009
5.300000	5393.398159
5.310000	4744.679003
5.320000	4216.805195
5.330000	3907.546953
5.340000	3698.509890
5.350000	3566.237964
5.360000	3257.149076
5.370000	2993.807520
5.380000	2697.535851
5.390000	1469.035661
5.400000	82.101211
5.410000	-1325.562473
5.420000	-1742.007323
5.430000	-1986.260450
5.440000	-2205.671164
5.450000	-2319.728559
5.460000	-2466.660925
5.470000	-2494.788037
5.480000	-2523.779401
5.490000	-2466.659172
5.500000	-2442.171235
5.510000	-2335.258918
5.520000	-2200.729455
5.530000	-1978.572214
5.540000	-1770.088687
5.550000	-1549.222704
5.560000	-1374.362534
5.570000	-1194.250407
5.580000	-1047.223159
5.590000	-907.772448
5.600000	-801.890583
5.610000	-695.457047
5.620000	-599.003953
5.630000	-474.660979
5.640000	-347.605059
5.650000	-212.090179
5.660000	-91.592253
5.670000	42.655993
5.680000	125.532274
5.690000	171.996090
5.700000	170.295120
5.710000	183.925591
5.720000	201.907183
5.730000	215.586299
5.740000	251.678915
5.750000	282.497814
5.760000	314.281762
5.770000	327.748206
5.780000	346.081255
5.790000	380.717373
5.800000	404.530239
5.810000	467.658522
5.820000	549.549191
5.830000	674.157069
5.840000	781.777875
5.850000	879.950830
5.860000	977.123926
5.870000	1092.894427
5.880000	1270.658894
5.890000	1491.461315
5.900000	1736.326011
5.910000	1945.385742
5.920000	2113.283668
5.930000	2241.808246
5.940000	2335.732258
5.950000	2399.048948
5.960000	2462.077749
5.970000	2520.690540
5.980000	2566.243901
5.990000	2575.796804
6.000000	2562.350241
6.010000	2543.762058
6.020000	2558.696877
6.030000	2620.846017
6.040000	2715.824493
6.050000	2810.741359
6.060000	2900.561595
6.070000	3004.239648
6.080000	3108.751991
6.090000	3194.264403
6.100000	3254.863153
6.110000	3309.577540
6.120000	3345.109388
6.130000	3365.833717
6.140000	3364.889879
6.150000	3350.700914
6.160000	3318.540535
6.170000	3263.143463
6.180000	3204.507944
6.190000	3139.105938
6.200000	3052.366723
6.210000	2950.718259
6.220000	2849.846887
6.230000	2772.282429
6.240000	2714.859945
6.250000	2659.412593
6.260000	2601.855924
6.270000	2554.201570
6.280000	2533.818232
6.290000	2538.558889
6.300000	2549.359667
6.310000	2564.259069
6.320000	2567.830287
6.330000	2538.913268
6.340000	2495.381464
6.350000	2455.211332
6.360000	2427.889791
6.370000	2406.113951
6.380000	2391.409888
6.390000	2388.349294
6.400000	2377.859561
6.410000	2348.269624
6.420000	2315.386154
6.430000	2301.211867
6.440000	2274.441325
6.450000	2232.578313
6.460000	2175.183958
6.470000	2136.057327
6.480000	2112.849212
6.490000	2076.153961
6.500000	2035.984678
6.510000	1996.600069
6.520000	1961.152372
6.530000	1924.060766
6.540000	1893.399441
6.550000	1880.575771
6.560000	1876.304767
6.570000	1869.136514
6.580000	1852.277816
6.590000	1830.119476
6.600000	1802.299201
6.610000	1789.558339
6.620000	1783.307835
6.630000	1795.123582
6.640000	1798.953964
6.650000	1774.448494
6.660000	1727.084865
6.670000	1711.324923
6.680000	1738.851717
6.690000	1801.236015
6.700000	1902.412209
6.710000	2087.355948
6.720000	2346.254763
6.730000	2620.778242
6.740000	2909.358570
6.750000	3305.904504
6.760000	3985.797584
6.770000	4925.264890
6.780000	6098.682288
6.790000	7278.524481
6.800000	8326.268121
6.810000	9145.024668
6.820000	9753.968491
6.830000	10277.946990
6.840000	10755.900887
6.850000	11221.993517
6.860000	11652.480850
6.870000	12007.805781
6.880000	12271.937083
6.890000	12468.541143
6.900000	12611.850474
6.910000	12725.119950
6.920000	12814.203587
6.930000	12899.561829
6.940000	12977.314829
6.950000	13041.825810
6.960000	13085.917299
6.970000	13116.626076
6.980000	13106.256657
6.990000	13070.044827
7.000000	13014.072986
7.010000	12950.316670
7.020000	12850.617368
7.030000	12706.816357
7.040000	12537.743338
7.050000	12361.155029
7.060000	12161.621148
7.070000	11936.372446
7.080000	11664.293440
7.090000	11360.869420
7.100000	10985.992825
7.110000	10577.761655
7.120000	10174.206431
7.130000	9846.259203
7.140000	9547.613454
7.150000	9269.041090
7.160000	8993.849491
7.170000	8763.164919
7.180000	8507.632120
7.190000	7994.022205
7.200000	7492.313848
7.210000	7115.298168
7.220000	7034.340213
7.230000	6999.266742
7.240000	6937.036741
7.250000	6917.477921
7.260000	6887.579263
7.270000	6844.008722
7.280000	6786.646868
7.290000	6752.825021
7.300000	6717.726082
7.310000	6670.194103
7.320000	6601.660581
7.330000	6560.233236
7.340000	6540.294737
7.350000	6524.419947
7.360000	6493.771106
7.370000	6439.813760
7.380000	6364.788541
7.390000	6276.400012
7.400000	6186.995416
7.410000	6130.889170
7.420000	6063.493995
7.430000	5947.572733
7.440000	5797.641369
7.450000	5647.815841
7.460000	5518.255146
7.470000	5366.724641
7.480000	5207.861139
7.490000	5062.485358
7.500000	4926.900278
7.510000	4775.351499
7.520000	4582.104298
7.530000	4421.990805
7.540000	4247.467918
7.550000	4077.975197
7.560000	3891.544293
7.570000	3745.001167
7.580000	3613.219396
7.590000	3469.177712
7.600000	3323.485573
7.610000	3194.862834
7.620000	3066.806537
7.630000	2928.379980
7.640000	2777.968362
7.650000	2632.762536
7.660000	2501.251863
7.670000	2380.257086
7.680000	2256.650532
7.690000	2119.565438
7.700000	1982.589044
7.710000	1806.533256
7.720000	1635.559290
7.730000	1449.793050
7.740000	1322.250891
7.750000	1185.464910
7.760000	992.127461
7.770000	768.466681
7.780000	572.885340
7.790000	473.620061
7.800000	382.336108
7.810000	246.325869
7.820000	102.485871
7.830000	-21.876790
7.840000	-104.595635
7.850000	-208.531822
7.860000	-303.308248
7.870000	-379.466524
7.880000	-445.627754
7.890000	-505.613630
7.900000	-561.168824
7.910000	-588.252197
7.920000	-620.432082
7.930000	-656.026244
7.940000	-656.494742
7.950000	-614.120583
7.960000	-549.873489
7.970000	-513.533004
7.980000	-495.329287
7.990000	-488.863609
8.000000	-441.234602
8.010000	-396.038136
8.020000	-332.209513
8.030000	-289.628882
8.040000	-224.204255
8.050000	-168.348521
8.060000	-99.969694
8.070000	-56.821228
8.080000	-7.134513
8.090000	295.704198
8.100000	603.748738
8.110000	868.849832
8.120000	898.973284
8.130000	894.808965
8.140000	941.613997
8.150000	945.674774
8.160000	982.783519
8.170000	981.865460
8.180000	988.667163
8.190000	1051.788912
8.200000	1115.654598
8.210000	1156.521368
8.220000	1130.974553
8.230000	1105.607491
8.240000	1118.933872
8.250000	1102.782041
8.260000	1077.181841
8.270000	1015.539877
8.280000	963.337379
8.290000	885.450868
8.300000	813.716292
8.310000	748.312630
8.320000	726.900785
8.330000	686.599116
8.340000	638.988904
8.350000	576.864678
8.360000	532.882073
8.370000	461.609559
8.380000	406.711964
8.390000	604.239738
8.400000	893.139623
8.410000	1190.103437
8.420000	1249.472901
8.430000	1223.075252
8.440000	1158.868816
8.450000	1060.270839
8.460000	991.776774
8.470000	930.903324
8.480000	837.309641
8.490000	672.880706
8.500000	495.777207
8.510000	340.461417
8.520000	237.233237
8.530000	142.838143
8.540000	67.164739
8.550000	-3.522369
8.560000	-65.195855
8.570000	-128.599530
8.580000	-180.167624
8.590000	-214.044341
8.600000	-255.239171
8.610000	-300.093947
8.620000	-339.313962
8.630000	-349.124366
8.640000	-341.509410
8.650000	-334.529102
8.660000	-337.373312
8.670000	-335.229247
8.680000	-345.689399
8.690000	-336.825074
8.700000	-335.199678
8.710000	-339.713637
8.720000	-383.842142
8.730000	-447.494137
8.740000	-519.550144
8.750000	-561.575676
8.760000	-628.893549
8.770000	-682.444375
8.780000	-795.928202
8.790000	-857.185962
8.800000	-923.480029
8.810000	-904.576095
8.820000	-945.734122
8.830000	-947.016704
8.840000	-997.900844
8.850000	-960.560519
8.860000	-980.909506
8.870000	-930.080697
8.880000	-958.417881
8.890000	-897.459856
8.900000	-942.327891
8.910000	-895.832953
8.920000	-956.063422
8.930000	-802.523322
8.940000	-742.600152
8.950000	-472.613747
8.960000	-425.907966
8.970000	-199.154701
8.980000	-229.608065
8.990000	-862.269279
9.000000	-15217.479095
9.010000	-21648.530912
9.020000	-21873.546817
9.030000	-20298.699137
9.040000	-19203.247274
9.050000	-20428.991867
9.060000	-24808.409747
9.070000	-28325.129202
9.080000	-21516.084856
9.090000	-11652.776531
9.100000	-5816.859373
9.110000	-2582.883656
9.120000	-674.892072
9.130000	104.457414
9.140000	265.606193
9.150000	192.014805
9.160000	-22.459585
9.170000	-159.521692
9.180000	-221.567551
9.190000	-116.902848
9.200000	-12.155144
9.210000	133.181068
9.220000	169.631260
9.230000	181.469076
9.240000	61.119114
9.250000	-35.290633
9.260000	-202.855411
9.270000	-270.425163
9.280000	-406.536036
9.290000	-503.908981
9.300000	-811.970252
9.310000	-1109.541157
9.320000	-1589.984315
9.330000	-1956.268067
9.340000	-2491.032483
9.350000	-2841.024118
9.360000	-3405.256142
9.370000	-3775.338893
9.380000	-4411.976782
9.390000	-5909.755383
9.400000	-12623.758729
9.410000	-13945.755014
9.420000	-14238.467204
9.430000	-14168.668253
9.440000	-14238.367021
9.450000	-14025.821927
9.460000	-13890.189067
9.470000	-13509.214585
9.480000	-13116.648421
9.490000	-12210.362554
9.500000	-10479.408823
9.510000	-8064.860753
9.520000	-5722.298417
9.530000	-4035.327301
9.540000	-3014.052778
9.550000	-2248.078038
9.560000	-1763.109901
9.570000	-1334.913078
9.580000	-1042.102081
9.590000	-742.911880
9.600000	-536.858459
9.610000	-301.067146
9.620000	-49.423507
9.630000	324.342119
9.640000	719.678811
9.650000	1136.262981
9.660000	1440.652723
9.670000	1675.572471
9.680000	1822.363702
9.690000	1961.728064
9.700000	2067.354834
9.710000	2139.197388
9.720000	2169.233165
9.730000	2219.435564
9.740000	2271.134091
9.750000	2336.670479
9.760000	2373.128932
9.770000	2415.031209
9.780000	2437.207048
9.790000	2457.090260
9.800000	2462.786649
9.810000	2466.799073
9.820000	2470.251789
9.830000	2468.743521
9.840000	2468.998969
9.850000	2479.277654
9.860000	2492.958054
9.870000	2509.080743
9.880000	2505.111898
9.890000	2539.026228
9.900000	2584.288815
9.910000	2621.246363
9.920000	2601.309218
9.930000	2570.984516
9.940000	2554.525842
9.950000	2541.886299
9.960000	2512.973197
9.970000	2479.467473
9.980000	2449.002007
9.990000	2419.615304
10.000000	2391.964772
10.010000	2371.035521
10.020000	2359.181197
10.030000	2343.007080
10.040000	2325.370550
10.050000	2306.566903
10.060000	2296.515299
10.070000	2277.981427
10.080000	2259.995100
10.090000	2242.968818
10.100000	2224.731279
10.110000	2195.532460
10.120000	2166.789574
10.130000	2142.005241
10.140000	2120.768212
10.150000	2097.060586
10.160000	2068.688842
10.170000	2040.734244
10.180000	2006.843228
10.190000	1978.054317
10.200000	1947.881600
10.210000	1921.338219
10.220000	1907.195988
10.230000	1906.199198
10.240000	1916.435629
10.250000	1917.274727
10.260000	1903.984964
10.270000	1873.286990
10.280000	1849.208755
10.290000	1827.821955
10.300000	1813.053625
10.310000	1815.307552
10.320000	1863.548981
10.330000	1959.317311
10.340000	2085.258572
10.350000	2213.898697
10.360000	2327.928788
10.370000	2398.380699
10.380000	2414.916065
10.390000	2400.553452
10.400000	2376.163136
10.410000	2361.321557
10.420000	2344.590457
10.430000	2329.730021
10.440000	2322.956304
10.450000	2318.035891
10.460000	2311.928994
10.470000	2300.269312
10.480000	2291.868847
10.490000	2312.145737
10.500000	2344.289858
10.510000	2383.986690
10.520000	2393.214882
10.530000	2394.924733
10.540000	2397.696419
10.550000	2412.464898
10.560000	2437.404888
10.570000	2461.240729
10.580000	2494.768564
10.590000	2538.582737
10.600000	2580.357213
10.610000	2606.848936
10.620000	2628.269892
10.630000	2652.701776
10.640000	2680.754074
10.650000	2694.428385
10.660000	2708.586219
10.670000	2725.043023
10.680000	2746.009446
10.690000	2762.549827
10.700000	2780.060917
10.710000	2800.635854
10.720000	2830.712016
10.730000	2865.611763
10.740000	2898.276350
10.750000	2926.854430
10.760000	2953.102376
10.770000	2982.023777
10.780000	3005.810267
10.790000	3031.483516
10.800000	3057.409970
10.810000	3084.531817
10.820000	3094.537495
10.830000	3100.914025
10.840000	3112.230596
10.850000	3118.490149
10.860000	3118.191081
10.870000	3106.633997
10.880000	3104.797702
10.890000	3100.929303
10.900000	3091.667794
10.910000	3086.499360
10.920000	3086.085471
10.930000	3106.014577
10.940000	3111.935801
10.950000	3118.900932
10.960000	3115.949082
10.970000	3121.768712
10.980000	3122.104113
10.990000	3078.801978
11.000000	3033.374611
11.010000	2992.635451
11.020000	2997.633481
11.030000	3017.163627
11.040000	3039.170227
11.050000	3052.919489
11.060000	3043.919463
11.070000	3039.344674
11.080000	3031.794002
11.090000	3023.348201
11.100000	3002.181325
11.110000	2980.968665
11.120000	2965.096914
11.130000	2948.103491
11.140000	2933.919897
11.150000	2923.774995
11.160000	2913.270093
11.170000	2895.982158
11.180000	2874.852425
11.190000	2854.064330
11.200000	2831.286959
11.210000	2805.351598
11.220000	2770.910379
11.230000	2736.876844
11.240000	2702.036547
11.250000	2671.949669
11.260000	2636.313175
11.270000	2609.950577
11.280000	2588.394246
11.290000	2576.499525
11.300000	2550.584363
11.310000	2511.635296
11.320000	2472.992436
11.330000	2428.566671
11.340000	2378.598457
11.350000	2318.329793
11.360000	2261.097882
11.370000	2211.911961
11.380000	2162.400678
11.390000	2075.587204
11.400000	2004.453701
11.410000	1959.313227
11.420000	1978.081992
11.430000	2005.280319
11.440000	2030.329315
11.450000	2063.130814
11.460000	2104.376591
11.470000	2166.837820
11.480000	2244.527083
11.490000	2326.016009
11.500000	2407.850314
11.510000	2492.358952
11.520000	2579.647658
11.530000	2666.504334
11.540000	2725.187167
11.550000	2774.919550
11.560000	2798.766155
11.570000	2794.846176
11.580000	2732.066222
11.590000	2612.997813
11.600000	2455.204565
11.610000	2274.272317
11.620000	2081.122915
11.630000	1879.651508
11.640000	1676.169710
11.650000	1448.739392
11.660000	1198.397020
11.670000	925.273323
11.680000	639.765506
11.690000	350.245774
11.700000	37.834324
11.710000	-302.303590
11.720000	-693.710875
11.730000	-1115.295235
11.740000	-1539.472023
11.750000	-1918.133193
11.760000	-2236.228876
11.770000	-2489.574788
11.780000	-2695.621152
11.790000	-2861.232169
11.800000	-2980.558882
11.810000	-3071.537410
11.820000	-3148.070210
11.830000	-3215.071433
11.840000	-3269.816132
11.850000	-3331.255987
11.860000	-3415.146335
11.870000	-3518.651252
11.880000	-3658.460632
11.890000	-3872.370289
11.900000	-4073.366582
11.910000	-4203.772977
11.920000	-4232.951806
11.930000	-4241.755468
11.940000	-4258.668668
11.950000	-4269.899170
11.960000	-4280.382793
11.970000	-4283.960026
11.980000	-4306.467539
11.990000	-4347.566815
12.000000	-4391.462713
12.010000	-4410.762998
12.020000	-4411.840208
12.030000	-4416.960727
12.040000	-4437.814830
12.050000	-4457.708259
12.060000	-4460.085824
12.070000	-4430.425565
12.080000	-4381.731448
12.090000	-4334.798106
12.100000	-4288.619149
12.110000	-4226.096495
12.120000	-4120.451701
12.130000	-3979.462604
12.140000	-3851.369538
12.150000	-3754.388384
12.160000	-3679.856980
12.170000	-3601.577362
12.180000	-3519.060975
12.190000	-3446.453697
12.200000	-3385.546062
12.210000	-3336.642154
12.220000	-3301.352098
12.230000	-3279.143221
12.240000	-3262.124198
12.250000	-3245.640547
12.260000	-3227.892580
12.270000	-3224.508568
12.280000	-3219.564829
12.290000	-3214.415581
12.300000	-3198.530298
12.310000	-3198.752078
12.320000	-3214.080411
12.330000	-3235.060740
12.340000	-3252.627891
12.350000	-3265.721909
12.360000	-3280.526658
12.370000	-3299.705654
12.380000	-3313.724999
12.390000	-3287.620103
12.400000	-3235.726756
12.410000	-3174.208349
12.420000	-3163.185437
12.430000	-3167.204348
12.440000	-3167.026284
12.450000	-3154.903562
12.460000	-3146.604040
12.470000	-3146.577996
12.480000	-3133.785388
12.490000	-3116.674300
12.500000	-3096.956369
12.510000	-3085.471049
12.520000	-3063.722705
12.530000	-3028.653323
12.540000	-3004.908770
12.550000	-2987.097229
12.560000	-2973.115141
12.570000	-2944.173705
12.580000	-2919.103672
12.590000	-2901.554405
12.600000	-2873.378659
12.610000	-2840.681755
12.620000	-2809.333403
12.630000	-2789.501662
12.640000	-2767.236316
12.650000	-2746.719427
12.660000	-2724.132274
12.670000	-2703.975337
12.680000	-2678.343045
12.690000	-2644.594840
12.700000	-2602.910921
12.710000	-2559.914940
12.720000	-2513.471166
12.730000	-2480.637693
12.740000	-2451.975397
12.750000	-2444.115626
12.760000	-2427.369444
12.770000	-2409.379913
12.780000	-2379.062640
12.790000	-2396.523732
12.800000	-2409.798762
12.810000	-2427.852355
12.820000	-2401.726626
12.830000	-2390.829467
12.840000	-2380.134245
12.850000	-2405.296637
12.860000	-2433.705199
12.870000	-2500.968645
12.880000	-2551.041834
12.890000	-2834.500158
12.900000	-3061.912567
12.910000	-3281.309034
12.920000	-3178.137826
12.930000	-3052.489655
12.940000	-2801.940977
12.950000	-2614.818765
12.960000	-2333.476949
12.970000	-2133.412394
12.980000	-1825.694619
12.990000	-1700.671449
13.000000	-1447.944424
13.010000	-1262.333321
13.020000	-675.053177
13.030000	-83.054304
13.040000	830.784978
13.050000	1385.135010
13.060000	2002.307279
13.070000	1790.033601
13.080000	140.597945
13.090000	-3509.259628
13.100000	-15314.042942
13.110000	-23638.090778
13.120000	-17353.244675
13.130000	-7214.494486
13.140000	-5166.751975
13.150000	-4551.195099
13.160000	-4039.459309
13.170000	-4327.643438
13.180000	-3705.900302
13.190000	-4445.795071
13.200000	-11393.835356
13.210000	-32974.971882
13.220000	-14672.233187
13.230000	-3649.568809
13.240000	-465.102509
13.250000	1350.682403
13.260000	2721.482147
13.270000	2795.135979
13.280000	3148.072019
13.290000	2879.120751
13.300000	3103.203183
13.310000	2909.881162
13.320000	3097.366863
13.330000	2920.409701
13.340000	3062.128802
13.350000	2928.774107
13.360000	3027.926243
13.370000	2865.064492
13.380000	2878.297909
13.390000	2637.985232
13.400000	2629.196584
13.410000	2537.392107
13.420000	2672.827924
13.430000	2658.261605
13.440000	2709.105514
13.450000	2639.381372
13.460000	2621.053161
13.470000	2491.269359
13.480000	2407.569460
13.490000	2228.358599
13.500000	2087.198504
13.510000	1900.542687
13.520000	1781.392664
13.530000	1643.539026
13.540000	1553.700358
13.550000	1422.801732
13.560000	1313.118763
13.570000	1164.423732
13.580000	1035.226447
13.590000	890.820252
13.600000	795.303436
13.610000	719.993918
13.620000	689.893886
13.630000	670.036252
13.640000	673.316533
13.650000	677.015532
13.660000	690.195253
13.670000	670.556542
13.680000	630.928864
13.690000	571.099214
13.700000	546.520184
13.710000	539.145501
13.720000	526.472076
13.730000	490.912092
13.740000	452.902534
13.750000	416.007120
13.760000	395.072743
13.770000	367.375028
13.780000	378.808135
13.790000	391.557049
13.800000	424.744575
13.810000	456.672250
13.820000	517.536146
13.830000	577.001094
13.840000	639.136070
13.850000	699.019730
13.860000	793.900254
13.870000	887.886538
13.880000	989.837013
13.890000	1239.162192
13.900000	1463.301130
13.910000	1621.852305
13.920000	1560.504445
13.930000	1459.848225
13.940000	1342.995108
13.950000	1184.431026
13.960000	1047.450677
13.970000	931.560157
13.980000	873.062711
13.990000	822.175440
14.000000	817.975256
14.010000	860.406878
14.020000	964.319551
14.030000	1086.536930
14.040000	1225.503314
14.050000	1372.372609
14.060000	1524.764305
14.070000	1648.514275
14.080000	1724.794508
14.090000	1770.147307
14.100000	1811.247210
14.110000	1851.110472
14.120000	1881.397599
14.130000	1894.471529
14.140000	1896.315101
14.150000	1893.564481
14.160000	1894.300389
14.170000	1902.376681
14.180000	1914.664383
14.190000	1928.588638
14.200000	1944.769056
14.210000	1962.863517
14.220000	1991.297018
14.230000	2025.836474
14.240000	2064.230223
14.250000	2093.847668
14.260000	2108.581685
14.270000	2122.982857
14.280000	2130.275402
14.290000	2128.532418
14.300000	2107.012843
14.310000	2084.564712
14.320000	2063.105431
14.330000	2045.334307
14.340000	2017.554967
14.350000	1993.581589
14.360000	1973.702947
14.370000	1951.212036
14.380000	1923.598275
14.390000	1847.131857
14.400000	1784.521949
14.410000	1733.609587
14.420000	1727.612254
14.430000	1722.277390
14.440000	1711.877930
14.450000	1708.731005
14.460000	1708.166549
14.470000	1717.286559
14.480000	1729.487127
14.490000	1732.562982
14.500000	1708.862307
14.510000	1678.011318
14.520000	1641.590735
14.530000	1604.538294
14.540000	1551.332321
14.550000	1500.561563
14.560000	1462.119209
14.570000	1429.943431
14.580000	1397.306581
14.590000	1369.761222
14.600000	1348.550854
14.610000	1330.635852
14.620000	1303.838488
14.630000	1282.317793
14.640000	1266.155606
14.650000	1260.414727
14.660000	1250.820751
14.670000	1240.293174
14.680000	1229.881522
14.690000	1221.909016
14.700000	1213.996402
14.710000	1202.922688
14.720000	1190.525093
14.730000	1182.346226
14.740000	1175.095642
14.750000	1170.181877
14.760000	1162.714511
14.770000	1160.450962
14.780000	1161.371623
14.790000	1169.133793
14.800000	1174.725142
14.810000	1184.924245
14.820000	1203.133343
14.830000	1234.783923
14.840000	1250.509309
14.850000	1251.122848
14.860000	1240.957639
14.870000	1230.206898
14.880000	1201.057736
14.890000	1088.222227
14.900000	972.286469
14.910000	872.129023
14.920000	842.340537
14.930000	818.769891
14.940000	791.603670
14.950000	769.520984
14.960000	740.201501
14.970000	721.747614
14.980000	699.434077
14.990000	681.762538
15.000000	654.662078
15.010000	633.582216
15.020000	610.883249
15.030000	594.835086
15.040000	576.780328
15.050000	563.853297
15.060000	556.045988
15.070000	551.587759
15.080000	552.041454
15.090000	531.299759
15.100000	507.879236
15.110000	473.992146
15.120000	433.467768
15.130000	384.387128
15.140000	328.116577
15.150000	282.210694
15.160000	240.082734
15.170000	207.451242
15.180000	182.410665
15.190000	168.087852
15.200000	155.085963
15.210000	141.793802
15.220000	131.823087
15.230000	124.535080
15.240000	119.607604
15.250000	109.302033
15.260000	102.149036
15.270000	98.758982
15.280000	97.729542
15.290000	101.604221
15.300000	107.338336
15.310000	113.162784
15.320000	114.983414
15.330000	114.780214
15.340000	109.322545
15.350000	104.463806
15.360000	103.361665
15.370000	111.527434
15.380000	116.390873
15.390000	81.899160
15.400000	38.641890
15.410000	3.270886
15.420000	7.639115
15.430000	26.857399
15.440000	34.335143
15.450000	44.258892
15.460000	47.670093
15.470000	58.759302
15.480000	62.960905
15.490000	65.348001
15.500000	67.275363
15.510000	71.975221
15.520000	77.943016
15.530000	85.305969
15.540000	91.969785
15.550000	99.344397
15.560000	107.022457
15.570000	111.404457
15.580000	118.464659
15.590000	125.470006
15.600000	139.295492
15.610000	150.853455
15.620000	164.858811
15.630000	184.259461
15.640000	206.767993
15.650000	230.359260
15.660000	236.992423
15.670000	231.881662
15.680000	217.567736
15.690000	197.096504
15.700000	166.815194
15.710000	131.023220
15.720000	100.436464
15.730000	73.939784
15.740000	54.758150
15.750000	38.523476
15.760000	30.460319
15.770000	37.131129
15.780000	40.782139
15.790000	46.153153
15.800000	45.087280
15.810000	49.582091
15.820000	51.354427
15.830000	48.044493
15.840000	45.326986
15.850000	43.508310
15.860000	43.316346
15.870000	42.646139
15.880000	47.342148
15.890000	54.106281
15.900000	64.060328
15.910000	69.555387
15.920000	68.472898
15.930000	67.707931
15.940000	66.876973
15.950000	72.557236
15.960000	73.241834
15.970000	84.156565
15.980000	99.892766
15.990000	123.120306
16.000000	138.836862
16.010000	133.094790
16.020000	122.538971
16.030000	100.679194
16.040000	76.957777
16.050000	42.218260
16.060000	8.439853
16.070000	-14.577300
16.080000	-32.449584
16.090000	-47.359794
16.100000	-58.661474
16.110000	-61.127124
16.120000	-55.220275
16.130000	-56.267082
16.140000	-54.375476
16.150000	-53.778693
16.160000	-46.497185
16.170000	-43.342491
16.180000	-42.919802
16.190000	-41.902608
16.200000	-39.016872
16.210000	-30.458450
16.220000	-23.146592
16.230000	-15.996028
16.240000	-8.950048
16.250000	1.471028
16.260000	8.880773
16.270000	14.285908
16.280000	17.368284
16.290000	22.439979
16.300000	25.826475
16.310000	32.944444
16.320000	38.914624
16.330000	46.460838
16.340000	59.997938
16.350000	77.616525
16.360000	97.404050
16.370000	96.035684
16.380000	79.545889
16.390000	52.104283
16.400000	13.329264
16.410000	-31.491369
16.420000	-85.256864
16.430000	-128.038534
16.440000	-169.271714
16.450000	-204.228730
16.460000	-233.650708
16.470000	-255.761660
16.480000	-263.030734
16.490000	-281.403898
16.500000	-295.314623
16.510000	-313.798774
16.520000	-322.219075
16.530000	-329.611434
16.540000	-338.458808
16.550000	-342.086064
16.560000	-346.086535
16.570000	-346.221830
16.580000	-347.762356
16.590000	-349.696154
16.600000	-356.141916
16.610000	-358.158086
16.620000	-353.898272
16.630000	-350.335378
16.640000	-347.326713
16.650000	-345.540348
16.660000	-336.422431
16.670000	-330.490790
16.680000	-317.487996
16.690000	-296.828518
16.700000	-269.251733
16.710000	-244.887049
16.720000	-241.064066
16.730000	-238.875345
16.740000	-250.992901
16.750000	-269.504006
16.760000	-299.655249
16.770000	-325.438796
16.780000	-341.043910
16.790000	-347.758517
16.800000	-349.806531
16.810000	-347.433669
16.820000	-331.911317
16.830000	-317.539339
16.840000	-305.013126
16.850000	-293.341885
16.860000	-277.806652
16.870000	-257.524036
16.880000	-249.017503
16.890000	-243.339522
16.900000	-237.615436
16.910000	-228.858876
16.920000	-217.594292
16.930000	-205.753816
16.940000	-190.599142
16.950000	-172.697089
16.960000	-157.323282
16.970000	-138.315737
16.980000	-119.782850
16.990000	-96.282472
17.000000	-76.990648
17.010000	-54.244799
17.020000	-27.593857
17.030000	0.742841
17.040000	33.105667
17.050000	70.349516
17.060000	106.743121
17.070000	139.586777
17.080000	149.623599
17.090000	150.201660
17.100000	134.736973
17.110000	139.554942
17.120000	144.983325
17.130000	159.605510
17.140000	156.083598
17.150000	159.418647
17.160000	155.361113
17.170000	160.935625
17.180000	146.795440
17.190000	90.087508
17.200000	19.655054
17.210000	-18.764683
17.220000	-5.608135
17.230000	33.206854
17.240000	49.014402
17.250000	71.675169
17.260000	82.450783
17.270000	108.549899
17.280000	114.996146
17.290000	150.266508
17.300000	195.635825
17.310000	316.492591
17.320000	437.500331
17.330000	611.013614
17.340000	776.331434
17.350000	962.056577
17.360000	1115.548937
17.370000	1486.873358
17.380000	2037.582637
17.390000	2757.041335
17.400000	3269.888918
17.410000	3203.156377
17.420000	1735.904799
17.430000	-1306.339796
17.440000	-7226.804665
17.450000	-19362.753501
17.460000	-27931.616131
17.470000	-24694.313619
17.480000	-17738.908194
17.490000	-12532.177101
17.500000	-11078.720225
17.510000	-12048.919075
17.520000	-27523.666798
17.530000	-29154.042135
17.540000	-11126.548161
17.550000	-5795.129258
17.560000	-2977.863839
17.570000	-1114.941297
17.580000	224.310061
17.590000	1083.001510
17.600000	1546.541291
17.610000	1663.451566
17.620000	1694.297537
17.630000	1701.300199
17.640000	1750.341225
17.650000	1760.356656
17.660000	1776.677511
17.670000	1774.499941
17.680000	1797.147708
17.690000	1789.319796
17.700000	1772.109157
17.710000	1735.001570
17.720000	1701.446578
17.730000	1653.185424
17.740000	1591.789033
17.750000	1500.603718
17.760000	1398.514173
17.770000	1277.567282
17.780000	1152.253835
17.790000	997.041015
17.800000	829.064665
17.810000	646.416958
17.820000	461.870865
17.830000	262.344129
17.840000	35.301332
17.850000	-218.067717
17.860000	-483.274538
17.870000	-747.192312
17.880000	-1007.254569
17.890000	-1266.039003
17.900000	-1528.281299
17.910000	-1806.948540
17.920000	-2066.882210
17.930000	-2263.203856
17.940000	-2399.989491
17.950000	-2497.207494
17.960000	-2591.513354
17.970000	-2700.528999
17.980000	-2827.032639
17.990000	-2942.800911
18.000000	-3024.600533
18.010000	-3091.890982
18.020000	-3187.934011
18.030000	-3305.541992
18.040000	-3453.343038
18.050000	-3595.435393
18.060000	-3745.919996
18.070000	-3908.329574
18.080000	-4075.496560
18.090000	-4298.745903
18.100000	-4448.269595
18.110000	-4536.245287
18.120000	-4500.196424
18.130000	-4440.549997
18.140000	-4380.601672
18.150000	-4309.115801
18.160000	-4238.092319
18.170000	-4160.650280
18.180000	-4102.023963
18.190000	-4040.407245
18.200000	-3961.326303
18.210000	-3864.218489
18.220000	-3795.439064
18.230000	-3758.926920
18.240000	-3735.166531
18.250000	-3706.317826
18.260000	-3681.310788
18.270000	-3662.031350
18.280000	-3633.415803
18.290000	-3579.414799
18.300000	-3494.888712
18.310000	-3378.478506
18.320000	-3219.337358
18.330000	-2958.075915
18.340000	-2543.139762
18.350000	-1900.943580
18.360000	-1126.735152
18.370000	-378.310805
18.380000	193.027715
18.390000	530.590441
18.400000	718.855116
18.410000	795.374471
18.420000	833.126343
18.430000	848.684968
18.440000	855.404960
18.450000	860.329208
18.460000	863.015604
18.470000	865.668135
18.480000	868.977676
18.490000	873.697641
18.500000	877.623515
18.510000	881.428423
18.520000	886.967447
18.530000	906.550903
18.540000	934.292514
18.550000	961.030290
18.560000	963.613181
18.570000	964.336635
18.580000	963.577222
18.590000	969.369022
18.600000	971.531006
18.610000	971.808695
18.620000	973.531752
18.630000	975.613593
18.640000	981.924873
18.650000	995.128665
18.660000	1016.696271
18.670000	1038.333183
18.680000	1061.879820
18.690000	1090.259698
18.700000	1130.127339
18.710000	1175.205779
18.720000	1218.429127
18.730000	1272.597539
18.740000	1328.395963
18.750000	1388.081536
18.760000	1451.083474
18.770000	1517.296570
18.780000	1586.167486
18.790000	1625.156111
18.800000	1652.792081
18.810000	1665.690391
18.820000	1663.494524
18.830000	1650.307707
18.840000	1627.260838
18.850000	1611.041022
18.860000	1591.360898
18.870000	1575.565148
18.880000	1571.205115
18.890000	1577.477781
18.900000	1584.436860
18.910000	1581.469066
18.920000	1583.152780
18.930000	1588.834659
18.940000	1594.610394
18.950000	1601.632568
18.960000	1619.176541
18.970000	1638.802494
18.980000	1642.471436
18.990000	1638.467597
19.000000	1637.864626
19.010000	1632.170673
19.020000	1625.384901
19.030000	1622.971608
19.040000	1636.683997
19.050000	1646.781961
19.060000	1656.810659
19.070000	1665.343286
19.080000	1670.033762
19.090000	1667.000355
19.100000	1652.357804
19.110000	1636.799388
19.120000	1630.449837
19.130000	1640.694739
19.140000	1636.541246
19.150000	1631.150414
19.160000	1627.711912
19.170000	1645.424282
19.180000	1661.542502
19.190000	1667.178896
19.200000	1673.538513
19.210000	1682.351929
19.220000	1692.973301
19.230000	1697.618177
19.240000	1704.231621
19.250000	1712.309043
19.260000	1724.279978
19.270000	1729.413218
19.280000	1729.145344
19.290000	1729.982360
19.300000	1732.780345
19.310000	1736.666004
19.320000	1746.216992
19.330000	1767.474421
19.340000	1796.414148
19.350000	1810.019551
19.360000	1809.133090
19.370000	1811.066872
19.380000	1814.257837
19.390000	1809.885919
19.400000	1790.512034
19.410000	1773.566251
19.420000	1767.535292
19.430000	1761.988884
19.440000	1756.714830
19.450000	1754.548714
19.460000	1765.710741
19.470000	1774.500699
19.480000	1768.847213
19.490000	1759.646929
19.500000	1754.105263
19.510000	1757.587031
19.520000	1753.435626
19.530000	1749.728386
19.540000	1745.207514
19.550000	1737.668141
19.560000	1726.117555
19.570000	1708.740941
19.580000	1693.523620
19.590000	1677.586799
19.600000	1664.417179
19.610000	1647.876670
19.620000	1634.483039
19.630000	1620.609971
19.640000	1617.394479
19.650000	1609.743321
19.660000	1603.168323
19.670000	1601.344479
19.680000	1606.745419
19.690000	1617.072771
19.700000	1601.718680
19.710000	1576.736811
19.720000	1543.793673
19.730000	1502.536867
19.740000	1453.680128
19.750000	1396.809322
19.760000	1351.430412
19.770000	1312.824637
19.780000	1274.652576
19.790000	1244.688641
19.800000	1225.002580
19.810000	1218.364990
19.820000	1201.424829
19.830000	1189.959695
19.840000	1203.000454
19.850000	1234.964785
19.860000	1263.006857
19.870000	1286.509319
19.880000	1316.858144
19.890000	1360.853356
19.900000	1393.768449
19.910000	1418.084562
19.920000	1432.480911
19.930000	1440.809391
19.940000	1448.009249
19.950000	1440.964318
19.960000	1432.087516
19.970000	1428.250618
19.980000	1431.298673
19.990000	1426.638562
20.000000	1426.731016
20.010000	1440.831327
20.020000	1463.937896
20.030000	1478.469964
20.040000	1471.304158
20.050000	1471.037037
20.060000	1465.037734
20.070000	1461.475143
20.080000	1444.519316
20.090000	1422.460088
20.100000	1398.801676
20.110000	1372.914256
20.120000	1352.253466
20.130000	1333.485984
20.140000	1337.251586
20.150000	1331.727393
20.160000	1336.538063
20.170000	1334.013356
20.180000	1343.740453
20.190000	1347.007630
20.200000	1344.810383
20.210000	1348.176107
20.220000	1352.651005
20.230000	1358.169735
20.240000	1356.281569
20.250000	1357.695497
20.260000	1355.342678
20.270000	1357.409048
20.280000	1355.838244
20.290000	1359.648400
20.300000	1373.801399
20.310000	1390.999294
20.320000	1412.265770
20.330000	1433.815140
20.340000	1452.543300
20.350000	1484.828901
20.360000	1519.890411
20.370000	1562.362282
20.380000	1594.987766
20.390000	1603.380328
20.400000	1610.664667
20.410000	1606.783485
20.420000	1595.856471
20.430000	1568.291320
20.440000	1539.258325
20.450000	1523.940917
20.460000	1507.385475
20.470000	1491.778661
20.480000	1481.994068
20.490000	1489.441403
20.500000	1476.274061
20.510000	1447.695369
20.520000	1427.410811
20.530000	1429.060575
20.540000	1444.292310
20.550000	1444.842509
20.560000	1445.763783
20.570000	1445.048162
20.580000	1450.398739
20.590000	1456.354029
20.600000	1459.174344
20.610000	1459.473981
20.620000	1462.765060
20.630000	1465.035622
20.640000	1463.827403
20.650000	1461.076195
20.660000	1464.371635
20.670000	1470.218837
20.680000	1468.028370
20.690000	1460.195264
20.700000	1459.511241
20.710000	1468.273230
20.720000	1484.111098
20.730000	1481.416605
20.740000	1451.218640
20.750000	1421.121842
20.760000	1393.384039
20.770000	1368.616089
20.780000	1326.284281
20.790000	1274.982635
20.800000	1218.295764
20.810000	1142.760048
20.820000	1036.769393
20.830000	909.383946
20.840000	790.756682
20.850000	681.715692
20.860000	583.867159
20.870000	504.851049
20.880000	460.453030
20.890000	443.041088
20.900000	422.762849
20.910000	407.786504
20.920000	404.183830
20.930000	414.304585
20.940000	427.016636
20.950000	431.271044
20.960000	430.670459
20.970000	433.029137
20.980000	446.103478
20.990000	458.847561
21.000000	466.665467
21.010000	478.814570
21.020000	502.665420
21.030000	532.521442
21.040000	562.439721
21.050000	589.678063
21.060000	620.010969
21.070000	656.266074
21.080000	703.025778
21.090000	747.912163
21.100000	771.124108
21.110000	788.760008
21.120000	809.303921
21.130000	831.348985
21.140000	836.872292
21.150000	830.433406
21.160000	831.915391
21.170000	836.214389
21.180000	841.732518
21.190000	844.084654
21.200000	856.694697
21.210000	879.346120
21.220000	899.718152
21.230000	920.408933
21.240000	942.162731
21.250000	965.897613
21.260000	978.326183
21.270000	983.524365
21.280000	993.266985
21.290000	1004.198247
21.300000	1009.619771
21.310000	1013.989739
21.320000	1018.048442
21.330000	1026.209875
21.340000	1031.530257
21.350000	1039.213493
21.360000	1048.077087
21.370000	1061.310774
21.380000	1072.678776
21.390000	1082.840158
21.400000	1092.024863
21.410000	1104.792750
21.420000	1128.121305
21.430000	1159.796203
21.440000	1190.272774
21.450000	1196.169188
21.460000	1187.589454
21.470000	1173.277375
21.480000	1151.281386
21.490000	1120.792342
21.500000	1087.727778
21.510000	1065.395927
21.520000	1043.175758
21.530000	1020.426557
21.540000	1011.062328
21.550000	1020.163846
21.560000	1031.286330
21.570000	1042.001816
21.580000	1056.924145
21.590000	1080.566262
21.600000	1098.234903
21.610000	1105.884583
21.620000	1110.298962
21.630000	1121.266971
21.640000	1126.022467
21.650000	1133.763321
21.660000	1137.754749
21.670000	1151.700572
21.680000	1153.773092
21.690000	1159.456167
21.700000	1153.421545
21.710000	1158.028876
21.720000	1150.324669
21.730000	1155.110727
21.740000	1142.788534
21.750000	1149.749483
21.760000	1157.476076
21.770000	1202.913884
21.780000	1216.242502
21.790000	1208.337521
21.800000	1183.694471
21.810000	1192.588756
21.820000	1196.937738
21.830000	1220.041340
21.840000	1226.384324
21.850000	1292.832877
21.860000	1315.363126
21.870000	1371.818385
21.880000	1370.903911
21.890000	1439.762445
21.900000	1456.116965
21.910000	1530.034021
21.920000	1552.081889
21.930000	1665.018357
21.940000	1703.218605
21.950000	1814.547848
21.960000	1818.803724
21.970000	2017.749214
21.980000	2194.310585
21.990000	2729.271371
22.000000	3269.813236
22.010000	4066.125690
22.020000	4532.360858
22.030000	5094.431998
22.040000	4960.903258
22.050000	3744.852834
22.060000	748.948387
22.070000	-7121.086096
22.080000	-20560.502403
22.090000	-25384.241766
22.100000	-19034.553768
22.110000	-10870.122273
22.120000	-7655.591149
22.130000	-5736.636763
22.140000	-6464.809063
22.150000	-12465.379115
22.160000	-32596.672775
22.170000	-18337.612623
22.180000	-5646.884686
22.190000	-2664.038268
22.200000	-988.982085
22.210000	152.021020
22.220000	256.132890
22.230000	474.273562
22.240000	131.216131
22.250000	106.780573
22.260000	-222.513307
22.270000	-229.294448
22.280000	-448.787329
22.290000	-419.985175
22.300000	-608.291570
22.310000	-618.999806
22.320000	-778.128764
22.330000	-751.220973
22.340000	-832.045835
22.350000	-776.653476
22.360000	-832.668420
22.370000	-797.204459
22.380000	-861.396190
22.390000	-848.434966
22.400000	-889.326630
22.410000	-843.276641
22.420000	-849.049702
22.430000	-810.164104
22.440000	-820.989310
22.450000	-784.217894
22.460000	-773.759053
22.470000	-725.252214
22.480000	-729.315170
22.490000	-729.911530
22.500000	-767.163596
22.510000	-761.270071
22.520000	-748.693686
22.530000	-709.503119
22.540000	-689.099670
22.550000	-664.578731
22.560000	-657.658766
22.570000	-629.853245
22.580000	-613.109279
22.590000	-585.678614
22.600000	-576.063170
22.610000	-557.050015
22.620000	-548.178216
22.630000	-533.022402
22.640000	-516.385014
22.650000	-487.318657
22.660000	-459.025609
22.670000	-420.917378
22.680000	-391.113198
22.690000	-361.144887
22.700000	-359.337316
22.710000	-396.693957
22.720000	-467.217537
22.730000	-574.639535
22.740000	-675.337805
22.750000	-770.745954
22.760000	-860.824767
22.770000	-949.902083
22.780000	-1026.974308
22.790000	-1066.055382
22.800000	-1071.913600
22.810000	-1075.653252
22.820000	-1085.830145
22.830000	-1081.543007
22.840000	-1048.136906
22.850000	-998.214282
22.860000	-943.147197
22.870000	-882.894700
22.880000	-812.518102
22.890000	-735.639600
22.900000	-656.264592
22.910000	-566.727203
22.920000	-480.109714
22.930000	-392.142342
22.940000	-312.368183
22.950000	-238.567461
22.960000	-174.686082
22.970000	-119.019761
22.980000	-77.735170
22.990000	-49.160307
23.000000	-28.485618
23.010000	-20.036120
23.020000	-10.899102
23.030000	6.028193
23.040000	31.626206
23.050000	47.996610
23.060000	41.451894
23.070000	39.366420
23.080000	39.484612
23.090000	37.017480
23.100000	19.116534
23.110000	0.365021
23.120000	-11.984076
23.130000	-19.691462
23.140000	-33.823047
23.150000	-41.394897
23.160000	-32.049106
23.170000	-20.547403
23.180000	-12.296417
23.190000	-7.399157
23.200000	8.114240
23.210000	25.639535
23.220000	31.463110
23.230000	36.029958
23.240000	45.418496
23.250000	60.691578
23.260000	72.630414
23.270000	81.998518
23.280000	89.459756
23.290000	99.934645
23.300000	111.888661
23.310000	122.150028
23.320000	130.609527
23.330000	141.995374
23.340000	155.264343
23.350000	170.459966
23.360000	192.214482
23.370000	225.875702
23.380000	253.382628
23.390000	256.907500
23.400000	253.595373
23.410000	252.197907
23.420000	247.384217
23.430000	222.404846
23.440000	194.881807
23.450000	181.891074
23.460000	175.925777
23.470000	164.644365
23.480000	154.635191
23.490000	158.694599
23.500000	173.914471
23.510000	178.305196
23.520000	180.891478
23.530000	185.513868
23.540000	197.818860
23.550000	200.939221
23.560000	201.422169
23.570000	205.976401
23.580000	210.607228
23.590000	213.965090
23.600000	213.399386
23.610000	218.263849
23.620000	224.765629
23.630000	237.194760
23.640000	249.045259
23.650000	264.096715
23.660000	280.251296
23.670000	298.616443
23.680000	316.054392
23.690000	332.753773
23.700000	354.146769
23.710000	385.164351
23.720000	408.452307
23.730000	417.879864
23.740000	426.083236
23.750000	438.181647
23.760000	444.279574
23.770000	432.417472
23.780000	415.149347
23.790000	404.257008
23.800000	395.915141
23.810000	383.026164
23.820000	379.343194
23.830000	392.382896
23.840000	410.991050
23.850000	424.010414
23.860000	434.281186
23.870000	453.599402
23.880000	478.800139
23.890000	495.092735
23.900000	510.651471
23.910000	528.841857
23.920000	553.773536
23.930000	580.166902
23.940000	600.156559
23.950000	621.134926
23.960000	645.794090
23.970000	673.694775
23.980000	696.342925
23.990000	717.220609
24.000000	737.150543
24.010000	760.354857
24.020000	777.519712
24.030000	794.462374
24.040000	817.822494
24.050000	854.501602
24.060000	890.999866
24.070000	902.774085
24.080000	904.214046
24.090000	904.294521
24.100000	900.993795
24.110000	886.728391
24.120000	865.065815
24.130000	852.793143
24.140000	842.665992
24.150000	834.136700
24.160000	831.539569
24.170000	836.064518
24.180000	843.323625
24.190000	839.892880
24.200000	840.108848
24.210000	838.591562
24.220000	843.522003
24.230000	839.482322
24.240000	836.595071
24.250000	838.611546
24.260000	839.897851
24.270000	839.675783
24.280000	833.779186
24.290000	833.369489
24.300000	835.876347
24.310000	842.326115
24.320000	845.202582
24.330000	849.569320
24.340000	859.444123
24.350000	867.031068
24.360000	879.978547
24.370000	897.051683
24.380000	923.112447
24.390000	946.609405
24.400000	953.487776
24.410000	960.499492
24.420000	958.037901
24.430000	950.006645
24.440000	928.802477
24.450000	907.816940
24.460000	894.462191
24.470000	879.158204
24.480000	863.061772
24.490000	857.437004
24.500000	863.877296
24.510000	862.565559
24.520000	849.978849
24.530000	836.974264
24.540000	834.988689
24.550000	829.885457
24.560000	819.269534
24.570000	809.057593
24.580000	807.460813
24.590000	806.756108
24.600000	802.229844
24.610000	797.045081
24.620000	794.567587
24.630000	797.232312
24.640000	799.784345
24.650000	797.654211
24.660000	793.252372
24.670000	794.656413
24.680000	801.260588
24.690000	805.536270
24.700000	804.510612
24.710000	815.366734
24.720000	839.277859
24.730000	848.344488
24.740000	831.985750
24.750000	807.290582
24.760000	785.569375
24.770000	757.738190
24.780000	716.381027
24.790000	678.475488
24.800000	644.034684
24.810000	608.421182
24.820000	562.228980
24.830000	525.333599
24.840000	511.625695
24.850000	509.059524
24.860000	504.235988
24.870000	491.021916
24.880000	476.431446
24.890000	454.831167
24.900000	419.504733
24.910000	385.914674
24.920000	368.788540
24.930000	367.166830
24.940000	369.587766
24.950000	365.297721
24.960000	362.648779
24.970000	363.953859
24.980000	366.236283
24.990000	353.447629
25.000000	328.415013
25.010000	302.837662
25.020000	291.138964
25.030000	293.726112
25.040000	305.717807
25.050000	332.845633
25.060000	359.438960
25.070000	366.823830
25.080000	353.406447
25.090000	342.736337
25.100000	341.859685
25.110000	333.111210
25.120000	313.215172
25.130000	295.393274
25.140000	282.737202
25.150000	269.845527
25.160000	250.783764
25.170000	246.897850
25.180000	261.638797
25.190000	281.092577
25.200000	299.706033
25.210000	315.819709
25.220000	342.668360
25.230000	370.670828
25.240000	403.853849
25.250000	441.025866
25.260000	475.541740
25.270000	494.881277
25.280000	493.765151
25.290000	477.279912
25.300000	460.195698
25.310000	455.185776
25.320000	463.774391
25.330000	478.912636
25.340000	497.206773
25.350000	509.132077
25.360000	513.169664
25.370000	508.862052
25.380000	511.014522
25.390000	526.409129
25.400000	530.611869
25.410000	525.866789
25.420000	514.378834
25.430000	509.858187
25.440000	495.563374
25.450000	483.428630
25.460000	476.890595
25.470000	476.489537
25.480000	467.005343
25.490000	457.781116
25.500000	453.268923
25.510000	445.867575
25.520000	436.716880
25.530000	428.785141
25.540000	425.992581
25.550000	432.527615
25.560000	440.725605
25.570000	448.440830
25.580000	453.947734
25.590000	434.449821
25.600000	404.090666
25.610000	358.894081
25.620000	328.810841
25.630000	302.040083
25.640000	286.066086
25.650000	281.982986
25.660000	277.096927
25.670000	278.793516
25.680000	281.236276
25.690000	288.441609
25.700000	286.134894
25.710000	280.955657
25.720000	280.844604
25.730000	284.918656
25.740000	288.683249
25.750000	285.680783
25.760000	278.684096
25.770000	270.579067
25.780000	266.158353
25.790000	262.255989
25.800000	260.110862
25.810000	260.730752
25.820000	260.514843
25.830000	254.665343
25.840000	256.764739
25.850000	273.040814
25.860000	294.766956
25.870000	300.841336
25.880000	283.931676
25.890000	266.848305
25.900000	240.130392
25.910000	206.008990
25.920000	161.100930
25.930000	123.013537
25.940000	95.819469
25.950000	70.767003
25.960000	46.340993
25.970000	31.330845
25.980000	30.967113
25.990000	29.951638
26.000000	23.735054
26.010000	17.042500
26.020000	19.961282
26.030000	17.172773
26.040000	6.331295
26.050000	-5.229922
26.060000	-5.178884
26.070000	-6.263123
26.080000	-10.555741
26.090000	-17.185270
26.100000	-17.141646
26.110000	-11.701442
26.120000	-4.300290
26.130000	0.210653
26.140000	3.657189
26.150000	6.214963
26.160000	10.049176
26.170000	7.620626
26.180000	5.239507
26.190000	6.444613
26.200000	20.202977
26.210000	32.963947
26.220000	25.573883
26.230000	15.672791
26.240000	1.645988
26.250000	-14.187848
26.260000	-40.894500
26.270000	-72.255537
26.280000	-92.993506
26.290000	-114.313732
26.300000	-130.966122
26.310000	-146.983933
26.320000	-145.134540
26.330000	-128.297953
26.340000	-109.921593
26.350000	-92.840135
26.360000	-75.621939
26.370000	-63.326186
26.380000	-60.581507
26.390000	-73.410834
26.400000	-80.060582
26.410000	-93.855322
26.420000	-100.728951
26.430000	-113.305334
26.440000	-117.256540
26.450000	-125.430928
26.460000	-112.614889
26.470000	-99.619256
26.480000	-82.843540
26.490000	-78.132701
26.500000	-59.897789
26.510000	-33.003544
26.520000	30.195811
26.530000	79.970629
26.540000	155.256113
26.550000	216.451251
26.560000	308.603374
26.570000	358.995199
26.580000	402.632252
26.590000	396.710158
26.600000	418.708525
26.610000	417.454423
26.620000	469.517279
26.630000	473.757855
26.640000	526.581487
26.650000	524.891847
26.660000	627.743173
26.670000	727.335986
26.680000	1048.192969
26.690000	1365.921449
26.700000	1811.659164
26.710000	2074.999686
26.720000	2362.248980
26.730000	1839.925411
26.740000	-71.099131
26.750000	-4739.011625
26.760000	-15131.215811
26.770000	-25392.302922
26.780000	-23874.512450
26.790000	-15248.002356
26.800000	-9182.652281
26.810000	-6876.290645
26.820000	-6154.453509
26.830000	-6971.721488
26.840000	-22526.616217
26.850000	-30177.355197
26.860000	-11986.043460
26.870000	-5414.558806
26.880000	-2735.555173
26.890000	-1294.368821
26.900000	-308.937012
26.910000	-17.651628
26.920000	294.659172
26.930000	276.829137
26.940000	446.667775
26.950000	414.509860
26.960000	528.060720
26.970000	457.020847
26.980000	485.500331
26.990000	375.456864
27.000000	322.490148
27.010000	49.620763
27.020000	-317.722257
27.030000	-881.480622
27.040000	-1311.054104
27.050000	-1673.314465
27.060000	-1935.085248
27.070000	-2300.774917
27.080000	-2542.569958
27.090000	-2611.032606
27.100000	-2429.286560
27.110000	-2249.501222
27.120000	-2095.683584
27.130000	-2038.070459
27.140000	-2003.660721
27.150000	-2013.872419
27.160000	-2021.422411
27.170000	-2050.510465
27.180000	-2067.999536
27.190000	-2077.221406
27.200000	-2011.356519
27.210000	-1855.046011
27.220000	-1529.511414
27.230000	-1035.728197
27.240000	-395.361420
27.250000	188.118911
27.260000	446.640033
27.270000	368.699870
27.280000	186.339818
27.290000	80.169250
27.300000	114.082315
27.310000	203.260383
27.320000	319.009423
27.330000	524.300665
27.340000	884.306883
27.350000	1401.199135
27.360000	1928.561045
27.370000	2404.026839
27.380000	2873.477800
27.390000	3311.357174
27.400000	3629.922806
27.410000	3791.524326
27.420000	3774.444311
27.430000	3543.353646
27.440000	3108.122973
27.450000	2555.092775
27.460000	2009.942877
27.470000	1526.334022
27.480000	1103.312747
27.490000	728.577435
27.500000	421.469553
27.510000	188.819862
27.520000	40.668561
27.530000	-28.279770
27.540000	-38.808234
27.550000	-28.391839
27.560000	-9.850564
27.570000	-2.154043
27.580000	9.232557
27.590000	42.794704
27.600000	110.665003
27.610000	211.740546
27.620000	302.681563
27.630000	343.061181
27.640000	342.870061
27.650000	316.761421
27.660000	277.754203
27.670000	208.077224
27.680000	126.438665
27.690000	56.912776
