Time(s)	GREEN_denoised_median
0.000000	-760.208532
0.010000	-760.208532
0.020000	-760.208532
0.030000	-649.224894
0.040000	-518.417845
0.050000	-410.000913
0.060000	-281.367459
0.070000	-185.009842
0.080000	-42.928828
0.090000	65.580604
0.100000	206.942985
0.110000	300.802415
0.120000	437.319199
0.130000	516.539686
0.140000	670.371413
0.150000	766.592231
0.160000	935.186069
0.170000	935.186069
0.180000	935.186069
0.190000	731.083703
0.200000	-514.438386
0.210000	-520.732546
0.220000	-560.507572
0.230000	-580.980792
0.240000	-587.515703
0.250000	-599.653484
0.260000	-599.653484
0.270000	-599.653484
0.280000	-529.570062
0.290000	-492.222424
0.300000	-388.821219
0.310000	-323.930417
0.320000	-207.470955
0.330000	-111.014020
0.340000	22.301990
0.350000	138.669903
0.360000	279.409251
0.370000	407.212472
0.380000	553.782211
0.390000	685.653766
0.400000	831.404840
0.410000	964.023192
0.420000	1108.251978
0.430000	1236.332314
0.440000	1375.335140
0.450000	1501.589026
0.460000	1641.644717
0.470000	1773.803202
0.480000	1923.174344
0.490000	2069.987086
0.500000	2220.870940
0.510000	2220.870940
0.520000	2220.870940
0.530000	2170.377148
0.540000	1892.693056
0.550000	1578.925006
0.560000	1316.845630
0.570000	1138.424043
0.580000	1042.011697
0.590000	992.939583
0.600000	992.939583
0.610000	992.939583
0.620000	1029.824183
0.630000	1096.277390
0.640000	1147.375397
0.650000	1147.375397
0.660000	1147.375397
0.670000	1127.124798
0.680000	1097.967196
0.690000	1097.967196
0.700000	1097.967196
0.710000	1113.360710
0.720000	1157.064696
0.730000	1216.692846
0.740000	1286.260685
0.750000	1370.181734
0.760000	1460.552289
0.770000	1557.824261
0.780000	1667.991039
0.790000	1786.571171
0.800000	1917.587516
0.810000	2046.402404
0.820000	2172.359165
0.830000	2306.403460
0.840000	2432.194997
0.850000	2559.616823
0.860000	2684.132651
0.870000	2808.994130
0.880000	2930.194034
0.890000	3048.529393
0.900000	3163.397411
0.910000	3163.397411
0.920000	3163.397411
0.930000	3060.123349
0.940000	2798.958639
0.950000	2512.475030
0.960000	2261.410672
0.970000	2104.975363
0.980000	2010.764858
0.990000	1995.876893
1.000000	1995.876893
1.010000	1995.876893
1.020000	2050.475342
1.030000	2134.263803
1.040000	2178.785370
1.050000	2191.375340
1.060000	2191.375340
1.070000	2191.375340
1.080000	2169.224806
1.090000	2169.224806
1.100000	2169.224806
1.110000	2218.681354
1.120000	2242.416307
1.130000	2329.814127
1.140000	2366.489004
1.150000	2479.778370
1.160000	2523.980023
1.170000	2660.755730
1.180000	2707.695600
1.190000	2865.956806
1.200000	4077.617016
1.210000	4222.946315
1.220000	4222.946315
1.230000	4222.946315
1.240000	3982.677520
1.250000	3690.146275
1.260000	3289.897284
1.270000	3001.275600
1.280000	2747.478702
1.290000	2620.042745
1.300000	2506.676158
1.310000	2460.440292
1.320000	2405.461956
1.330000	2405.461956
1.340000	2405.461956
1.350000	2405.461956
1.360000	2405.461956
1.370000	2386.647237
1.380000	2322.114159
1.390000	2260.763934
1.400000	2200.040582
1.410000	2160.122298
1.420000	2150.348520
1.430000	2150.348520
1.440000	2150.348520
1.450000	2179.293105
1.460000	2226.869021
1.470000	2272.023576
1.480000	2348.721087
1.490000	2414.725335
1.500000	2508.976797
1.510000	2590.388070
1.520000	2703.648957
1.530000	2782.928168
1.540000	2906.898973
1.550000	2986.187705
1.560000	3113.830995
1.570000	3182.076757
1.580000	3182.076757
1.590000	3182.076757
1.600000	2400.243896
1.610000	2102.250115
1.620000	1948.038872
1.630000	1786.241183
1.640000	1708.682222
1.650000	1612.878847
1.660000	1586.026661
1.670000	1572.729027
1.680000	1570.298148
1.690000	1541.736035
1.700000	1479.759163
1.710000	1397.375455
1.720000	1303.964978
1.730000	1233.260503
1.740000	1159.185027
1.750000	1142.562494
1.760000	1138.474916
1.770000	1138.474916
1.780000	1138.474916
1.790000	1193.152658
1.800000	2065.490813
1.810000	2187.699604
1.820000	2245.422451
1.830000	2354.858578
1.840000	2413.930304
1.850000	2527.762043
1.860000	2601.062747
1.870000	2630.255605
1.880000	2630.255605
1.890000	2630.255605
1.900000	2364.703473
1.910000	1997.788035
1.920000	1595.692512
1.930000	1280.646561
1.940000	1049.508898
1.950000	903.688792
1.960000	808.396578
1.970000	744.945470
1.980000	732.686471
1.990000	724.954515
2.000000	711.407623
2.010000	711.407623
2.020000	698.206169
2.030000	623.561768
2.040000	549.103850
2.050000	459.159978
2.060000	407.357393
2.070000	362.016847
2.080000	362.016847
2.090000	362.016847
2.100000	398.187895
2.110000	404.148824
2.120000	478.049770
2.130000	506.824219
2.140000	609.710805
2.150000	649.957070
2.160000	779.324253
2.170000	826.361611
2.180000	826.361611
2.190000	826.361611
2.200000	-55.362496
2.210000	-80.248081
2.220000	-107.581078
2.230000	-142.635106
2.240000	-164.156270
2.250000	-275.525499
2.260000	-300.885553
2.270000	-351.799463
2.280000	-351.799463
2.290000	-351.799463
2.300000	-306.995534
2.310000	-285.556852
2.320000	-212.490620
2.330000	-165.314996
2.340000	-68.415683
2.350000	-0.347722
2.360000	110.219207
2.370000	202.404129
2.380000	320.289513
2.390000	427.080393
2.400000	553.691762
2.410000	658.703374
2.420000	780.457893
2.430000	882.264492
2.440000	996.557513
2.450000	1093.798432
2.460000	1212.987816
2.470000	1316.263089
2.480000	1439.762580
2.490000	1539.648678
2.500000	1539.648678
2.510000	1539.648678
2.520000	1438.454002
2.530000	1068.805209
2.540000	638.761775
2.550000	212.785239
2.560000	-83.626818
2.570000	-325.650589
2.580000	-461.532170
2.590000	-603.402608
2.600000	-1065.299216
2.610000	-1065.299216
2.620000	-1065.299216
2.630000	-1048.622162
2.640000	-982.182738
2.650000	-936.492361
2.660000	-850.575891
2.670000	-776.544576
2.680000	-669.574860
2.690000	-578.727343
2.700000	-454.175553
2.710000	-345.055870
2.720000	-215.417121
2.730000	-105.468773
2.740000	23.682758
2.750000	132.025170
2.760000	254.110385
2.770000	356.454582
2.780000	483.874787
2.790000	588.751206
2.800000	716.013860
2.810000	824.932409
2.820000	960.507623
2.830000	1076.982930
2.840000	1189.575085
2.850000	1189.575085
2.860000	1189.575085
2.870000	916.386253
2.880000	556.503432
2.890000	145.924651
2.900000	-824.952769
2.910000	-906.041207
2.920000	-963.658524
2.930000	-1022.583764
2.940000	-1059.119858
2.950000	-1059.119858
2.960000	-1059.119858
2.970000	-1022.226799
2.980000	-1003.234112
2.990000	-907.801220
3.000000	171.417337
3.010000	320.983617
3.020000	397.783816
3.030000	536.891444
3.040000	630.588327
3.050000	778.472931
3.060000	882.954863
3.070000	882.954863
3.080000	882.954863
3.090000	859.212688
3.100000	566.735233
3.110000	244.455441
3.120000	-56.542957
3.130000	-257.125697
3.140000	-394.041028
3.150000	-455.475724
3.160000	-477.211399
3.170000	-477.211399
3.180000	-477.211399
3.190000	-408.358864
3.200000	-350.953015
3.210000	-350.953015
3.220000	-350.953015
3.230000	-359.341545
3.240000	-400.230650
3.250000	-421.609493
3.260000	-421.609493
3.270000	-421.609493
3.280000	-386.427151
3.290000	-332.712924
3.300000	-270.941886
3.310000	-196.591273
3.320000	-108.378749
3.330000	-7.389977
3.340000	99.253336
3.350000	215.927804
3.360000	339.950313
3.370000	470.333902
3.380000	599.712806
3.390000	729.847476
3.400000	857.543468
3.410000	983.452760
3.420000	1104.444250
3.430000	1225.159258
3.440000	1342.402726
3.450000	1466.982779
3.460000	1587.377770
3.470000	1710.935353
3.480000	1831.391975
3.490000	1831.391975
3.500000	1831.391975
3.510000	1678.022849
3.520000	1338.540272
3.530000	955.469384
3.540000	627.793968
3.550000	387.804222
3.560000	223.998109
3.570000	118.190666
3.580000	44.249616
3.590000	-14.328016
3.600000	-14.328016
3.610000	-14.328016
3.620000	10.153902
3.630000	10.153902
3.640000	10.153902
3.650000	-24.761030
3.660000	-71.613880
3.670000	-115.085976
3.680000	-119.112667
3.690000	-119.112667
3.700000	-119.112667
3.710000	-82.630374
3.720000	-33.278736
3.730000	32.200021
3.740000	109.591576
3.750000	201.104194
3.760000	303.502308
3.770000	408.047859
3.780000	522.512222
3.790000	644.015339
3.800000	772.582413
3.810000	903.020007
3.820000	1028.699404
3.830000	1151.096894
3.840000	1273.871558
3.850000	1392.198853
3.860000	1506.104604
3.870000	1623.368867
3.880000	1739.349470
3.890000	1860.614781
3.900000	1982.608048
3.910000	2083.113498
3.920000	2083.113498
3.930000	2083.113498
3.940000	1851.223957
3.950000	1497.507962
3.960000	1125.879243
3.970000	820.887302
3.980000	601.391233
3.990000	450.203827
4.000000	350.940672
4.010000	275.522525
4.020000	220.591351
4.030000	214.234004
4.040000	214.226582
4.050000	206.032373
4.060000	206.032373
4.070000	155.465359
4.080000	88.029596
4.090000	14.683412
4.100000	-41.915382
4.110000	-72.009518
4.120000	-72.009518
4.130000	-72.009518
4.140000	-41.606344
4.150000	-11.939355
4.160000	46.749803
4.170000	105.989793
4.180000	196.285888
4.190000	278.745324
4.200000	388.040049
4.210000	483.308456
4.220000	603.026210
4.230000	706.667730
4.240000	842.267759
4.250000	941.719186
4.260000	1071.890222
4.270000	1163.405647
4.280000	1302.949529
4.290000	1392.592269
4.300000	1545.595099
4.310000	1656.182487
4.320000	1835.841571
4.330000	1891.902593
4.340000	1891.902593
4.350000	1891.902593
4.360000	1698.967827
4.370000	1280.833669
4.380000	976.501304
4.390000	590.292923
4.400000	-918.289977
4.410000	-1040.185141
4.420000	-1064.571172
4.430000	-1073.591979
4.440000	-1073.591979
4.450000	-1073.591979
4.460000	-1053.809291
4.470000	-1046.662843
4.480000	-942.598585
4.490000	-931.035762
4.500000	-806.366544
4.510000	-761.392514
4.520000	-589.053699
4.530000	-502.923060
4.540000	-308.639973
4.550000	-220.596857
4.560000	-25.072018
4.570000	41.470220
4.580000	41.470220
4.590000	41.470220
4.600000	-962.738031
4.610000	-1077.228465
4.620000	-1077.228465
4.630000	-1077.228465
4.640000	-1050.018194
4.650000	-1045.533928
4.660000	-1029.237498
4.670000	-1029.237498
4.680000	-1029.237498
4.690000	-1094.282364
4.700000	-1105.840572
4.710000	-1133.258840
4.720000	-1133.258840
4.730000	-1133.258840
4.740000	-1086.876991
4.750000	-1054.864550
4.760000	-985.468216
4.770000	-914.754052
4.780000	-810.916547
4.790000	-715.890533
4.800000	-608.236179
4.810000	-503.173983
4.820000	-391.536014
4.830000	-275.536787
4.840000	-153.875187
4.850000	-26.954166
4.860000	80.668504
4.870000	80.668504
4.880000	80.668504
4.890000	-25.612343
4.900000	-333.885230
4.910000	-652.532194
4.920000	-962.041631
4.930000	-1168.304231
4.940000	-1354.743605
4.950000	-1449.709195
4.960000	-1564.006437
4.970000	-1589.889677
4.980000	-1589.889677
4.990000	-1589.889677
5.000000	-733.338054
5.010000	-583.233238
5.020000	-510.005119
5.030000	-383.012778
5.040000	-383.012778
5.050000	-383.012778
5.060000	-521.424168
5.070000	-814.271171
5.080000	-1185.693180
5.090000	-1494.831484
5.100000	-1764.482952
5.110000	-1938.246328
5.120000	-2081.680529
5.130000	-2172.493483
5.140000	-2252.127512
5.150000	-2252.127512
5.160000	-2252.127512
5.170000	-2266.752243
5.180000	-2257.544689
5.190000	-2246.675831
5.200000	-2240.763829
5.210000	-2161.951607
5.220000	-2064.778979
5.230000	-1962.990243
5.240000	-1851.087666
5.250000	-1744.167204
5.260000	-1627.396506
5.270000	-1527.541352
5.280000	-1416.638536
5.290000	-1324.157309
5.300000	-1210.776244
5.310000	-1122.091658
5.320000	-1005.730564
5.330000	-916.406347
5.340000	-827.066447
5.350000	-827.066447
5.360000	-827.066447
5.370000	-1087.405289
5.380000	-1403.064701
5.390000	-1776.059310
5.400000	-2573.154499
5.410000	-2669.707269
5.420000	-2704.177458
5.430000	-2769.757314
5.440000	-2769.757314
5.450000	-2769.757314
5.460000	-2750.997512
5.470000	-2736.140430
5.480000	-2677.951592
5.490000	-2628.894061
5.500000	-2549.747638
5.510000	-2479.957847
5.520000	-2385.436107
5.530000	-2302.309156
5.540000	-2207.055684
5.550000	-2111.853703
5.560000	-2008.715297
5.570000	-1912.556803
5.580000	-1814.405150
5.590000	-1709.367160
5.600000	-1612.245335
5.610000	-1510.198000
5.620000	-1406.225605
5.630000	-1406.225605
5.640000	-1406.225605
5.650000	-1492.145628
5.660000	-1780.667852
5.670000	-2092.924042
5.680000	-2381.143427
5.690000	-2580.753757
5.700000	-2851.332177
5.710000	-2851.332177
5.720000	-2851.332177
5.730000	-2824.047567
5.740000	-2806.783691
5.750000	-2717.340661
5.760000	-2684.009168
5.770000	-2566.995091
5.780000	-2521.141487
5.790000	-2363.820162
5.800000	-1114.178871
5.810000	-946.408142
5.820000	-909.407529
5.830000	-909.407529
5.840000	-909.407529
5.850000	-1117.258891
5.860000	-1489.866759
5.870000	-1793.392664
5.880000	-2091.238798
5.890000	-2269.134700
5.900000	-2426.293265
5.910000	-2506.545863
5.920000	-2599.844758
5.930000	-2602.497915
5.940000	-2602.497915
5.950000	-2602.497915
5.960000	-2584.017555
5.970000	-2584.017555
5.980000	-2584.017555
5.990000	-2614.679328
6.000000	-2662.004129
6.010000	-2670.581200
6.020000	-2670.581200
6.030000	-2670.581200
6.040000	-2638.698455
6.050000	-2580.033634
6.060000	-2512.320188
6.070000	-2423.495007
6.080000	-2331.113589
6.090000	-2221.961712
6.100000	-2108.065669
6.110000	-1982.465121
6.120000	-1859.163663
6.130000	-1738.017475
6.140000	-1619.350201
6.150000	-1490.621203
6.160000	-1369.706420
6.170000	-1246.232907
6.180000	-1125.189811
6.190000	-1004.910718
6.200000	-886.765327
6.210000	-759.637412
6.220000	-638.495049
6.230000	-504.352793
6.240000	-377.413722
6.250000	-341.934328
6.260000	-341.934328
6.270000	-341.934328
6.280000	-623.677216
6.290000	-978.597297
6.300000	-1311.806809
6.310000	-1571.455335
6.320000	-1763.170481
6.330000	-1894.393907
6.340000	-1997.678005
6.350000	-2075.323595
6.360000	-2126.089325
6.370000	-2126.089325
6.380000	-2126.089325
6.390000	-2093.152410
6.400000	-1940.664315
6.410000	-1829.881479
6.420000	-1726.772028
6.430000	-1610.715701
6.440000	-1497.046016
6.450000	-1367.524436
6.460000	-1243.494627
6.470000	-1109.296625
6.480000	-984.103165
6.490000	-858.052486
6.500000	-732.805926
6.510000	-603.853117
6.520000	-487.627073
6.530000	-363.612270
6.540000	-245.601589
6.550000	-110.327905
6.560000	15.228487
6.570000	156.042632
6.580000	291.878732
6.590000	436.451633
6.600000	436.451633
6.610000	436.451633
6.620000	411.674309
6.630000	141.374975
6.640000	-190.047838
6.650000	-460.857419
6.660000	-682.183644
6.670000	-819.010943
6.680000	-925.611696
6.690000	-969.973624
6.700000	-1003.618400
6.710000	-1003.618400
6.720000	-1003.618400
6.730000	-935.821314
6.740000	-935.821314
6.750000	-935.821314
6.760000	-949.607888
6.770000	-950.821394
6.780000	-950.821394
6.790000	-950.821394
6.800000	-149.962090
6.810000	16.052762
6.820000	100.235724
6.830000	252.235460
6.840000	338.623573
6.850000	482.090078
6.860000	573.343680
6.870000	709.481908
6.880000	804.532258
6.890000	941.309546
6.900000	1046.264517
6.910000	1190.508574
6.920000	1298.569160
6.930000	1447.101330
6.940000	1568.454256
6.950000	1607.129663
6.960000	1607.129663
6.970000	1607.129663
6.980000	1355.196466
6.990000	1089.742303
7.000000	832.185579
7.010000	681.550959
7.020000	561.677227
7.030000	527.704767
7.040000	512.461053
7.050000	512.461053
7.060000	512.461053
7.070000	585.198410
7.080000	608.647496
7.090000	621.258929
7.100000	621.258929
7.110000	621.258929
7.120000	580.765923
7.130000	580.765923
7.140000	580.765923
7.150000	598.141626
7.160000	608.605988
7.170000	708.843880
7.180000	714.578070
7.190000	850.973152
7.200000	1745.303117
7.210000	1745.303117
7.220000	1745.303117
7.230000	1665.367927
7.240000	1543.121446
7.250000	1535.419857
7.260000	1527.624716
7.270000	1527.624716
7.280000	1527.624716
7.290000	1616.451369
7.300000	1616.451369
7.310000	1616.451369
7.320000	1611.922605
7.330000	1601.491889
7.340000	1551.318207
7.350000	1551.318207
7.360000	1551.318207
7.370000	1571.400504
7.380000	1591.881273
7.390000	1649.412245
7.400000	1697.200416
7.410000	1777.680865
7.420000	1851.306747
7.430000	1950.159112
7.440000	2049.269809
7.450000	2163.761406
7.460000	2268.135742
7.470000	2392.531440
7.480000	2505.848884
7.490000	2624.447692
7.500000	2739.509187
7.510000	2858.425213
7.520000	2968.130464
7.530000	3086.505289
7.540000	3199.682485
7.550000	3319.674748
7.560000	3438.197402
7.570000	3515.050840
7.580000	3515.050840
7.590000	3515.050840
7.600000	3273.125569
7.610000	2930.480695
7.620000	2585.791770
7.630000	2302.835154
7.640000	2093.335643
7.650000	1952.164120
7.660000	1856.852837
7.670000	1783.510251
7.680000	1727.443961
7.690000	1727.443961
7.700000	1724.542405
7.710000	1720.981429
7.720000	1720.981429
7.730000	1691.851296
7.740000	1636.112876
7.750000	1575.431511
7.760000	1516.674247
7.770000	1479.067461
7.780000	1479.067461
7.790000	1479.067461
7.800000	1492.764364
7.810000	1527.374184
7.820000	1574.360169
7.830000	1637.062753
7.840000	1708.950547
7.850000	1792.798515
7.860000	1881.535453
7.870000	1975.576337
7.880000	2079.152253
7.890000	2183.339344
7.900000	2283.802864
7.910000	2389.159007
7.920000	2492.431600
7.930000	2595.022481
7.940000	2698.080277
7.950000	2802.906832
7.960000	2903.729783
7.970000	3010.855390
7.980000	3116.349004
7.990000	3181.783040
8.000000	3181.783040
8.010000	3181.783040
8.020000	2934.461601
8.030000	2566.993548
8.040000	2188.252698
8.050000	1879.144911
8.060000	1645.855861
8.070000	1490.301445
8.080000	1379.379338
8.090000	1321.588317
8.100000	1293.972379
8.110000	1293.972379
8.120000	1293.047851
8.130000	1293.047851
8.140000	1293.047851
8.150000	1260.643959
8.160000	1191.989606
8.170000	1140.749210
8.180000	1067.688159
8.190000	1014.087056
8.200000	928.141997
8.210000	852.695292
8.220000	724.313861
8.230000	638.750138
8.240000	521.025667
8.250000	470.291578
8.260000	406.383769
8.270000	406.383769
8.280000	406.383769
8.290000	433.223132
8.300000	1256.094687
8.310000	1256.094687
8.320000	1256.094687
8.330000	1019.526985
8.340000	667.556986
8.350000	389.619122
8.360000	130.349136
8.370000	-69.021814
8.380000	-261.115458
8.390000	-402.398215
8.400000	-742.111568
8.410000	-742.111568
8.420000	-742.111568
8.430000	-707.834341
8.440000	-666.808599
8.450000	-617.102275
8.460000	-551.494744
8.470000	-475.409142
8.480000	-384.157887
8.490000	-294.781013
8.500000	-190.734672
8.510000	-91.257599
8.520000	18.775939
8.530000	127.183270
8.540000	241.332158
8.550000	342.543962
8.560000	342.543962
8.570000	342.543962
8.580000	328.669946
8.590000	61.789486
8.600000	-256.270291
8.610000	-576.230191
8.620000	-818.138820
8.630000	-1013.569274
8.640000	-1123.828007
8.650000	-1221.227444
8.660000	-1236.196629
8.670000	-1236.196629
8.680000	-1236.196629
8.690000	-1210.748202
8.700000	-1100.537786
8.710000	-1056.065548
8.720000	-945.120317
8.730000	-886.089537
8.740000	-741.017623
8.750000	-678.976120
8.760000	-514.962234
8.770000	-457.965099
8.780000	-457.965099
8.790000	-457.965099
8.800000	-1558.233493
8.810000	-1644.561980
8.820000	-1644.561980
8.830000	-1644.561980
8.840000	-1584.131551
8.850000	-1584.131551
8.860000	-1584.131551
8.870000	-1600.254315
8.880000	-1602.623545
8.890000	-1670.756156
8.900000	-1670.756156
8.910000	-1675.035535
8.920000	-1670.756156
8.930000	-1670.132028
8.940000	-1599.793759
8.950000	-1572.523896
8.960000	-1472.800750
8.970000	-1430.728560
8.980000	-1299.074514
8.990000	-1234.797494
9.000000	-1089.538762
9.010000	-1020.735652
9.020000	-868.160110
9.030000	-807.626622
9.040000	-646.800402
9.050000	-591.641876
9.060000	-420.296242
9.070000	-384.990037
9.080000	-384.990037
9.090000	-384.990037
9.100000	-1779.019932
9.110000	-1779.019932
9.120000	-1779.019932
9.130000	-1778.460624
9.140000	-1635.458541
9.150000	-1594.098063
9.160000	-1447.691766
9.170000	-1383.851335
9.180000	-1240.998931
9.190000	-1158.464233
9.200000	-1015.625419
9.210000	-933.774998
9.220000	-796.632950
9.230000	-701.706616
9.240000	-577.209282
9.250000	-577.209282
9.260000	-577.209282
9.270000	-742.913715
9.280000	-1024.383133
9.290000	-1342.794029
9.300000	-1598.138021
9.310000	-1787.976760
9.320000	-1911.933073
9.330000	-1982.228659
9.340000	-1996.854454
9.350000	-1996.854454
9.360000	-1996.854454
9.370000	-1929.453547
9.380000	-1897.676003
9.390000	-1897.676003
9.400000	-1897.676003
9.410000	-1904.836561
9.420000	-1943.888580
9.430000	-1943.888580
9.440000	-1943.888580
9.450000	-1920.339237
9.460000	-1917.684845
9.470000	-1828.093497
9.480000	-1808.893703
9.490000	-1687.976837
9.500000	-525.026384
9.510000	-347.043751
9.520000	-282.230742
9.530000	-275.125782
9.540000	-275.125782
9.550000	-275.125782
9.560000	-582.666051
9.570000	-893.409184
9.580000	-1225.294767
9.590000	-1445.310221
9.600000	-1637.551840
9.610000	-1730.816574
9.620000	-1832.330637
9.630000	-1880.891767
9.640000	-1880.891767
9.650000	-1880.891767
9.660000	-1861.872175
9.670000	-1857.801926
9.680000	-1857.801926
9.690000	-1857.801926
9.700000	-1904.398626
9.710000	-1940.165592
9.720000	-1948.459434
9.730000	-1948.459434
9.740000	-1948.459434
9.750000	-1905.665574
9.760000	-1848.716819
9.770000	-1780.850691
9.780000	-1702.994736
9.790000	-1614.056737
9.800000	-1512.296941
9.810000	-1397.292046
9.820000	-1280.657428
9.830000	-1162.520578
9.840000	-1040.034071
9.850000	-922.807194
9.860000	-798.373488
9.870000	-685.201713
9.880000	-572.655426
9.890000	-466.663709
9.900000	-354.908742
9.910000	-238.182718
9.920000	-114.174046
9.930000	-11.807539
9.940000	-11.807539
9.950000	-11.807539
9.960000	-88.264018
9.970000	-379.744035
9.980000	-674.873175
9.990000	-947.984757
10.000000	-1341.961805
10.010000	-1390.568525
10.020000	-1393.287741
10.030000	-1393.287741
10.040000	-1393.287741
10.050000	-1367.419376
10.060000	-1310.200025
10.070000	-1258.646926
10.080000	-1177.927259
10.090000	-1100.069838
10.100000	-997.501937
10.110000	-902.668154
10.120000	-790.929803
10.130000	-679.390493
10.140000	-560.298173
10.150000	-437.151898
10.160000	-308.660940
10.170000	-191.970878
10.180000	-75.952368
10.190000	35.162249
10.200000	148.783100
10.210000	261.260541
10.220000	376.535579
10.230000	493.341312
10.240000	622.318163
10.250000	747.346601
10.260000	871.151134
10.270000	871.151134
10.280000	871.151134
10.290000	687.232404
10.300000	421.907893
10.310000	174.320876
10.320000	-13.229222
10.330000	-134.687406
10.340000	-201.410785
10.350000	-222.706921
10.360000	-222.706921
10.370000	-222.706921
10.380000	-172.717694
10.390000	-117.731383
10.400000	-92.921858
10.410000	-92.921858
10.420000	-92.921858
10.430000	-122.780897
10.440000	-122.780897
10.450000	-122.780897
10.460000	-116.958295
10.470000	-78.875241
10.480000	-27.960683
10.490000	33.081971
10.500000	107.064863
10.510000	187.025714
10.520000	274.126695
10.530000	373.996289
10.540000	475.156698
10.550000	588.042795
10.560000	708.162037
10.570000	829.100942
10.580000	950.200680
10.590000	1071.178198
10.600000	1193.262121
10.610000	1306.243250
10.620000	1422.405111
10.630000	1536.279869
10.640000	1649.588712
10.650000	1767.346935
10.660000	1889.781083
10.670000	2005.404268
10.680000	2005.404268
10.690000	2005.404268
10.700000	1969.275721
10.710000	1717.496307
10.720000	1414.683612
10.730000	1146.750411
10.740000	947.975394
10.750000	807.907791
10.760000	730.332820
10.770000	668.954575
10.780000	638.395953
10.790000	638.395953
10.800000	638.395953
10.810000	668.072105
10.820000	668.072105
10.830000	668.072105
10.840000	642.739184
10.850000	593.134178
10.860000	558.577757
10.870000	532.902484
10.880000	532.902484
10.890000	532.902484
10.900000	577.743756
10.910000	611.550996
10.920000	673.183784
10.930000	730.036152
10.940000	815.839282
10.950000	888.346235
10.960000	993.771688
10.970000	1077.413410
10.980000	1195.042106
10.990000	1287.199005
11.000000	1413.675267
11.010000	1497.644888
11.020000	1633.815369
11.030000	1721.590449
11.040000	1858.536109
11.050000	1925.978728
11.060000	2068.015460
11.070000	2135.598997
11.080000	2135.598997
11.090000	2135.598997
11.100000	1307.569745
11.110000	1149.223655
11.120000	1118.255506
11.130000	1037.999370
11.140000	1037.999370
11.150000	1029.412373
11.160000	1029.412373
11.170000	1020.665615
11.180000	1020.665615
11.190000	942.956442
11.200000	902.421680
11.210000	832.064420
11.220000	815.631316
11.230000	815.631316
11.240000	815.631316
11.250000	823.280603
11.260000	867.075350
11.270000	910.636373
11.280000	982.123783
11.290000	1045.856964
11.300000	1137.408148
11.310000	1220.921663
11.320000	1319.895879
11.330000	1419.922643
11.340000	1532.495184
11.350000	1639.883825
11.360000	1750.205966
11.370000	1859.853301
11.380000	1966.962043
11.390000	2075.880334
11.400000	2175.716739
11.410000	2281.017677
11.420000	2386.457252
11.430000	2496.221486
11.440000	2602.204272
11.450000	2728.554063
11.460000	2838.824941
11.470000	2838.824941
11.480000	2838.824941
11.490000	2764.856876
11.500000	2467.508738
11.510000	2165.156509
11.520000	1881.565072
11.530000	1703.668519
11.540000	1560.225608
11.550000	1509.574826
11.560000	1455.061173
11.570000	1455.061173
11.580000	1455.061173
11.590000	1533.084987
11.600000	2304.507481
11.610000	2443.834536
11.620000	2518.985391
11.630000	2648.385576
11.640000	2731.898720
11.650000	2861.499617
11.660000	2957.375197
11.670000	3071.749258
11.680000	3071.749258
11.690000	3071.749258
11.700000	2862.509560
11.710000	2560.902612
11.720000	2233.549875
11.730000	1965.137418
11.740000	1771.432214
11.750000	1651.356741
11.760000	1575.266327
11.770000	1533.887265
11.780000	1533.887265
11.790000	1533.887265
11.800000	1589.246283
11.810000	1589.246283
11.820000	1589.246283
11.830000	1550.636215
11.840000	1513.526747
11.850000	1429.952905
11.860000	1402.897809
11.870000	1373.824088
11.880000	1373.824088
11.890000	1373.824088
11.900000	1406.206578
11.910000	1413.586355
11.920000	1503.398266
11.930000	1506.371554
11.940000	1645.435692
11.950000	1659.175730
11.960000	1839.076505
11.970000	1864.279697
11.980000	1864.279697
11.990000	1864.279697
12.000000	-69.087382
12.010000	-84.240303
12.020000	-162.737416
12.030000	-180.359156
12.040000	-183.994041
12.050000	-331.509822
12.060000	-364.587501
12.070000	-503.575203
12.080000	-505.097739
12.090000	-541.477841
12.100000	-541.477841
12.110000	-541.477841
12.120000	-467.956603
12.130000	-446.398138
12.140000	-363.636929
12.150000	-334.243984
12.160000	-251.708505
12.170000	-207.633204
12.180000	-113.284785
12.190000	-43.472385
12.200000	72.537131
12.210000	162.292856
12.220000	281.708532
12.230000	379.760540
12.240000	490.107906
12.250000	503.986566
12.260000	503.986566
12.270000	503.986566
12.280000	271.416393
12.290000	-67.029586
12.300000	-386.493855
12.310000	-670.353071
12.320000	-873.336266
12.330000	-1033.918197
12.340000	-1139.049567
12.350000	-1226.636454
12.360000	-1251.016787
12.370000	-1253.691165
12.380000	-1265.587307
12.390000	-1280.522435
12.400000	-1253.691165
12.410000	-1253.691165
12.420000	-1232.020803
12.430000	-1156.923472
12.440000	-1063.447989
12.450000	-973.055429
12.460000	-867.788108
12.470000	-770.320870
12.480000	-664.042886
12.490000	-569.712180
12.500000	-558.405557
12.510000	-558.405557
12.520000	-558.405557
12.530000	-800.915293
12.540000	-1113.359057
12.550000	-1427.516786
12.560000	-1684.365644
12.570000	-1871.274160
12.580000	-1998.464092
12.590000	-2090.099538
12.600000	-2151.714864
12.610000	-2151.714864
12.620000	-2151.714864
12.630000	-2111.809414
12.640000	-2111.809414
12.650000	-2111.809414
12.660000	-2122.009075
12.670000	-2172.695286
12.680000	-2221.143632
12.690000	-2241.810605
12.700000	-2241.810605
12.710000	-2241.810605
12.720000	-2212.511815
12.730000	-2167.963391
12.740000	-2110.734661
12.750000	-2042.150589
12.760000	-1964.999751
12.770000	-1878.366216
12.780000	-1786.317498
12.790000	-1686.603816
12.800000	-1579.682345
12.810000	-1473.903091
12.820000	-1365.053005
12.830000	-1253.254904
12.840000	-1139.466891
12.850000	-1032.669978
12.860000	-932.897713
12.870000	-932.897713
12.880000	-932.897713
12.890000	-935.645912
12.900000	-1182.016344
12.910000	-1495.050969
12.920000	-1786.469320
12.930000	-2015.630202
12.940000	-2179.067965
12.950000	-2289.297110
12.960000	-2366.732301
12.970000	-2407.688705
12.980000	-2407.688705
12.990000	-2407.688705
13.000000	-2377.241957
13.010000	-2377.241957
13.020000	-2377.241957
13.030000	-2408.119214
13.040000	-2453.966496
13.050000	-2496.907974
13.060000	-2511.837562
13.070000	-2511.837562
13.080000	-2511.837562
13.090000	-2479.644503
13.100000	-2438.888629
13.110000	-2380.518776
13.120000	-2312.030468
13.130000	-2232.414972
13.140000	-2145.230069
13.150000	-2045.332412
13.160000	-1947.529520
13.170000	-1846.238799
13.180000	-1742.893074
13.190000	-1641.196132
13.200000	-1541.291417
13.210000	-1432.167244
13.220000	-1327.802658
13.230000	-1217.113607
13.240000	-1161.324345
13.250000	-1161.324345
13.260000	-1161.324345
13.270000	-1351.846500
13.280000	-1618.189457
13.290000	-1858.450050
13.300000	-2049.313090
13.310000	-2161.078501
13.320000	-2240.689420
13.330000	-2248.869221
13.340000	-2248.869221
13.350000	-2248.869221
13.360000	-2202.183533
13.370000	-2130.946647
13.380000	-2130.946647
13.390000	-2130.946647
13.400000	-2160.120115
13.410000	-2161.956810
13.420000	-2169.744408
13.430000	-2169.744408
13.440000	-2169.744408
13.450000	-2101.877643
13.460000	-2084.947687
13.470000	-1977.216890
13.480000	-1952.592379
13.490000	-1818.585727
13.500000	-659.285571
13.510000	-492.045934
13.520000	-464.981320
13.530000	-464.981320
13.540000	-464.981320
13.550000	-632.923199
13.560000	-932.581064
13.570000	-1163.584479
13.580000	-1395.954745
13.590000	-1513.765789
13.600000	-1641.017606
13.610000	-1683.377082
13.620000	-1755.684064
13.630000	-1755.684064
13.640000	-1755.684064
13.650000	-1698.138240
13.660000	-1693.536640
13.670000	-1693.536640
13.680000	-1693.536640
13.690000	-1701.301786
13.700000	-1735.806563
13.710000	-1735.806563
13.720000	-1735.806563
13.730000	-1689.933878
13.740000	-1659.274640
13.750000	-1573.621540
13.760000	-1525.144699
13.770000	-1414.803404
13.780000	-1352.607577
13.790000	-1218.370922
13.800000	-607.164089
13.810000	-607.164089
13.820000	-607.164089
13.830000	-610.401155
13.840000	-635.895057
13.850000	-635.895057
13.860000	-635.895057
13.870000	-582.123846
13.880000	-541.404898
13.890000	-461.969184
13.900000	-403.229481
13.910000	-311.512496
13.920000	-235.342528
13.930000	-133.817157
13.940000	-44.677735
13.950000	67.072611
13.960000	168.796752
13.970000	282.107648
13.980000	387.154431
13.990000	502.245374
14.000000	606.402897
14.010000	713.478252
14.020000	814.589215
14.030000	926.783436
14.040000	1033.685615
14.050000	1145.163365
14.060000	1253.737820
14.070000	1374.609809
14.080000	1493.714635
14.090000	1618.120046
14.100000	1738.653347
14.110000	1738.653347
14.120000	1738.653347
14.130000	1607.165616
14.140000	1367.538037
14.150000	1127.870744
14.160000	939.502280
14.170000	807.460155
14.180000	728.455834
14.190000	672.990397
14.200000	637.494090
14.210000	637.494090
14.220000	637.494090
14.230000	657.968259
14.240000	657.968259
14.250000	657.968259
14.260000	623.028035
14.270000	574.860101
14.280000	534.338621
14.290000	493.255765
14.300000	493.255765
14.310000	493.255765
14.320000	520.436437
14.330000	543.537028
14.340000	594.314747
14.350000	636.416196
14.360000	709.425176
14.370000	769.089252
14.380000	864.817600
14.390000	934.481297
14.400000	1044.589259
14.410000	1119.509444
14.420000	1234.803261
14.430000	1309.134305
14.440000	1433.518848
14.450000	1504.253113
14.460000	1630.849355
14.470000	1691.767158
14.480000	1691.767158
14.490000	1691.767158
14.500000	940.941351
14.510000	838.861411
14.520000	832.856640
14.530000	829.553553
14.540000	829.553553
14.550000	817.263109
14.560000	817.263109
14.570000	789.119414
14.580000	752.828394
14.590000	691.705430
14.600000	651.980389
14.610000	634.622697
14.620000	634.622697
14.630000	634.622697
14.640000	654.504758
14.650000	702.216225
14.660000	734.629166
14.670000	806.116574
14.680000	851.464555
14.690000	951.457760
14.700000	1084.286573
14.710000	1084.286573
14.720000	1084.286573
14.730000	979.732827
14.740000	864.957860
14.750000	801.432252
14.760000	730.341266
14.770000	726.541659
14.780000	722.982668
14.790000	714.354404
14.800000	683.140908
14.810000	644.795415
14.820000	575.746271
14.830000	520.864705
14.840000	463.227091
14.850000	443.397919
14.860000	443.397919
14.870000	443.397919
14.880000	461.101655
14.890000	502.846840
14.900000	548.471603
14.910000	616.449219
14.920000	687.786285
14.930000	778.194851
14.940000	870.057648
14.950000	970.055728
14.960000	1071.340639
14.970000	1171.979167
14.980000	1271.677463
14.990000	1375.968203
15.000000	1482.041222
15.010000	1583.998854
15.020000	1685.481510
15.030000	1788.074422
15.040000	1883.946719
15.050000	1992.275159
15.060000	2101.378360
15.070000	2215.571204
15.080000	2339.863457
15.090000	2461.871183
15.100000	2509.952896
15.110000	2509.952896
15.120000	2509.952896
15.130000	2272.576150
15.140000	1964.752533
15.150000	1662.116122
15.160000	1428.572370
15.170000	1264.534165
15.180000	1165.431011
15.190000	1097.925713
15.200000	1051.404594
15.210000	1051.404594
15.220000	1051.404594
15.230000	1077.780903
15.240000	1077.780903
15.250000	1077.780903
15.260000	1058.978560
15.270000	1000.629141
15.280000	955.473772
15.290000	912.971615
15.300000	912.971615
15.310000	912.971615
15.320000	921.918435
15.330000	946.432659
15.340000	999.953613
15.350000	1044.472644
15.360000	1118.250155
15.370000	1179.344140
15.380000	1276.848429
15.390000	1345.954384
15.400000	1456.869010
15.410000	1539.229898
15.420000	1664.329882
15.430000	1745.121605
15.440000	1873.332711
15.450000	1946.530816
15.460000	2073.967555
15.470000	2139.371038
15.480000	2139.371038
15.490000	2139.371038
15.500000	1525.062152
15.510000	1521.228056
15.520000	1521.228056
15.530000	1521.228056
15.540000	1626.118846
15.550000	1646.454157
15.560000	1653.610698
15.570000	1653.610698
15.580000	1653.610698
15.590000	1585.993677
15.600000	1585.993677
15.610000	1585.993677
15.620000	1589.252310
15.630000	1589.811750
15.640000	1651.850769
15.650000	1677.596303
15.660000	1758.461913
15.670000	1797.465747
15.680000	1900.674769
15.690000	1952.770745
15.700000	2070.568369
15.710000	2129.455378
15.720000	2265.219457
15.730000	2327.395609
15.740000	2474.761235
15.750000	2533.463083
15.760000	2684.317468
15.770000	2729.530480
15.780000	2729.530480
15.790000	2729.530480
15.800000	1576.706718
15.810000	1576.706718
15.820000	1576.706718
15.830000	1579.071110
15.840000	1637.148915
15.850000	1637.148915
15.860000	1637.148915
15.870000	1559.507393
15.880000	1531.977177
15.890000	1457.222621
15.900000	1430.152504
15.910000	1367.479434
15.920000	1313.709130
15.930000	1220.510853
15.940000	1128.539026
15.950000	1053.501889
15.960000	984.322747
15.970000	946.620357
15.980000	946.620357
15.990000	946.620357
16.000000	1203.288909
16.010000	1203.288909
16.020000	1203.288909
16.030000	923.636275
16.040000	597.496884
16.050000	341.766675
16.060000	118.298646
16.070000	-23.844585
16.080000	-155.210110
16.090000	-263.210324
16.100000	-383.835921
16.110000	-453.286423
16.120000	-489.671960
16.130000	-499.316216
16.140000	-519.580119
16.150000	-547.222168
16.160000	-605.549674
16.170000	-668.983124
16.180000	-728.554925
16.190000	-766.711358
16.200000	-766.711358
16.210000	-766.711358
16.220000	-758.761993
16.230000	-721.979875
16.240000	-674.911916
16.250000	-615.567697
16.260000	-551.083173
16.270000	-471.104504
16.280000	-389.318230
16.290000	-302.593640
16.300000	-214.571148
16.310000	-118.053014
16.320000	-18.860568
16.330000	76.484205
16.340000	166.862631
16.350000	166.862631
16.360000	166.862631
16.370000	66.479547
16.380000	-191.752269
16.390000	-485.831065
16.400000	-755.040249
16.410000	-966.224775
16.420000	-1127.449577
16.430000	-1247.629686
16.440000	-1336.871771
16.450000	-1411.060780
16.460000	-1411.060780
16.470000	-1411.060780
16.480000	-1399.039269
16.490000	-1399.039269
16.500000	-1399.039269
16.510000	-1434.484720
16.520000	-1486.527294
16.530000	-1524.830435
16.540000	-1539.688090
16.550000	-1539.688090
16.560000	-1539.688090
16.570000	-1511.641975
16.580000	-1465.228925
16.590000	-1408.147092
16.600000	-1337.761441
16.610000	-1263.706547
16.620000	-1181.275774
16.630000	-1096.316755
16.640000	-1000.774238
16.650000	-901.992119
16.660000	-803.285032
16.670000	-701.674125
16.680000	-607.857846
16.690000	-544.096968
16.700000	-544.096968
16.710000	-544.096968
16.720000	-738.217078
16.730000	-1020.693334
16.740000	-1308.776383
16.750000	-1549.399238
16.760000	-1734.487768
16.770000	-1870.173145
16.780000	-1972.255167
16.790000	-2047.953405
16.800000	-2058.935859
16.810000	-2058.935859
16.820000	-2058.935859
16.830000	-2038.355364
16.840000	-2038.355364
16.850000	-2038.355364
16.860000	-2076.768806
16.870000	-2122.186792
16.880000	-2145.688122
16.890000	-2145.688122
16.900000	-2145.688122
16.910000	-2114.973538
16.920000	-2075.823209
16.930000	-2021.809030
16.940000	-1958.025277
16.950000	-1883.663903
16.960000	-1799.266888
16.970000	-1708.563598
16.980000	-1605.517966
16.990000	-1493.525694
17.000000	-1381.821777
17.010000	-1271.502321
17.020000	-1169.177798
17.030000	-1060.458503
17.040000	-955.639012
17.050000	-852.417641
17.060000	-750.142458
17.070000	-645.407056
17.080000	-645.407056
17.090000	-645.407056
17.100000	-659.501322
17.110000	-898.360569
17.120000	-1195.136382
17.130000	-1458.205875
17.140000	-1677.032866
17.150000	-1816.021170
17.160000	-1923.197941
17.170000	-1986.710997
17.180000	-2039.188265
17.190000	-2039.188265
17.200000	-2039.188265
17.210000	-2016.549231
17.220000	-2016.549231
17.230000	-2016.549231
17.240000	-2081.448343
17.250000	-2114.223504
17.260000	-2180.193696
17.270000	-2180.193696
17.280000	-2180.193696
17.290000	-2175.198219
17.300000	-1966.900118
17.310000	-1966.900118
17.320000	-1966.900118
17.330000	-2011.597406
17.340000	-2070.083939
17.350000	-2070.083939
17.360000	-2070.083939
17.370000	-2002.287837
17.380000	-1965.336059
17.390000	-1961.849290
17.400000	-1961.849290
17.410000	-1961.849290
17.420000	-1999.605839
17.430000	-1999.605839
17.440000	-1999.605839
17.450000	-1994.706489
17.460000	-1961.854559
17.470000	-1906.436637
17.480000	-1846.243260
17.490000	-1769.119616
17.500000	-1690.743156
17.510000	-1595.751755
17.520000	-1504.374868
17.530000	-1403.325539
17.540000	-1290.069442
17.550000	-1173.964937
17.560000	-1061.789489
17.570000	-948.604319
17.580000	-835.558015
17.590000	-725.279115
17.600000	-613.338089
17.610000	-507.016588
17.620000	-401.113964
17.630000	-401.113964
17.640000	-401.113964
17.650000	-535.801569
17.660000	-785.511695
17.670000	-1057.795384
17.680000	-1270.992596
17.690000	-1434.065107
17.700000	-1660.787928
17.710000	-1660.787928
17.720000	-1660.787928
17.730000	-1659.153593
17.740000	-1614.818189
17.750000	-1564.072875
17.760000	-1495.770084
17.770000	-1422.079297
17.780000	-1329.674518
17.790000	-1241.206553
17.800000	-1136.482749
17.810000	-1030.451235
17.820000	-917.254177
17.830000	-804.753367
17.840000	-683.998615
17.850000	-565.126520
17.860000	-446.729353
17.870000	-338.547705
17.880000	-224.405721
17.890000	-116.061823
17.900000	-5.042125
17.910000	106.379541
17.920000	226.335661
17.930000	342.751619
17.940000	444.169856
17.950000	444.169856
17.960000	444.169856
17.970000	253.198172
17.980000	6.823341
17.990000	-238.587522
18.000000	-794.543160
18.010000	-821.219988
18.020000	-855.699832
18.030000	-855.699832
18.040000	-855.699832
18.050000	-829.155144
18.060000	-816.715737
18.070000	-733.555479
18.080000	-708.019526
18.090000	-596.212176
18.100000	507.766127
18.110000	656.290889
18.120000	725.304741
18.130000	864.798531
18.140000	942.066001
18.150000	1080.007943
18.160000	1172.197746
18.170000	1311.766425
18.180000	1408.828406
18.190000	1408.828406
18.200000	1408.828406
18.210000	1278.451680
18.220000	1044.070445
18.230000	841.395018
18.240000	663.766764
18.250000	562.503240
18.260000	483.178853
18.270000	449.833723
18.280000	431.498550
18.290000	431.498550
18.300000	431.498550
18.310000	462.999232
18.320000	462.999232
18.330000	462.999232
18.340000	442.568769
18.350000	406.464471
18.360000	371.555324
18.370000	366.192143
18.380000	366.192143
18.390000	366.192143
18.400000	398.406522
18.410000	439.066009
18.420000	488.374681
18.430000	548.961656
18.440000	619.347177
18.450000	694.864670
18.460000	783.370684
18.470000	867.716110
18.480000	965.507242
18.490000	978.327282
18.500000	1008.363455
18.510000	1039.452343
18.520000	1020.183514
18.530000	1020.183514
18.540000	1020.183514
18.550000	976.496584
18.560000	942.329711
18.570000	912.454963
18.580000	912.454963
18.590000	912.454963
18.600000	929.860126
18.610000	961.259361
18.620000	1007.195315
18.630000	1057.153244
18.640000	1125.623756
18.650000	1192.978375
18.660000	1274.172521
18.670000	1358.759445
18.680000	1452.792677
18.690000	1544.518033
18.700000	1640.489895
18.710000	1739.281814
18.720000	1838.211105
18.730000	1934.071920
18.740000	2028.974985
18.750000	2122.884495
18.760000	2214.764769
18.770000	2310.745671
18.780000	2408.560670
18.790000	2513.657458
18.800000	2611.330873
18.810000	2611.330873
18.820000	2611.330873
18.830000	2449.527525
18.840000	2182.030902
18.850000	1897.654817
18.860000	1658.979750
18.870000	1468.648313
18.880000	1331.966853
18.890000	1232.613446
18.900000	1148.970542
18.910000	1082.673658
18.920000	1053.054122
18.930000	1046.675226
18.940000	1043.150028
18.950000	1028.726487
18.960000	991.281927
18.970000	930.842675
18.980000	864.492268
18.990000	807.986838
19.000000	766.705753
19.010000	766.705753
19.020000	766.705753
19.030000	767.398253
19.040000	795.137261
19.050000	832.673469
19.060000	878.390532
19.070000	934.992213
19.080000	1002.668544
19.090000	1076.328073
19.100000	1159.000454
19.110000	1241.662388
19.120000	1332.410904
19.130000	1425.991499
19.140000	1517.854701
19.150000	1611.373716
19.160000	1699.300598
19.170000	1787.824027
19.180000	1878.765597
19.190000	1971.298055
19.200000	2060.249538
19.210000	2156.847874
19.220000	2258.726753
19.230000	2361.422391
19.240000	2363.699275
19.250000	2363.699275
19.260000	2363.699275
19.270000	2143.618248
19.280000	1864.393853
19.290000	1592.348590
19.300000	1381.082484
19.310000	1233.969717
19.320000	1130.734619
19.330000	1055.631463
19.340000	998.429791
19.350000	972.032342
19.360000	972.032342
19.370000	961.355012
19.380000	957.181223
19.390000	951.771538
19.400000	904.735837
19.410000	842.543557
19.420000	789.627823
19.430000	749.282506
19.440000	728.506129
19.450000	728.506129
19.460000	728.506129
19.470000	752.780632
19.480000	783.469254
19.490000	824.592844
19.500000	882.461101
19.510000	946.380405
19.520000	1021.518172
19.530000	1101.156588
19.540000	1187.620946
19.550000	1274.930417
19.560000	1367.773067
19.570000	1457.687753
19.580000	1533.706722
19.590000	1533.706722
19.600000	1533.706722
19.610000	1345.014400
19.620000	1214.539200
19.630000	1131.192565
19.640000	1092.411520
19.650000	1092.411520
19.660000	1092.411520
19.670000	1128.419046
19.680000	1181.388028
19.690000	1181.388028
19.700000	1181.388028
19.710000	1179.552750
19.720000	1135.605212
19.730000	1095.634647
19.740000	1068.887407
19.750000	1068.887407
19.760000	1068.887407
19.770000	1084.750937
19.780000	1112.097602
19.790000	1140.753750
19.800000	1184.380973
19.810000	1228.686892
19.820000	1290.757021
19.830000	1352.529375
19.840000	1430.232501
19.850000	1508.289118
19.860000	1594.776924
19.870000	1682.008883
19.880000	1772.351622
19.890000	1866.726669
19.900000	1969.938292
19.910000	2073.408314
19.920000	2192.590879
19.930000	2300.973891
19.940000	2431.404968
19.950000	2431.404968
19.960000	2431.404968
19.970000	2353.393128
19.980000	2102.611729
19.990000	1794.506722
20.000000	1535.053316
20.010000	1276.190197
20.020000	1042.687051
20.030000	780.648876
20.040000	598.757719
20.050000	412.566648
20.060000	331.349122
20.070000	240.858299
20.080000	231.489506
20.090000	137.432297
20.100000	92.620232
20.110000	92.620232
20.120000	92.620232
20.130000	126.810829
20.140000	263.149518
20.150000	308.819438
20.160000	487.803430
20.170000	561.536593
20.180000	561.536593
20.190000	561.536593
20.200000	-582.089321
20.210000	-630.634435
20.220000	-630.634435
20.230000	-630.634435
20.240000	-613.870662
20.250000	-605.776412
20.260000	-512.787625
20.270000	-489.606485
20.280000	-380.866905
20.290000	-333.225795
20.300000	-215.214896
20.310000	-145.565774
20.320000	-20.987431
20.330000	61.508887
20.340000	182.692238
20.350000	263.106527
20.360000	275.156847
20.370000	275.156847
20.380000	275.156847
20.390000	35.901468
20.400000	-242.061247
20.410000	-520.519946
20.420000	-734.248204
20.430000	-911.241337
20.440000	-1023.325697
20.450000	-1122.227856
20.460000	-1183.239793
20.470000	-1203.841171
20.480000	-1217.041030
20.490000	-1217.041030
20.500000	-1203.841171
20.510000	-1173.897202
20.520000	-1096.240942
20.530000	-1019.903160
20.540000	-932.572140
20.550000	-847.032021
20.560000	-748.883443
20.570000	-653.297653
20.580000	-548.176180
20.590000	-443.681534
20.600000	-342.506279
20.610000	-342.506279
20.620000	-342.506279
20.630000	-455.715735
20.640000	-716.341707
20.650000	-1003.137043
20.660000	-1257.830253
20.670000	-1456.716491
20.680000	-1604.460662
20.690000	-1706.362363
20.700000	-1796.234796
20.710000	-1845.429804
20.720000	-1845.429804
20.730000	-1845.429804
20.740000	-1826.831604
20.750000	-1826.831604
20.760000	-1826.831604
20.770000	-1849.119862
20.780000	-1896.506483
20.790000	-1917.249667
20.800000	-1918.904057
20.810000	-1918.904057
20.820000	-1918.904057
20.830000	-1861.817572
20.840000	-1836.831819
20.850000	-1752.025481
20.860000	-1709.367650
20.870000	-1596.721399
20.880000	-1540.635640
20.890000	-1408.783399
20.900000	-1213.053196
20.910000	-1213.053196
20.920000	-1213.053196
20.930000	-1423.770447
20.940000	-1636.035358
20.950000	-1742.660212
20.960000	-1856.702900
20.970000	-1900.105967
20.980000	-1930.600486
20.990000	-1930.600486
21.000000	-1930.600486
21.010000	-1912.678488
21.020000	-1912.678488
21.030000	-1912.678488
21.040000	-1966.054470
21.050000	-1997.101094
21.060000	-2031.789335
21.070000	-2031.789335
21.080000	-2031.789335
21.090000	-2000.670450
21.100000	-1970.041408
21.110000	-1914.850255
21.120000	-1858.512784
21.130000	-1787.013689
21.140000	-1718.158234
21.150000	-1627.147012
21.160000	-1539.027719
21.170000	-1439.258935
21.180000	-1342.063740
21.190000	-1234.383648
21.200000	-1139.286887
21.210000	-1031.463559
21.220000	-936.738715
21.230000	-827.485052
21.240000	-736.444895
21.250000	-736.444895
21.260000	-736.444895
21.270000	-886.459864
21.280000	-1119.436119
21.290000	-1119.436119
21.300000	-1119.436119
21.310000	-1112.638277
21.320000	-1015.045891
21.330000	-899.069336
21.340000	-792.220624
21.350000	-674.459611
21.360000	-564.591948
21.370000	-447.847641
21.380000	-337.129321
21.390000	-221.259642
21.400000	-106.805601
21.410000	12.272751
21.420000	121.371126
21.430000	153.245524
21.440000	153.245524
21.450000	153.245524
21.460000	-47.837082
21.470000	-291.159240
21.480000	-508.037452
21.490000	-669.764517
21.500000	-782.424154
21.510000	-863.491916
21.520000	-918.869954
21.530000	-963.334623
21.540000	-963.334623
21.550000	-963.334623
21.560000	-940.970813
21.570000	-940.970813
21.580000	-940.970813
21.590000	-948.445235
21.600000	-973.368242
21.610000	-999.679497
21.620000	-999.679497
21.630000	-999.679497
21.640000	-976.966075
21.650000	-935.641818
21.660000	-879.816542
21.670000	-820.344015
21.680000	-741.685479
21.690000	-665.238573
21.700000	-568.524769
21.710000	-478.359326
21.720000	-374.325077
21.730000	-271.668716
21.740000	-156.134974
21.750000	-60.196999
21.760000	56.163754
21.770000	150.959073
21.780000	150.959073
21.790000	150.959073
21.800000	21.003624
21.810000	-5.378943
21.820000	-28.591239
21.830000	-80.843396
21.840000	-107.036226
21.850000	-107.036226
21.860000	-107.036226
21.870000	-101.528218
21.880000	-74.003606
21.890000	-23.437496
21.900000	19.221775
21.910000	92.755299
21.920000	146.111050
21.930000	238.160705
21.940000	300.561689
21.950000	412.883198
21.960000	471.419854
21.970000	596.130972
21.980000	654.495594
21.990000	787.039782
22.000000	1149.080576
22.010000	1149.080576
22.020000	1149.080576
22.030000	986.492842
22.040000	803.496963
22.050000	738.522770
22.060000	650.055815
22.070000	640.132994
22.080000	614.964764
22.090000	614.964764
22.100000	614.964764
22.110000	635.364935
22.120000	635.364935
22.130000	635.364935
22.140000	568.065803
22.150000	549.150813
22.160000	497.537445
22.170000	497.537445
22.180000	497.537445
22.190000	513.601407
22.200000	1207.398734
22.210000	1333.727324
22.220000	1387.189144
22.230000	1501.773795
22.240000	1566.216889
22.250000	1680.310824
22.260000	1741.599940
22.270000	1741.599940
22.280000	1741.599940
22.290000	1726.584312
22.300000	1496.680528
22.310000	1262.291697
22.320000	1014.612984
22.330000	845.184640
22.340000	700.055632
22.350000	622.253571
22.360000	544.103684
22.370000	503.828299
22.380000	503.828299
22.390000	503.828299
22.400000	503.828299
22.410000	503.828299
22.420000	475.477391
22.430000	432.965705
22.440000	364.328357
22.450000	322.740442
22.460000	277.857480
22.470000	277.857480
22.480000	277.857480
22.490000	288.732129
22.500000	292.750245
22.510000	348.126179
22.520000	378.975872
22.530000	456.831181
22.540000	498.682885
22.550000	598.929068
22.560000	649.739861
22.570000	767.548077
22.580000	822.024020
22.590000	949.805031
22.600000	1149.560065
22.610000	1149.560065
22.620000	1149.560065
22.630000	889.523885
22.640000	623.967795
22.650000	473.034866
22.660000	316.618527
22.670000	231.990541
22.680000	132.721931
22.690000	82.259858
22.700000	47.695990
22.710000	36.431451
22.720000	30.663470
22.730000	13.344402
22.740000	-51.410422
22.750000	-113.840793
22.760000	-192.772764
22.770000	-241.947595
22.780000	-288.437177
22.790000	-295.023057
22.800000	-295.023057
22.810000	-295.023057
22.820000	-267.492796
22.830000	-225.067428
22.840000	-177.782944
22.850000	-119.169150
22.860000	-58.218529
22.870000	23.701755
22.880000	104.129486
22.890000	189.548352
22.900000	272.334663
22.910000	365.346834
22.920000	453.358049
22.930000	544.103444
22.940000	625.221012
22.950000	709.824512
22.960000	791.925704
22.970000	880.480524
22.980000	968.480146
22.990000	1063.068699
23.000000	1157.890489
23.010000	1254.571460
23.020000	1254.571460
23.030000	1254.571460
23.040000	1129.280002
23.050000	856.266433
23.060000	555.448332
23.070000	301.560921
23.080000	99.314575
23.090000	-26.198739
23.100000	-132.155638
23.110000	-192.841605
23.120000	-252.930422
23.130000	-252.930422
23.140000	-260.362217
23.150000	-265.031471
23.160000	-265.031471
23.170000	-290.377362
23.180000	-290.377362
23.190000	-290.377362
23.200000	-188.970063
23.210000	-96.153663
23.220000	-23.698539
23.230000	75.160392
23.240000	153.199232
23.250000	251.601305
23.260000	337.778067
23.270000	434.076430
23.280000	526.139062
23.290000	631.521817
23.300000	734.290321
23.310000	851.940906
23.320000	969.233178
23.330000	1030.482175
23.340000	1030.482175
23.350000	1030.482175
23.360000	824.606702
23.370000	575.821257
23.380000	349.130971
23.390000	175.946837
23.400000	55.445059
23.410000	-26.085040
23.420000	-96.401915
23.430000	-207.305845
23.440000	-325.137481
23.450000	-387.571646
23.460000	-448.315884
23.470000	-548.928637
23.480000	-684.491604
23.490000	-830.356816
23.500000	-971.820418
23.510000	-1101.932473
23.520000	-1206.255243
23.530000	-1270.635878
23.540000	-1290.555480
23.550000	-1290.555480
23.560000	-1290.555480
23.570000	-1255.522455
23.580000	-1219.388225
23.590000	-1164.588118
23.600000	-1095.410470
23.610000	-1020.796366
23.620000	-947.556991
23.630000	-862.078956
23.640000	-772.895086
23.650000	-683.478699
23.660000	-588.339908
23.670000	-489.029415
23.680000	-390.927170
23.690000	-295.702147
23.700000	-197.626605
23.710000	-102.543653
23.720000	-102.543653
23.730000	-102.543653
23.740000	-306.503589
23.750000	-585.557794
23.760000	-854.443879
23.770000	-1075.838008
23.780000	-1242.601749
23.790000	-1359.285258
23.800000	-1437.915341
23.810000	-1490.506234
23.820000	-1490.506234
23.830000	-1490.506234
23.840000	-1439.062617
23.850000	-1396.062047
23.860000	-1396.062047
23.870000	-1396.062047
23.880000	-1435.915163
23.890000	-1481.988477
23.900000	-1517.033184
23.910000	-1517.033184
23.920000	-1517.033184
23.930000	-1513.294574
23.940000	-1475.719687
23.950000	-1425.710730
23.960000	-1370.241063
23.970000	-1299.218183
23.980000	-1222.956753
23.990000	-1133.814665
24.000000	-1042.862262
24.010000	-952.525900
24.020000	-852.872382
24.030000	-751.423689
24.040000	-644.991747
24.050000	-541.490677
24.060000	-446.242740
24.070000	-446.242740
24.080000	-387.757090
24.090000	-374.724335
