Time(s)	IR_denoised_wiener
0.000000	-173.828530
0.010000	-246.707494
0.020000	-232.300169
0.030000	-220.393827
0.040000	-219.781858
0.050000	-210.810846
0.060000	-193.792764
0.070000	-166.694700
0.080000	-141.313824
0.090000	-117.015471
0.100000	-89.962710
0.110000	-63.157203
0.120000	-44.091666
0.130000	-38.092945
0.140000	-33.305610
0.150000	-29.190838
0.160000	-13.951925
0.170000	5.865377
0.180000	26.281072
0.190000	35.105755
0.200000	11.698679
0.210000	-28.345411
0.220000	-93.406183
0.230000	-146.126466
0.240000	-212.806951
0.250000	-270.224787
0.260000	-321.732883
0.270000	-345.037057
0.280000	-364.236179
0.290000	-443.407954
0.300000	-528.529471
0.310000	-610.014146
0.320000	-632.141508
0.330000	-653.378287
0.340000	-673.702761
0.350000	-696.527250
0.360000	-724.703389
0.370000	-744.403506
0.380000	-753.173880
0.390000	-745.040896
0.400000	-724.776862
0.410000	-693.436557
0.420000	-657.161127
0.430000	-624.271012
0.440000	-594.286188
0.450000	-564.529886
0.460000	-527.493913
0.470000	-482.903374
0.480000	-444.500360
0.490000	-415.674121
0.500000	-384.221812
0.510000	-337.199463
0.520000	-289.107402
0.530000	-250.802352
0.540000	-239.095694
0.550000	-262.467497
0.560000	-314.125968
0.570000	-370.168360
0.580000	-423.951815
0.590000	-469.284078
0.600000	-504.870178
0.610000	-513.099494
0.620000	-505.612167
0.630000	-492.653138
0.640000	-484.093959
0.650000	-479.584971
0.660000	-478.647089
0.670000	-476.909902
0.680000	-475.618185
0.690000	-474.632330
0.700000	-478.669337
0.710000	-487.072129
0.720000	-505.134377
0.730000	-519.189472
0.740000	-524.017642
0.750000	-518.378173
0.760000	-513.995681
0.770000	-517.945329
0.780000	-518.311511
0.790000	-510.922430
0.800000	-480.985567
0.810000	-443.032852
0.820000	-403.020897
0.830000	-381.901331
0.840000	-375.034853
0.850000	-390.853328
0.860000	-429.739689
0.870000	-480.150926
0.880000	-520.460552
0.890000	-533.503193
0.900000	-534.979458
0.910000	-533.542568
0.920000	-533.859233
0.930000	-523.906604
0.940000	-500.799952
0.950000	-481.693535
0.960000	-466.392885
0.970000	-456.851565
0.980000	-445.991544
0.990000	-441.078186
1.000000	-434.577412
1.010000	-420.000862
1.020000	-396.871629
1.030000	-369.293275
1.040000	-346.535844
1.050000	-327.912798
1.060000	-312.886903
1.070000	-294.533187
1.080000	-268.929930
1.090000	-242.196846
1.100000	-218.648996
1.110000	-200.868712
1.120000	-181.686209
1.130000	-158.563531
1.140000	-132.408416
1.150000	-106.605982
1.160000	-79.456113
1.170000	-45.309005
1.180000	-13.882734
1.190000	13.676174
1.200000	37.359804
1.210000	71.367778
1.220000	112.891069
1.230000	151.374924
1.240000	177.764642
1.250000	182.052343
1.260000	162.668988
1.270000	119.074888
1.280000	76.320620
1.290000	43.732613
1.300000	27.643764
1.310000	27.385542
1.320000	32.957075
1.330000	39.737078
1.340000	46.631940
1.350000	60.797835
1.360000	85.651126
1.370000	108.169399
1.380000	126.391348
1.390000	138.232646
1.400000	157.535362
1.410000	171.250110
1.420000	189.773211
1.430000	213.270275
1.440000	246.388862
1.450000	285.634929
1.460000	312.331018
1.470000	332.436812
1.480000	351.977603
1.490000	446.134237
1.500000	555.628502
1.510000	661.316857
1.520000	700.536178
1.530000	733.882333
1.540000	772.353282
1.550000	808.443972
1.560000	853.604091
1.570000	885.295228
1.580000	900.960734
1.590000	889.174388
1.600000	894.190546
1.610000	911.975797
1.620000	950.843775
1.630000	981.397758
1.640000	1011.992770
1.650000	1032.161380
1.660000	1054.934268
1.670000	1081.622041
1.680000	1115.611960
1.690000	1147.111581
1.700000	1177.052095
1.710000	1210.012034
1.720000	1244.210225
1.730000	1275.643071
1.740000	1305.119478
1.750000	1344.042320
1.760000	1389.730365
1.770000	1434.168429
1.780000	1471.422998
1.790000	1512.752296
1.800000	1561.171365
1.810000	1607.381876
1.820000	1649.687961
1.830000	1684.421192
1.840000	1724.332604
1.850000	1763.493272
1.860000	1804.084701
1.870000	1850.323885
1.880000	1902.246009
1.890000	1958.572661
1.900000	1997.106029
1.910000	2005.271758
1.920000	1982.757991
1.930000	1953.797557
1.940000	1932.809970
1.950000	1924.056764
1.960000	1922.264727
1.970000	1928.095549
1.980000	1940.813222
1.990000	1948.535585
2.000000	1957.176737
2.010000	1979.762225
2.020000	2015.938160
2.030000	2057.402598
2.040000	2088.114785
2.050000	2115.879134
2.060000	2138.034204
2.070000	2160.150675
2.080000	2184.384147
2.090000	2213.865627
2.100000	2245.157596
2.110000	2272.349470
2.120000	2294.387522
2.130000	2310.611638
2.140000	2325.409316
2.150000	2343.653890
2.160000	2366.199553
2.170000	2393.475172
2.180000	2422.093541
2.190000	2454.092942
2.200000	2485.085472
2.210000	2520.186397
2.220000	2556.839891
2.230000	2597.076633
2.240000	2634.021311
2.250000	2675.793443
2.260000	2713.608940
2.270000	2758.350800
2.280000	2799.591780
2.290000	2767.866944
2.300000	2720.711552
2.310000	2676.397190
2.320000	2710.110064
2.330000	2756.664775
2.340000	2786.061873
2.350000	2817.524636
2.360000	2845.068605
2.370000	2880.558069
2.380000	2914.474865
2.390000	2949.082475
2.400000	2990.684505
2.410000	3035.371433
2.420000	3093.726859
2.430000	3153.724815
2.440000	3214.593575
2.450000	3264.508203
2.460000	3323.675526
2.470000	3378.659984
2.480000	3441.287839
2.490000	3580.429584
2.500000	3716.954943
2.510000	3839.513420
2.520000	3866.891669
2.530000	3884.516528
2.540000	3909.101302
2.550000	3931.242899
2.560000	3968.179104
2.570000	3997.321530
2.580000	4034.824918
2.590000	4069.787378
2.600000	4110.986216
2.610000	4164.707699
2.620000	4227.582164
2.630000	4294.083095
2.640000	4356.299030
2.650000	4410.263237
2.660000	4468.187326
2.670000	4522.850057
2.680000	4575.558793
2.690000	4614.861245
2.700000	4638.748584
2.710000	4648.005436
2.720000	4643.396565
2.730000	4641.985525
2.740000	4645.459638
2.750000	4660.435973
2.760000	4669.245626
2.770000	4679.077082
2.780000	4693.810992
2.790000	4713.495508
2.800000	4734.820996
2.810000	4740.662502
2.820000	4750.049438
2.830000	4757.881624
2.840000	4773.434999
2.850000	4782.152120
2.860000	4793.669685
2.870000	4807.175737
2.880000	4830.041111
2.890000	4853.267744
2.900000	4874.209051
2.910000	4889.469118
2.920000	4907.854258
2.930000	4938.113049
2.940000	4977.242167
2.950000	5023.534422
2.960000	5067.381128
2.970000	5112.430466
2.980000	5149.254575
2.990000	5182.467588
3.000000	5209.543001
3.010000	5242.645030
3.020000	5277.217486
3.030000	5309.254615
3.040000	5337.996801
3.050000	5377.666513
3.060000	5431.171418
3.070000	5484.456718
3.080000	5536.137546
3.090000	5589.013576
3.100000	5641.177655
3.110000	5662.244171
3.120000	5646.368801
3.130000	5620.647182
3.140000	5604.953666
3.150000	5611.440776
3.160000	5620.862288
3.170000	5631.356952
3.180000	5634.158246
3.190000	5638.059090
3.200000	5656.870451
3.210000	5689.788249
3.220000	5726.287781
3.230000	5750.900278
3.240000	5767.485904
3.250000	5778.400433
3.260000	5792.759372
3.270000	5809.594154
3.280000	5829.088379
3.290000	5855.515893
3.300000	5894.134581
3.310000	5941.793367
3.320000	5998.566106
3.330000	6049.069116
3.340000	6097.757076
3.350000	6140.690958
3.360000	6190.025549
3.370000	6245.308924
3.380000	6295.961029
3.390000	6346.326743
3.400000	6384.207264
3.410000	6430.789747
3.420000	6478.057361
3.430000	6535.983448
3.440000	6591.188444
3.450000	6637.873562
3.460000	6676.008054
3.470000	6705.767312
3.480000	6742.201932
3.490000	6781.940846
3.500000	6827.405693
3.510000	6864.058657
3.520000	6887.959594
3.530000	6883.127897
3.540000	6860.568870
3.550000	6831.843298
3.560000	6817.845087
3.570000	6818.472302
3.580000	6835.761699
3.590000	6857.025260
3.600000	6888.023212
3.610000	6920.831322
3.620000	6952.585728
3.630000	6989.947021
3.640000	7031.071359
3.650000	7074.673678
3.660000	7111.139778
3.670000	7137.687632
3.680000	7172.196297
3.690000	7204.217912
3.700000	7243.565324
3.710000	7276.603338
3.720000	7313.247893
3.730000	7355.211018
3.740000	7409.184812
3.750000	7466.680180
3.760000	7523.031203
3.770000	7578.724881
3.780000	7640.117468
3.790000	7762.790858
3.800000	7899.469575
3.810000	8032.816302
3.820000	8107.924579
3.830000	8170.653383
3.840000	8220.449062
3.850000	8250.331797
3.860000	8256.837495
3.870000	8256.581579
3.880000	8263.396375
3.890000	8276.297247
3.900000	8300.139648
3.910000	8326.138856
3.920000	8351.056562
3.930000	8374.140650
3.940000	8398.799823
3.950000	8434.635887
3.960000	8477.977857
3.970000	8532.617587
3.980000	8589.915735
3.990000	8636.708820
4.000000	8673.674837
4.010000	8713.945324
4.020000	8755.163608
4.030000	8796.619649
4.040000	8819.363279
4.050000	8840.481595
4.060000	8852.578604
4.070000	8860.454139
4.080000	8849.144229
4.090000	8823.880827
4.100000	8793.111395
4.110000	8788.424432
4.120000	8788.313351
4.130000	8796.411577
4.140000	8785.131196
4.150000	8783.917437
4.160000	8776.512625
4.170000	8785.880451
4.180000	8781.423305
4.190000	8796.021048
4.200000	8769.073961
4.210000	8744.104449
4.220000	8697.189578
4.230000	8704.439461
4.240000	8710.581139
4.250000	8750.986783
4.260000	8772.018067
4.270000	8861.204782
4.280000	8919.552025
4.290000	8900.502468
4.300000	8682.475196
4.310000	8623.371914
4.320000	8708.288753
4.330000	8956.910128
4.340000	8808.407712
4.350000	8144.222227
4.360000	6023.820833
4.370000	1643.327405
4.380000	-7472.186663
4.390000	-24255.483162
4.400000	-49759.033353
4.410000	-66535.263072
4.420000	-71639.582760
4.430000	-73292.014276
4.440000	-71456.028473
4.450000	-67751.740829
4.460000	-63350.760492
4.470000	-59592.117329
4.480000	-56707.980748
4.490000	-54445.695005
4.500000	-52641.314866
4.510000	-50962.016125
4.520000	-50407.185349
4.530000	-50617.485824
4.540000	-50423.380383
4.550000	-48718.681774
4.560000	-45690.682425
4.570000	-42572.305804
4.580000	-39899.293956
4.590000	-36166.215839
4.600000	-30807.377687
4.610000	-23551.539382
4.620000	-16334.818741
4.630000	-10279.439299
4.640000	-5513.399604
4.650000	-1743.816457
4.660000	470.108032
4.670000	1731.854540
4.680000	1577.121452
4.690000	-1498.628205
4.700000	-5421.314657
4.710000	-7439.239618
4.720000	-5886.009952
4.730000	-4689.178212
4.740000	-4201.447569
4.750000	-3672.982668
4.760000	-3489.899013
4.770000	-3058.990956
4.780000	-2865.539283
4.790000	-2584.332894
4.800000	-2529.494954
4.810000	-2369.794752
4.820000	-2331.540706
4.830000	-2172.193955
4.840000	-2122.444249
4.850000	-1991.326029
4.860000	-1964.272178
4.870000	-1854.659725
4.880000	-1799.879781
4.890000	-1693.880762
4.900000	-1647.304741
4.910000	-1625.591388
4.920000	-1700.910773
4.930000	-1747.980477
4.940000	-1774.435495
4.950000	-1693.998083
4.960000	-1615.381718
4.970000	-1508.185687
4.980000	-1452.850594
4.990000	-1381.516981
5.000000	-1331.826358
5.010000	-1254.158497
5.020000	-1188.597823
5.030000	-1129.222396
5.040000	-1065.905897
5.050000	-993.848485
5.060000	-916.115866
5.070000	-836.355857
5.080000	-773.914689
5.090000	-782.502730
5.100000	-883.502546
5.110000	-1031.008652
5.120000	-1133.842616
5.130000	-1173.590344
5.140000	-1207.933625
5.150000	-1250.258322
5.160000	-1287.826837
5.170000	-1265.683629
5.180000	-1199.118925
5.190000	-1117.686701
5.200000	-1072.006767
5.210000	-1006.267982
5.220000	-916.573685
5.230000	-775.319924
5.240000	-638.906381
5.250000	-518.782738
5.260000	-399.699346
5.270000	-272.127463
5.280000	-155.102893
5.290000	-64.996257
5.300000	-9.346162
5.310000	40.036508
5.320000	86.479792
5.330000	129.530470
5.340000	156.076638
5.350000	186.255489
5.360000	213.741278
5.370000	250.171062
5.380000	270.112730
5.390000	289.342513
5.400000	302.235502
5.410000	293.631945
5.420000	284.268435
5.430000	295.401773
5.440000	325.050573
5.450000	359.954381
5.460000	356.564005
5.470000	333.492931
5.480000	281.149233
5.490000	114.307064
5.500000	-44.544333
5.510000	-173.002280
5.520000	-175.551623
5.530000	-146.346382
5.540000	-106.872424
5.550000	-49.456110
5.560000	-20.520136
5.570000	-2.567892
5.580000	9.287292
5.590000	45.213591
5.600000	80.769276
5.610000	119.229800
5.620000	159.064043
5.630000	216.120448
5.640000	277.440445
5.650000	331.509867
5.660000	366.310984
5.670000	397.805702
5.680000	428.307650
5.690000	450.572943
5.700000	456.466899
5.710000	458.562793
5.720000	481.826620
5.730000	509.271216
5.740000	518.004620
5.750000	498.518253
5.760000	475.445606
5.770000	425.135907
5.780000	348.792104
5.790000	263.969738
5.800000	196.332815
5.810000	146.574268
5.820000	103.012830
5.830000	83.433696
5.840000	74.114278
5.850000	59.129048
5.860000	48.462870
5.870000	61.025562
5.880000	86.575382
5.890000	98.722381
5.900000	100.948597
5.910000	101.277667
5.920000	119.868471
5.930000	140.914834
5.940000	178.050533
5.950000	207.297359
5.960000	241.850689
5.970000	261.103701
5.980000	291.296834
5.990000	483.437372
6.000000	742.586109
6.010000	1050.835247
6.020000	1244.327808
6.030000	1406.766997
6.040000	1530.673644
6.050000	1597.189371
6.060000	1609.937064
6.070000	1562.106211
6.080000	1504.215003
6.090000	1425.712982
6.100000	1395.569599
6.110000	1396.274388
6.120000	1441.201751
6.130000	1475.508388
6.140000	1517.562161
6.150000	1579.920815
6.160000	1652.054076
6.170000	1709.156144
6.180000	1734.430615
6.190000	1706.575561
6.200000	1637.428463
6.210000	1561.588265
6.220000	1523.317431
6.230000	1494.935079
6.240000	1456.092028
6.250000	1407.873367
6.260000	1386.161904
6.270000	1449.407096
6.280000	1574.207512
6.290000	1713.409873
6.300000	1803.409283
6.310000	1851.809965
6.320000	1889.878155
6.330000	1914.986110
6.340000	1938.588538
6.350000	1965.346771
6.360000	2003.846539
6.370000	2043.859583
6.380000	2069.626813
6.390000	2091.648945
6.400000	2118.941047
6.410000	2147.607822
6.420000	2169.114435
6.430000	2187.139049
6.440000	2224.546220
6.450000	2332.620917
6.460000	2465.918448
6.470000	2566.274154
6.480000	2554.104993
6.490000	2423.670173
6.500000	2305.205117
6.510000	2241.365886
6.520000	2254.122106
6.530000	2247.611743
6.540000	2223.514194
6.550000	2218.160035
6.560000	2221.319050
6.570000	2236.286166
6.580000	2247.947396
6.590000	2282.065299
6.600000	2335.370066
6.610000	2408.395593
6.620000	2483.617154
6.630000	2523.545026
6.640000	2514.135889
6.650000	2475.662552
6.660000	2393.766590
6.670000	2282.063889
6.680000	2175.663180
6.690000	2047.835440
6.700000	1900.511727
6.710000	1707.068306
6.720000	1551.537097
6.730000	1443.302190
6.740000	1375.055802
6.750000	1354.449467
6.760000	1394.126972
6.770000	1503.459618
6.780000	1669.007116
6.790000	1849.264068
6.800000	2013.454525
6.810000	2173.389685
6.820000	2312.360857
6.830000	2417.730117
6.840000	2440.036050
6.850000	2436.232510
6.860000	2443.526360
6.870000	2463.506082
6.880000	2480.838841
6.890000	2496.693247
6.900000	2547.449245
6.910000	2612.925869
6.920000	2677.940426
6.930000	2744.405388
6.940000	2830.007756
6.950000	2944.060926
6.960000	3047.139751
6.970000	3150.052456
6.980000	3230.043725
6.990000	3309.364553
7.000000	3382.066638
7.010000	3456.244359
7.020000	3534.269034
7.030000	3619.989467
7.040000	3712.318470
7.050000	3799.231128
7.060000	3872.905353
7.070000	3938.700850
7.080000	4013.715593
7.090000	4109.011013
7.100000	4190.257398
7.110000	4254.262120
7.120000	4285.620245
7.130000	4319.840118
7.140000	4355.735139
7.150000	4399.289727
7.160000	4433.972496
7.170000	4455.289063
7.180000	4447.026669
7.190000	4399.153351
7.200000	4345.046993
7.210000	4298.142038
7.220000	4281.271196
7.230000	4232.073665
7.240000	4177.917616
7.250000	4135.483852
7.260000	4137.113746
7.270000	4163.256970
7.280000	4210.525121
7.290000	4268.513713
7.300000	4319.751997
7.310000	4357.633860
7.320000	4393.527098
7.330000	4434.907443
7.340000	4459.717116
7.350000	4473.083605
7.360000	4472.713181
7.370000	4493.185964
7.380000	4529.757957
7.390000	4571.760538
7.400000	4591.910661
7.410000	4601.593256
7.420000	4607.199941
7.430000	4623.263612
7.440000	4644.916171
7.450000	4683.122624
7.460000	4718.358732
7.470000	4764.214197
7.480000	4795.835494
7.490000	4689.839754
7.500000	4551.409416
7.510000	4430.781878
7.520000	4434.269554
7.530000	4460.617469
7.540000	4460.400285
7.550000	4473.491206
7.560000	4474.475859
7.570000	4488.291986
7.580000	4501.231931
7.590000	4527.620931
7.600000	4554.361691
7.610000	4582.435358
7.620000	4596.223787
7.630000	4605.094089
7.640000	4614.849498
7.650000	4636.538321
7.660000	4673.890536
7.670000	4731.417765
7.680000	4791.635165
7.690000	4853.437115
7.700000	4897.087759
7.710000	4942.990028
7.720000	4974.191897
7.730000	5018.417247
7.740000	5051.569400
7.750000	5088.364159
7.760000	5195.500134
7.770000	5337.772308
7.780000	5480.504079
7.790000	5537.106905
7.800000	5535.555611
7.810000	5495.147803
7.820000	5428.649838
7.830000	5375.319228
7.840000	5332.684321
7.850000	5337.984991
7.860000	5369.271867
7.870000	5436.785127
7.880000	5478.704423
7.890000	5510.504086
7.900000	5515.752771
7.910000	5537.419815
7.920000	5556.996048
7.930000	5595.471276
7.940000	5620.115786
7.950000	5662.720681
7.960000	5699.099200
7.970000	5770.497213
7.980000	5819.154719
7.990000	5889.561866
8.000000	5927.944179
8.010000	6018.004456
8.020000	6105.016922
8.030000	6244.075267
8.040000	6324.290108
8.050000	6444.374457
8.060000	6503.998958
8.070000	6620.249427
8.080000	6651.304911
8.090000	6743.887986
8.100000	6751.773507
8.110000	6856.055584
8.120000	6855.818997
8.130000	6947.603640
8.140000	6901.310837
8.150000	6993.824926
8.160000	6934.854893
8.170000	7034.300552
8.180000	6889.376532
8.190000	6861.472514
8.200000	6460.151773
8.210000	6026.517264
8.220000	4833.243714
8.230000	3429.314321
8.240000	1346.784994
8.250000	-528.599325
8.260000	-3129.768703
8.270000	-5751.785439
8.280000	-9568.925938
8.290000	-13859.878431
8.300000	-19881.133344
8.310000	-31416.403193
8.320000	-43933.415334
8.330000	-50303.675817
8.340000	-52459.691440
8.350000	-50022.547088
8.360000	-47539.784821
8.370000	-43021.620433
8.380000	-35713.303150
8.390000	-28924.171766
8.400000	-68309.361311
8.410000	-62810.330488
8.420000	-52482.675018
8.430000	-45020.067386
8.440000	-39444.719601
8.450000	-34836.993937
8.460000	-32824.492176
8.470000	-31569.673472
8.480000	-31998.680662
8.490000	-32020.892157
8.500000	-32994.499298
8.510000	-33787.762391
8.520000	-35559.765925
8.530000	-36385.984859
8.540000	-36875.478148
8.550000	-35761.206497
8.560000	-34203.340444
8.570000	-32186.012935
8.580000	-30956.818905
8.590000	-29438.243472
8.600000	-27178.490152
8.610000	-23025.020731
8.620000	-18160.376545
8.630000	-12974.419324
8.640000	-8283.228741
8.650000	-4087.035519
8.660000	-937.717617
8.670000	1210.872843
8.680000	2463.172572
8.690000	3207.784272
8.700000	3546.166960
8.710000	3881.086389
8.720000	4087.946281
8.730000	4330.417181
8.740000	4460.777469
8.750000	4631.817323
8.760000	4713.412397
8.770000	4800.419633
8.780000	4795.440279
8.790000	4829.573927
8.800000	4823.150361
8.810000	4849.746890
8.820000	4810.320733
8.830000	4776.325816
8.840000	4691.080097
8.850000	4618.513487
8.860000	4498.780164
8.870000	4434.765266
8.880000	4338.910780
8.890000	3947.155649
8.900000	3510.081357
8.910000	3136.452692
8.920000	3055.548797
8.930000	3013.725543
8.940000	2945.504889
8.950000	2947.083916
8.960000	2918.232555
8.970000	2916.857289
8.980000	2890.641057
8.990000	2833.410524
9.000000	2761.433856
9.010000	2710.676705
9.020000	2703.517682
9.030000	2711.467668
9.040000	2708.274945
9.050000	2708.039534
9.060000	2697.296005
9.070000	2680.335759
9.080000	2686.062984
9.090000	2696.517634
9.100000	2720.253182
9.110000	2747.335143
9.120000	2785.514364
9.130000	2819.113360
9.140000	2858.875800
9.150000	2908.235132
9.160000	2953.890836
9.170000	2973.032923
9.180000	2980.046059
9.190000	3084.465958
9.200000	3159.261293
9.210000	3171.536473
9.220000	3038.721506
9.230000	2905.949604
9.240000	2786.205085
9.250000	2668.351903
9.260000	2558.460416
9.270000	2462.480756
9.280000	2377.754694
9.290000	2277.608597
9.300000	2174.891483
9.310000	2112.555407
9.320000	2090.314785
9.330000	2064.457175
9.340000	2004.517660
9.350000	1927.234053
9.360000	1859.496142
9.370000	1801.019600
9.380000	1748.552015
9.390000	1708.252097
9.400000	1684.359265
9.410000	1665.199738
9.420000	1653.968395
9.430000	1641.877693
9.440000	1629.034017
9.450000	1602.286794
9.460000	1588.646317
9.470000	1582.043555
9.480000	1584.722094
9.490000	1579.857377
9.500000	1566.285762
9.510000	1558.160245
9.520000	1569.297575
9.530000	1604.222073
9.540000	1643.028847
9.550000	1677.103529
9.560000	1687.856722
9.570000	1680.175507
9.580000	1621.710398
9.590000	1519.819973
9.600000	1405.427567
9.610000	1314.612706
9.620000	1258.880002
9.630000	1233.164674
9.640000	1228.461666
9.650000	1236.527418
9.660000	1233.811931
9.670000	1232.467480
9.680000	1241.300876
9.690000	1260.199513
9.700000	1267.214911
9.710000	1270.501209
9.720000	1326.416903
9.730000	1417.424073
9.740000	1514.078889
9.750000	1564.780663
9.760000	1587.428220
9.770000	1608.659584
9.780000	1624.861317
9.790000	1643.738295
9.800000	1665.444216
9.810000	1700.350777
9.820000	1738.478745
9.830000	1772.814069
9.840000	1791.678262
9.850000	1780.448860
9.860000	1730.408692
9.870000	1634.604958
9.880000	1559.525714
9.890000	1522.479271
9.900000	1543.839514
9.910000	1611.120080
9.920000	1689.617422
9.930000	1758.325341
9.940000	1798.262751
9.950000	1828.832905
9.960000	1866.765954
9.970000	1898.791614
9.980000	1933.531145
9.990000	1946.195390
10.000000	1958.963796
10.010000	1944.001872
10.020000	1910.372798
10.030000	1844.288857
10.040000	1761.741768
10.050000	1691.490653
10.060000	1639.262109
10.070000	1605.895200
10.080000	1571.610196
10.090000	1526.546223
10.100000	1489.591322
10.110000	1450.339034
10.120000	1419.855165
10.130000	1402.672462
10.140000	1423.400854
10.150000	1463.782988
10.160000	1522.556180
10.170000	1576.063080
10.180000	1649.745542
10.190000	1901.942126
10.200000	2161.264648
10.210000	2378.058965
10.220000	2411.103762
10.230000	2437.957577
10.240000	2482.428179
10.250000	2486.540511
10.260000	2486.588463
10.270000	2494.635169
10.280000	2539.039756
10.290000	2570.096293
10.300000	2592.890360
10.310000	2614.813835
10.320000	2657.364369
10.330000	2671.924692
10.340000	2670.926491
10.350000	2675.648149
10.360000	2718.776094
10.370000	2768.785891
10.380000	2799.231437
10.390000	2795.214939
10.400000	2790.079979
10.410000	2787.825184
10.420000	2796.870204
10.430000	2799.627934
10.440000	2814.691443
10.450000	2857.354289
10.460000	2901.332161
10.470000	2909.986873
10.480000	2876.657521
10.490000	2821.630063
10.500000	2740.853567
10.510000	2648.595347
10.520000	2554.309076
10.530000	2499.254892
10.540000	2477.910530
10.550000	2480.177153
10.560000	2469.716037
10.570000	2443.802014
10.580000	2408.824325
10.590000	2331.262465
10.600000	2259.102457
10.610000	2200.226172
10.620000	2195.752694
10.630000	2200.567914
10.640000	2204.781942
10.650000	2215.238585
10.660000	2227.062661
10.670000	2248.228882
10.680000	2249.860493
10.690000	2238.936637
10.700000	2219.269237
10.710000	2224.011879
10.720000	2235.158303
10.730000	2247.744370
10.740000	2278.729592
10.750000	2329.723941
10.760000	2388.887060
10.770000	2424.606198
10.780000	2448.788238
10.790000	2448.712164
10.800000	2432.705738
10.810000	2386.715647
10.820000	2318.642987
10.830000	2244.033354
10.840000	2166.173558
10.850000	2112.377797
10.860000	2108.995961
10.870000	2151.599239
10.880000	2217.396508
10.890000	2260.385873
10.900000	2286.569178
10.910000	2307.818254
10.920000	2315.314967
10.930000	2313.584203
10.940000	2296.996748
10.950000	2284.715738
10.960000	2283.274930
10.970000	2299.813608
10.980000	2314.778040
10.990000	2328.598160
11.000000	2350.938514
11.010000	2406.723487
11.020000	2482.626302
11.030000	2548.100720
11.040000	2603.030351
11.050000	2649.450012
11.060000	2692.074694
11.070000	2717.382246
11.080000	2729.132955
11.090000	2744.651588
11.100000	2772.132706
11.110000	2803.509534
11.120000	2829.094624
11.130000	2847.022246
11.140000	2873.740105
11.150000	2895.752612
11.160000	2911.718811
11.170000	2915.770311
11.180000	2927.734438
11.190000	2947.700035
11.200000	2984.740854
11.210000	3017.512180
11.220000	3044.099775
11.230000	3065.297384
11.240000	3066.715750
11.250000	3046.415320
11.260000	2985.583681
11.270000	2931.011479
11.280000	2877.272626
11.290000	2826.592792
11.300000	2786.606918
11.310000	2762.464103
11.320000	2764.585500
11.330000	2762.185012
11.340000	2753.606485
11.350000	2739.541029
11.360000	2744.654895
11.370000	2764.444737
11.380000	2777.283629
11.390000	2837.183078
11.400000	2907.289194
11.410000	2993.999441
11.420000	3041.749952
11.430000	3085.021284
11.440000	3135.438877
11.450000	3166.562274
11.460000	3191.192016
11.470000	3200.332552
11.480000	3202.949669
11.490000	3203.377969
11.500000	3197.972590
11.510000	3185.382843
11.520000	3179.991163
11.530000	3184.306810
11.540000	3199.289763
11.550000	3195.430599
11.560000	3191.002314
11.570000	3187.791002
11.580000	3183.317546
11.590000	3138.999119
11.600000	3050.339064
11.610000	2957.608632
11.620000	2872.894029
11.630000	2801.141795
11.640000	2714.634922
11.650000	2645.112932
11.660000	2594.902048
11.670000	2560.006053
11.680000	2510.703514
11.690000	2436.556096
11.700000	2380.253807
11.710000	2351.617701
11.720000	2355.390911
11.730000	2358.174204
11.740000	2372.252033
11.750000	2403.644252
11.760000	2431.970254
11.770000	2440.385797
11.780000	2437.351924
11.790000	2414.674358
11.800000	2373.016145
11.810000	2282.135041
11.820000	2195.165140
11.830000	2127.078770
11.840000	2084.544594
11.850000	2051.545516
11.860000	2026.882115
11.870000	2011.935417
11.880000	2002.786500
11.890000	1946.437278
11.900000	1844.753660
11.910000	1679.126974
11.920000	1512.520904
11.930000	1385.329344
11.940000	1273.016425
11.950000	1134.725437
11.960000	1009.635584
11.970000	919.643131
11.980000	890.165398
11.990000	784.013773
12.000000	595.955766
12.010000	261.451547
12.020000	-152.330202
12.030000	-795.814510
12.040000	-1652.598937
12.050000	-2726.912981
12.060000	-3767.275863
12.070000	-4730.027526
12.080000	-5532.960268
12.090000	-6266.731598
12.100000	-6743.997217
12.110000	-7044.620327
12.120000	-7024.537840
12.130000	-7011.926046
12.140000	-6859.226303
12.150000	-6453.114766
12.160000	-5573.077114
12.170000	-4624.480345
12.180000	-3456.191653
12.190000	-2562.745828
12.200000	-2279.329364
12.210000	-4486.718173
12.220000	-9354.454899
12.230000	-18050.662577
12.240000	-31013.978600
12.250000	-44785.608015
12.260000	-59129.481551
12.270000	-65415.718998
12.280000	-67402.124267
12.290000	-64019.242092
12.300000	-57936.781189
12.310000	-53432.584635
12.320000	-50278.237982
12.330000	-47010.496482
12.340000	-42981.194228
12.350000	-39326.767371
12.360000	-34605.858564
12.370000	-29537.200957
12.380000	-22816.171288
12.390000	-14026.291347
12.400000	4950.736593
12.410000	6612.273492
12.420000	6894.457452
12.430000	6594.972984
12.440000	6818.713150
12.450000	6561.790514
12.460000	6748.511723
12.470000	6556.728493
12.480000	6713.151806
12.490000	6551.765551
12.500000	6677.543885
12.510000	6544.907094
12.520000	6620.316915
12.530000	6451.128904
12.540000	6434.030679
12.550000	6243.645434
12.560000	6214.170508
12.570000	6073.781840
12.580000	6075.038110
12.590000	5989.554600
12.600000	6016.039138
12.610000	5959.877166
12.620000	5989.002366
12.630000	5964.660124
12.640000	6010.659077
12.650000	5982.013380
12.660000	6006.376029
12.670000	5975.365920
12.680000	6000.012628
12.690000	5976.782243
12.700000	5992.160267
12.710000	5977.096516
12.720000	5977.284165
12.730000	5959.858727
12.740000	5958.256422
12.750000	5929.747189
12.760000	5892.400268
12.770000	5832.555549
12.780000	5794.713311
12.790000	5762.876243
12.800000	5750.454621
12.810000	5698.681828
12.820000	5629.436157
12.830000	5538.102271
12.840000	5488.294911
12.850000	5449.957415
12.860000	5435.297179
12.870000	5399.685978
12.880000	5344.457262
12.890000	5258.079472
12.900000	5133.999940
12.910000	4994.924200
12.920000	4861.910892
12.930000	4754.806955
12.940000	4655.093014
12.950000	4551.086864
12.960000	4460.736692
12.970000	4354.952856
12.980000	4266.935138
12.990000	4195.108737
13.000000	4169.273509
13.010000	4109.017324
13.020000	3992.830706
13.030000	3886.557820
13.040000	3796.952509
13.050000	3750.547767
13.060000	3700.268801
13.070000	3641.385519
13.080000	3575.335019
13.090000	3497.273803
13.100000	3451.271470
13.110000	3430.091814
13.120000	3398.870743
13.130000	3361.422803
13.140000	3320.876228
13.150000	3295.872496
13.160000	3282.898271
13.170000	3272.384252
13.180000	3253.998184
13.190000	3231.348848
13.200000	3208.180914
13.210000	3222.491171
13.220000	3266.322268
13.230000	3310.995925
13.240000	3344.262568
13.250000	3345.900399
13.260000	3338.075345
13.270000	3299.776762
13.280000	3239.059495
13.290000	3168.090339
13.300000	3095.460770
13.310000	3039.191094
13.320000	2992.890596
13.330000	2957.408298
13.340000	2913.362367
13.350000	2860.777239
13.360000	2832.022322
13.370000	2824.483666
13.380000	2816.731707
13.390000	2796.650972
13.400000	2769.591866
13.410000	2743.261707
13.420000	2708.510147
13.430000	2664.667611
13.440000	2627.914018
13.450000	2608.497284
13.460000	2615.756189
13.470000	2635.370156
13.480000	2645.352855
13.490000	2643.740925
13.500000	2639.088647
13.510000	2646.908363
13.520000	2666.892514
13.530000	2697.852192
13.540000	2732.793187
13.550000	2759.227603
13.560000	2776.172698
13.570000	2792.410958
13.580000	2808.979262
13.590000	2844.424585
13.600000	2883.141369
13.610000	2907.215031
13.620000	2907.444368
13.630000	2883.480533
13.640000	2852.580227
13.650000	2790.416739
13.660000	2693.558786
13.670000	2620.308184
13.680000	2624.979102
13.690000	2689.787992
13.700000	2746.046315
13.710000	2748.786638
13.720000	2726.101502
13.730000	2705.237211
13.740000	2692.219582
13.750000	2706.512777
13.760000	2728.017305
13.770000	2742.258974
13.780000	2747.304844
13.790000	2736.781854
13.800000	2728.781944
13.810000	2717.695474
13.820000	2719.106549
13.830000	2726.671600
13.840000	2740.906147
13.850000	2761.100586
13.860000	2783.152705
13.870000	2802.317455
13.880000	2805.499329
13.890000	2814.419621
13.900000	2823.226542
13.910000	2850.378177
13.920000	2887.001594
13.930000	2926.465728
13.940000	2956.216463
13.950000	2984.065196
13.960000	3013.207847
13.970000	3062.830968
13.980000	3099.844543
13.990000	3067.654232
14.000000	3006.535818
14.010000	2928.855811
14.020000	2892.473442
14.030000	2867.270231
14.040000	2853.615679
14.050000	2859.492815
14.060000	2864.466807
14.070000	2858.864907
14.080000	2849.148522
14.090000	2844.697595
14.100000	2861.634289
14.110000	2883.893680
14.120000	2905.599426
14.130000	2926.556324
14.140000	2944.676534
14.150000	2967.027480
14.160000	2984.492072
14.170000	3003.657479
14.180000	3015.045335
14.190000	3029.123569
14.200000	3026.965277
14.210000	3015.106429
14.220000	2996.989624
14.230000	2989.237773
14.240000	2996.091610
14.250000	2997.078899
14.260000	2995.034595
14.270000	2990.356290
14.280000	2994.115811
14.290000	3005.041295
14.300000	3006.595869
14.310000	2990.522375
14.320000	2947.178003
14.330000	2863.098035
14.340000	2765.308937
14.350000	2674.426165
14.360000	2596.502426
14.370000	2507.439829
14.380000	2431.262202
14.390000	2389.212395
14.400000	2367.023396
14.410000	2325.681668
14.420000	2266.659509
14.430000	2243.055488
14.440000	2253.240406
14.450000	2271.122887
14.460000	2258.213673
14.470000	2211.713706
14.480000	2148.331539
14.490000	2103.111518
14.500000	2078.782879
14.510000	2066.899783
14.520000	2051.633995
14.530000	2042.175709
14.540000	2047.234948
14.550000	2049.797670
14.560000	2038.600572
14.570000	2022.556094
14.580000	2022.746164
14.590000	2046.689291
14.600000	2070.215549
14.610000	2083.605128
14.620000	2079.767216
14.630000	2073.655336
14.640000	2037.941999
14.650000	1959.816732
14.660000	1873.649740
14.670000	1808.365255
14.680000	1826.183050
14.690000	1874.665005
14.700000	1937.212951
14.710000	1971.290332
14.720000	2014.525169
14.730000	2065.201713
14.740000	2123.234610
14.750000	2147.725695
14.760000	2163.514571
14.770000	2173.243934
14.780000	2201.241226
14.790000	2347.689550
14.800000	2496.424583
14.810000	2608.396419
14.820000	2583.153938
14.830000	2537.078651
14.840000	2525.427048
14.850000	2535.952259
14.860000	2558.079991
14.870000	2571.171907
14.880000	2597.556387
14.890000	2630.348506
14.900000	2652.707688
14.910000	2664.605241
14.920000	2670.236246
14.930000	2683.251950
14.940000	2690.386540
14.950000	2689.623534
14.960000	2698.282215
14.970000	2727.669157
14.980000	2783.518066
14.990000	2837.976261
15.000000	2877.478448
15.010000	2915.708374
15.020000	2960.771871
15.030000	3011.093768
15.040000	3051.706539
15.050000	3091.888587
15.060000	3131.289045
15.070000	3174.369010
15.080000	3213.843091
15.090000	3193.717517
15.100000	3167.698344
15.110000	3144.607343
15.120000	3161.627425
15.130000	3178.277775
15.140000	3190.983083
15.150000	3203.959431
15.160000	3215.978200
15.170000	3237.659279
15.180000	3275.612505
15.190000	3315.616646
15.200000	3320.830592
15.210000	3318.393471
15.220000	3324.326343
15.230000	3354.810052
15.240000	3381.670682
15.250000	3399.925147
15.260000	3425.705553
15.270000	3439.572779
15.280000	3447.437965
15.290000	3446.488687
15.300000	3455.185341
15.310000	3465.953907
15.320000	3464.867009
15.330000	3456.419036
15.340000	3408.728964
15.350000	3349.993561
15.360000	3326.916977
15.370000	3360.436693
15.380000	3424.913905
15.390000	3467.405782
15.400000	3500.021207
15.410000	3521.266615
15.420000	3540.417904
15.430000	3555.353316
15.440000	3581.784756
15.450000	3598.590671
15.460000	3587.074043
15.470000	3560.829762
15.480000	3526.588100
15.490000	3501.672128
15.500000	3470.249141
15.510000	3444.159059
15.520000	3420.769485
15.530000	3400.550701
15.540000	3391.871492
15.550000	3385.785180
15.560000	3388.903698
15.570000	3391.526038
15.580000	3403.537915
15.590000	3418.433765
15.600000	3439.407648
15.610000	3465.536025
15.620000	3508.514828
15.630000	3557.442595
15.640000	3591.792181
15.650000	3587.867285
15.660000	3589.779455
15.670000	3653.177513
15.680000	3730.333459
15.690000	3734.895777
15.700000	3624.184965
15.710000	3466.760533
15.720000	3241.628190
15.730000	2852.252193
15.740000	2271.091980
15.750000	1715.911990
15.760000	1272.684823
15.770000	966.893306
15.780000	677.024873
15.790000	372.271295
15.800000	55.936095
15.810000	-269.211437
15.820000	-525.810470
15.830000	-773.937716
15.840000	-1033.984169
15.850000	-1368.987327
15.860000	-1636.135419
15.870000	-1833.637249
15.880000	-1950.143451
15.890000	-1939.411072
15.900000	-1773.090392
15.910000	-1116.235919
15.920000	56.215100
15.930000	1626.313329
15.940000	2894.687236
15.950000	2631.499184
15.960000	-777.795502
15.970000	-7602.269010
15.980000	-19903.308736
15.990000	-35875.717547
16.000000	-54724.949445
16.010000	-66906.539349
16.020000	-68423.230214
16.030000	-66083.115940
16.040000	-62296.846421
16.050000	-58906.427832
16.060000	-55838.472111
16.070000	-53170.425258
16.080000	-51506.148860
16.090000	-51913.302038
16.100000	-53307.520356
16.110000	-54865.166647
16.120000	-55748.791593
16.130000	-56010.410868
16.140000	-55608.073317
16.150000	-54699.804518
16.160000	-52580.916967
16.170000	-49491.054188
16.180000	-45877.925005
16.190000	-42819.625102
16.200000	-40004.702999
16.210000	-36458.624252
16.220000	-31695.401658
16.230000	-25988.001058
16.240000	-19663.892890
16.250000	-13146.839715
16.260000	-7581.599915
16.270000	-3275.844621
16.280000	-122.341180
16.290000	3213.939779
16.300000	5615.640957
16.310000	7182.865476
16.320000	7234.947805
16.330000	7196.380637
16.340000	7220.910238
16.350000	7141.833033
16.360000	7112.908432
16.370000	6986.952615
16.380000	6876.451697
16.390000	6721.435142
16.400000	6623.613676
16.410000	6520.980642
16.420000	6454.575928
16.430000	6378.141526
16.440000	6353.361003
16.450000	6318.160011
16.460000	6305.275115
16.470000	6281.537192
16.480000	6273.229936
16.490000	6245.628559
16.500000	6224.904724
16.510000	6203.851884
16.520000	6217.924535
16.530000	6236.458972
16.540000	6269.626002
16.550000	6298.894161
16.560000	6351.698046
16.570000	6415.467826
16.580000	6488.719538
16.590000	6561.942387
16.600000	6649.065589
16.610000	6745.296234
16.620000	6852.029834
16.630000	6925.798505
16.640000	6965.051255
16.650000	6971.254808
16.660000	6992.817668
16.670000	7017.497534
16.680000	7028.862478
16.690000	7020.394248
16.700000	7009.603524
16.710000	6988.187069
16.720000	6936.951723
16.730000	6848.653118
16.740000	6754.382261
16.750000	6671.394810
16.760000	6621.141180
16.770000	6589.024197
16.780000	6554.206129
16.790000	6504.002239
16.800000	6451.003146
16.810000	6426.029342
16.820000	6424.036954
16.830000	6407.973424
16.840000	6337.736837
16.850000	6258.829924
16.860000	6187.369450
16.870000	6135.023753
16.880000	6076.920647
16.890000	6009.297198
16.900000	5950.557019
16.910000	5882.497008
16.920000	5834.018923
16.930000	5793.952122
16.940000	5750.513682
16.950000	5694.451191
16.960000	5644.792220
16.970000	5606.954717
16.980000	5557.702924
16.990000	5503.920827
17.000000	5444.640878
17.010000	5403.004227
17.020000	5355.838258
17.030000	5309.557709
17.040000	5264.743923
17.050000	5206.795920
17.060000	5148.787448
17.070000	5096.411096
17.080000	5044.533835
17.090000	4966.702302
17.100000	4845.374578
17.110000	4697.493363
17.120000	4563.353163
17.130000	4419.184038
17.140000	4280.851353
17.150000	4158.605177
17.160000	4071.454602
17.170000	4000.672093
17.180000	3916.779476
17.190000	3844.975372
17.200000	3808.520228
17.210000	3782.235130
17.220000	3721.632432
17.230000	3637.071623
17.240000	3565.913138
17.250000	3517.593989
17.260000	3478.561473
17.270000	3435.883681
17.280000	3399.038470
17.290000	3356.216823
17.300000	3290.939340
17.310000	3227.098979
17.320000	3174.240337
17.330000	3153.788022
17.340000	3154.560736
17.350000	3167.593455
17.360000	3186.666974
17.370000	3202.837677
17.380000	3212.234705
17.390000	3214.540487
17.400000	3209.920505
17.410000	3223.429627
17.420000	3257.329546
17.430000	3296.056842
17.440000	3315.503319
17.450000	3314.202258
17.460000	3312.193303
17.470000	3288.025298
17.480000	3210.315341
17.490000	3094.771408
17.500000	2974.613588
17.510000	2889.999040
17.520000	2828.230140
17.530000	2776.022855
17.540000	2736.356791
17.550000	2709.839871
17.560000	2700.627166
17.570000	2709.114796
17.580000	2717.984687
17.590000	2696.489517
17.600000	2666.958868
17.610000	2631.279821
17.620000	2613.132133
17.630000	2591.086274
17.640000	2560.826581
17.650000	2529.064641
17.660000	2496.313063
17.670000	2480.567505
17.680000	2465.181611
17.690000	2442.573198
17.700000	2416.225857
17.710000	2402.092464
17.720000	2402.044761
17.730000	2409.402233
17.740000	2431.048889
17.750000	2455.142498
17.760000	2476.219747
17.770000	2486.359153
17.780000	2487.902518
17.790000	2507.794340
17.800000	2536.636983
17.810000	2558.029004
17.820000	2565.217181
17.830000	2559.772937
17.840000	2558.659884
17.850000	2504.466629
17.860000	2427.163746
17.870000	2399.766813
17.880000	2412.930089
17.890000	2428.142663
17.900000	2400.835959
17.910000	2379.597585
17.920000	2379.807532
17.930000	2374.426594
17.940000	2404.122666
17.950000	2470.639948
17.960000	2559.551607
17.970000	2620.914266
17.980000	2649.261497
17.990000	2672.773379
18.000000	2703.085237
18.010000	2743.435614
18.020000	2779.019145
18.030000	2808.962702
18.040000	2832.112379
18.050000	2859.684019
18.060000	2884.983484
18.070000	2911.594084
18.080000	2928.307923
18.090000	2941.713741
18.100000	2958.459974
18.110000	2992.347209
18.120000	3026.689158
18.130000	3059.181059
18.140000	3083.735496
18.150000	3094.844018
18.160000	3077.249202
18.170000	3007.311372
18.180000	2936.797354
18.190000	2859.112334
18.200000	2822.991258
18.210000	2796.853018
18.220000	2809.845454
18.230000	2835.601214
18.240000	2867.246322
18.250000	2891.825633
18.260000	2926.221842
18.270000	2965.148286
18.280000	3003.690581
18.290000	3146.597388
18.300000	3293.754936
18.310000	3431.107491
18.320000	3446.373807
18.330000	3452.727431
18.340000	3470.561415
18.350000	3476.383335
18.360000	3483.339063
18.370000	3488.484015
18.380000	3498.297766
18.390000	3472.611256
18.400000	3409.515733
18.410000	3305.554561
18.420000	3205.017937
18.430000	3109.533215
18.440000	3030.699464
18.450000	2967.628895
18.460000	2917.860693
18.470000	2865.838646
18.480000	2819.569342
18.490000	2799.230508
18.500000	2814.062593
18.510000	2829.649717
18.520000	2825.407012
18.530000	2806.284814
18.540000	2780.572245
18.550000	2755.059981
18.560000	2728.525510
18.570000	2705.994856
18.580000	2680.922025
18.590000	2607.629757
18.600000	2537.391448
18.610000	2481.961848
18.620000	2476.396351
18.630000	2472.535939
18.640000	2459.974559
18.650000	2476.711634
18.660000	2495.842180
18.670000	2516.425329
18.680000	2510.100174
18.690000	2489.382625
18.700000	2445.429797
18.710000	2352.088284
18.720000	2247.731487
18.730000	2159.891257
18.740000	2108.805805
18.750000	2072.703729
18.760000	2043.040209
18.770000	2026.346896
18.780000	2028.059738
18.790000	2053.108979
18.800000	2078.454907
18.810000	2101.712396
18.820000	2106.261048
18.830000	2112.867354
18.840000	2122.460330
18.850000	2128.782293
18.860000	2144.490027
18.870000	2160.414482
18.880000	2195.706757
18.890000	2275.504402
18.900000	2352.163567
18.910000	2395.414032
18.920000	2369.041375
18.930000	2293.582172
18.940000	2224.115330
18.950000	2153.011306
18.960000	2109.388717
18.970000	2073.068802
18.980000	2047.489307
18.990000	2038.894910
19.000000	2048.000834
19.010000	2115.923313
19.020000	2198.033377
19.030000	2282.797651
19.040000	2339.433254
19.050000	2378.203417
19.060000	2418.274749
19.070000	2436.241210
19.080000	2460.004564
19.090000	2478.918956
19.100000	2496.517562
19.110000	2502.300798
19.120000	2501.147153
19.130000	2515.135938
19.140000	2546.125611
19.150000	2576.988340
19.160000	2601.869427
19.170000	2632.287825
19.180000	2666.641526
19.190000	2697.968515
19.200000	2730.839481
19.210000	2771.044976
19.220000	2816.406191
19.230000	2862.169879
19.240000	2904.027824
19.250000	2949.713059
19.260000	2992.325957
19.270000	3036.335622
19.280000	3066.616546
19.290000	3090.731537
19.300000	3124.973562
19.310000	3181.155656
19.320000	3237.944754
19.330000	3279.966040
19.340000	3297.967330
19.350000	3293.505327
19.360000	3241.948487
19.370000	3157.513095
19.380000	3080.694856
19.390000	3031.488821
19.400000	2984.004007
19.410000	2929.531746
19.420000	2870.026961
19.430000	2828.982830
19.440000	2806.666262
19.450000	2786.064381
19.460000	2781.400384
19.470000	2774.062527
19.480000	2770.875550
19.490000	2739.956590
19.500000	2705.838929
19.510000	2688.502424
19.520000	2694.761423
19.530000	2696.612218
19.540000	2685.060015
19.550000	2678.451944
19.560000	2674.955614
19.570000	2681.967031
19.580000	2689.450916
19.590000	2695.817103
19.600000	2696.246671
19.610000	2704.692236
19.620000	2731.336404
19.630000	2753.779693
19.640000	2768.778026
19.650000	2779.514859
19.660000	2802.216288
19.670000	2831.816442
19.680000	2868.624940
19.690000	2910.397345
19.700000	2948.967688
19.710000	2981.607552
19.720000	3006.257298
19.730000	3032.792871
19.740000	3046.753015
19.750000	3076.699908
19.760000	3099.039613
19.770000	3081.514511
19.780000	3002.951897
19.790000	2907.434108
19.800000	2838.117909
19.810000	2808.191484
19.820000	2785.409695
19.830000	2765.272742
19.840000	2734.589052
19.850000	2710.679665
19.860000	2717.692752
19.870000	2758.597727
19.880000	2800.597891
19.890000	2818.433176
19.900000	2821.491878
19.910000	2799.104197
19.920000	2752.639892
19.930000	2677.309539
19.940000	2591.065199
19.950000	2491.002674
19.960000	2386.399266
19.970000	2295.927125
19.980000	2211.194710
19.990000	2077.590520
20.000000	1926.422193
20.010000	1809.168860
20.020000	1748.760947
20.030000	1723.477705
20.040000	1685.878986
20.050000	1636.431493
20.060000	1542.750255
20.070000	1452.445204
20.080000	1357.305157
20.090000	1288.066233
20.100000	1207.838053
20.110000	1161.405372
20.120000	1087.904600
20.130000	906.844455
20.140000	585.586455
20.150000	330.754584
20.160000	245.795498
20.170000	243.615294
20.180000	504.877211
20.190000	677.145733
20.200000	-584.302543
20.210000	-3009.428167
20.220000	-4398.057110
20.230000	-3906.941700
20.240000	-4104.063585
20.250000	-7804.169920
20.260000	-16982.212048
20.270000	-30939.638641
20.280000	-48286.767152
20.290000	-63053.760154
20.300000	-69532.210310
20.310000	-71068.047211
20.320000	-67694.886098
20.330000	-61940.804348
20.340000	-55280.566419
20.350000	-49859.383389
20.360000	-46410.858311
20.370000	-44690.493528
20.380000	-43613.200842
20.390000	-42566.478602
20.400000	-41342.564585
20.410000	-40223.049638
20.420000	-38387.141219
20.430000	-35562.031589
20.440000	-32429.911577
20.450000	-29646.175369
20.460000	-27487.876014
20.470000	-25717.469913
20.480000	-24734.150842
20.490000	-24243.752196
20.500000	-23553.887767
20.510000	-21567.475699
20.520000	-17599.639684
20.530000	-12202.689967
20.540000	-6411.639912
20.550000	-1608.825240
20.560000	1722.655629
20.570000	3790.218848
20.580000	5009.507511
20.590000	5782.367612
20.600000	6308.951722
20.610000	6653.961003
20.620000	6867.175262
20.630000	7004.729113
20.640000	7086.125702
20.650000	7200.519574
20.660000	7312.234493
20.670000	7404.867628
20.680000	7441.795809
20.690000	7455.918049
20.700000	7459.481802
20.710000	7460.140518
20.720000	7454.993359
20.730000	7439.549679
20.740000	7426.412719
20.750000	7422.808004
20.760000	7430.350302
20.770000	7430.881977
20.780000	7421.870365
20.790000	7395.818107
20.800000	7346.606187
20.810000	7281.338665
20.820000	7234.635117
20.830000	7210.662495
20.840000	7187.147671
20.850000	7134.859411
20.860000	7078.703690
20.870000	7010.863756
20.880000	6898.758148
20.890000	6752.220161
20.900000	6606.787837
20.910000	6496.479380
20.920000	6408.932773
20.930000	6353.376136
20.940000	6380.772809
20.950000	6525.476603
20.960000	6739.972802
20.970000	6928.698696
20.980000	7048.238350
20.990000	7090.943385
21.000000	7058.455758
21.010000	6966.488340
21.020000	6807.873842
21.030000	6629.446987
21.040000	6450.149164
21.050000	6303.046716
21.060000	6167.213538
21.070000	6028.938628
21.080000	5895.609877
21.090000	5798.839364
21.100000	5720.145827
21.110000	5679.457660
21.120000	5661.866324
21.130000	5685.782495
21.140000	5739.453763
21.150000	5832.450407
21.160000	5932.545604
21.170000	6042.835859
21.180000	6126.148649
21.190000	6064.956998
21.200000	5937.246279
21.210000	5795.633895
21.220000	5773.525702
21.230000	5776.980699
21.240000	5762.238342
21.250000	5729.745338
21.260000	5692.282265
21.270000	5669.159605
21.280000	5644.863148
21.290000	5541.369009
21.300000	5418.122604
21.310000	5320.174023
21.320000	5296.361724
21.330000	5283.641745
21.340000	5267.036908
21.350000	5266.844406
21.360000	5262.906343
21.370000	5249.058142
21.380000	5194.347583
21.390000	5124.066788
21.400000	5012.623343
21.410000	4903.907699
21.420000	4787.725761
21.430000	4692.831205
21.440000	4615.715578
21.450000	4548.051175
21.460000	4486.362082
21.470000	4423.571581
21.480000	4383.403777
21.490000	4351.966174
21.500000	4322.108377
21.510000	4289.011745
21.520000	4247.122356
21.530000	4201.397718
21.540000	4152.770253
21.550000	4119.810522
21.560000	4097.331336
21.570000	4087.221226
21.580000	4074.156948
21.590000	4048.292086
21.600000	4022.690548
21.610000	4014.017826
21.620000	4013.465739
21.630000	4007.709258
21.640000	3997.925376
21.650000	4002.759775
21.660000	4017.966378
21.670000	4032.101205
21.680000	4035.322212
21.690000	4027.780238
21.700000	4024.361710
21.710000	4030.409257
21.720000	4031.656532
21.730000	4012.677231
21.740000	3965.948133
21.750000	3900.298098
21.760000	3799.812639
21.770000	3666.608879
21.780000	3534.069575
21.790000	3413.164134
21.800000	3323.656154
21.810000	3255.943655
21.820000	3221.605238
21.830000	3198.266978
21.840000	3175.891297
21.850000	3163.946317
21.860000	3170.475213
21.870000	3185.209776
21.880000	3178.305732
21.890000	3165.564913
21.900000	3143.716091
21.910000	3137.294544
21.920000	3129.643979
21.930000	3112.009067
21.940000	3095.254786
21.950000	3086.675297
21.960000	3095.498217
21.970000	3099.882622
21.980000	3100.428806
21.990000	3100.722745
22.000000	3107.993052
22.010000	3155.256384
22.020000	3219.692310
22.030000	3289.440831
22.040000	3327.609160
22.050000	3352.729477
22.060000	3367.098995
22.070000	3377.647338
22.080000	3391.872444
22.090000	3416.844954
22.100000	3446.890671
22.110000	3460.945581
22.120000	3471.277872
22.130000	3461.911515
22.140000	3450.365386
22.150000	3400.670937
22.160000	3338.895741
22.170000	3270.979569
22.180000	3224.756069
22.190000	3194.464432
22.200000	3179.564546
22.210000	3194.589794
22.220000	3235.252362
22.230000	3287.284023
22.240000	3312.134993
22.250000	3328.395239
22.260000	3347.255872
22.270000	3360.376545
22.280000	3375.008454
22.290000	3372.206574
22.300000	3389.501928
22.310000	3390.417526
22.320000	3388.381725
22.330000	3369.133389
22.340000	3366.639967
22.350000	3383.340303
22.360000	3414.454339
22.370000	3436.403164
22.380000	3451.579226
22.390000	3544.595949
22.400000	3647.520790
22.410000	3752.855247
22.420000	3802.889822
22.430000	3846.637868
22.440000	3894.380810
22.450000	3924.225236
22.460000	3928.468646
22.470000	3897.362920
22.480000	3820.107568
22.490000	3741.538740
22.500000	3678.887318
22.510000	3646.253912
22.520000	3634.148169
22.530000	3624.823556
22.540000	3618.332955
22.550000	3613.262095
22.560000	3617.079580
22.570000	3628.545320
22.580000	3650.704390
22.590000	3677.668209
22.600000	3697.507905
22.610000	3716.701355
22.620000	3730.805512
22.630000	3758.319293
22.640000	3784.531355
22.650000	3805.818116
22.660000	3825.791793
22.670000	3831.450296
22.680000	3841.983884
22.690000	3846.841576
22.700000	3860.416132
22.710000	3868.322969
22.720000	3878.409410
22.730000	3880.251605
22.740000	3882.282671
22.750000	3887.992263
22.760000	3900.979217
22.770000	3912.185169
22.780000	3910.153524
22.790000	3905.253013
22.800000	3901.790128
22.810000	3905.801821
22.820000	3889.473873
22.830000	3876.629785
22.840000	3880.596643
22.850000	3887.180514
22.860000	3887.863831
22.870000	3879.204461
22.880000	3885.998282
22.890000	3869.173098
22.900000	3791.254273
22.910000	3689.126809
22.920000	3609.314575
22.930000	3567.102865
22.940000	3540.711501
22.950000	3511.188709
22.960000	3489.288944
22.970000	3472.667719
22.980000	3451.605467
22.990000	3439.633433
23.000000	3426.609966
23.010000	3408.031089
23.020000	3379.695194
23.030000	3343.522210
23.040000	3308.539997
23.050000	3255.672906
23.060000	3197.872885
23.070000	3143.875478
23.080000	3104.270974
23.090000	3069.078285
23.100000	3033.403046
23.110000	2992.330973
23.120000	2952.279415
23.130000	2923.971881
23.140000	2912.513280
23.150000	2914.625876
23.160000	2917.420019
23.170000	2923.685355
23.180000	2928.999162
23.190000	2944.141912
23.200000	2964.220335
23.210000	2987.622301
23.220000	3010.112177
23.230000	3032.791592
23.240000	3046.646829
23.250000	3047.307227
23.260000	3040.539229
23.270000	3027.469652
23.280000	2989.031973
23.290000	2902.607717
23.300000	2818.372954
23.310000	2781.376218
23.320000	2784.210582
23.330000	2779.338066
23.340000	2753.441936
23.350000	2727.356263
23.360000	2709.598143
23.370000	2693.955466
23.380000	2695.430173
23.390000	2701.760091
23.400000	2704.549190
23.410000	2689.821805
23.420000	2674.688698
23.430000	2657.429587
23.440000	2641.101780
23.450000	2628.961012
23.460000	2609.727332
23.470000	2589.789303
23.480000	2576.934327
23.490000	2580.528781
23.500000	2596.340052
23.510000	2649.581093
23.520000	2705.141252
23.530000	2762.953329
23.540000	2783.052376
23.550000	2797.070868
23.560000	2808.096219
23.570000	2816.721790
23.580000	2833.035469
23.590000	2842.503496
23.600000	2846.211758
23.610000	2851.157955
23.620000	2865.911238
23.630000	2879.272670
23.640000	2892.822692
23.650000	2910.900810
23.660000	2924.866631
23.670000	2937.390420
23.680000	2922.658326
23.690000	2846.344878
23.700000	2780.893712
23.710000	2736.942219
23.720000	2742.652048
23.730000	2733.087507
23.740000	2710.393752
23.750000	2711.121882
23.760000	2708.083756
23.770000	2698.675906
23.780000	2675.875827
23.790000	2670.443300
23.800000	2671.324695
23.810000	2681.349158
23.820000	2672.116801
23.830000	2674.174589
23.840000	2689.249399
23.850000	2729.443459
23.860000	2778.380665
23.870000	2827.806782
23.880000	2863.563102
23.890000	2894.629604
23.900000	2922.115075
23.910000	2960.208030
23.920000	2994.302814
23.930000	3028.213719
23.940000	3043.467813
23.950000	3061.696480
23.960000	3070.568218
23.970000	3097.980167
23.980000	3128.902883
23.990000	2919.649697
24.000000	2647.068132
24.010000	2332.562850
24.020000	2226.862114
24.030000	2144.605432
24.040000	2053.398360
24.050000	1951.382288
24.060000	1843.264639
24.070000	1725.443232
24.080000	1614.822386
24.090000	1495.042851
24.100000	1401.814725
24.110000	1298.062340
24.120000	1217.616457
24.130000	1114.806299
24.140000	1028.922543
24.150000	878.818637
24.160000	732.900050
24.170000	488.951172
24.180000	256.041504
24.190000	-50.536735
24.200000	-317.366286
24.210000	-705.878136
24.220000	-1079.058167
24.230000	-1468.792415
24.240000	-1777.508650
24.250000	-2191.271739
24.260000	-2511.360136
24.270000	-2892.183972
24.280000	-2976.942361
24.290000	-2862.147879
24.300000	-3154.069731
24.310000	-4497.033130
24.320000	-5140.441161
24.330000	-4468.194645
24.340000	-3358.080969
24.350000	-4713.757334
24.360000	-9087.505348
24.370000	-16134.630950
24.380000	-27923.372374
24.390000	-42566.920148
24.400000	-44908.265190
24.410000	-44608.720693
24.420000	-42377.099197
24.430000	-39029.557700
24.440000	-35609.100884
24.450000	-32697.676524
24.460000	-30535.715991
24.470000	-28910.772626
24.480000	-27756.623367
24.490000	-27107.370920
24.500000	-26727.686507
24.510000	-27005.913584
24.520000	-27787.826304
24.530000	-28436.699848
24.540000	-28513.078520
24.550000	-28553.405374
24.560000	-28124.574785
24.570000	-27241.583228
24.580000	-24913.550999
24.590000	-21532.135233
24.600000	-16627.227941
24.610000	-10798.537391
24.620000	-5191.539231
24.630000	-1272.907693
24.640000	592.062852
24.650000	515.539685
24.660000	-629.157737
24.670000	-2606.010136
24.680000	-4525.162896
24.690000	-4402.802593
24.700000	-3366.293964
24.710000	-1812.837282
24.720000	-1569.266150
24.730000	-1510.345231
24.740000	-1314.694327
24.750000	-1315.231862
24.760000	-1197.927329
24.770000	-1163.447307
24.780000	-1058.102323
24.790000	-1104.277687
24.800000	-1106.712321
24.810000	-1175.194753
24.820000	-1129.106945
24.830000	-1121.945135
24.840000	-1043.359265
24.850000	-1002.547610
24.860000	-903.965037
24.870000	-829.553397
24.880000	-711.074189
24.890000	-446.431375
