Time(s)	IR_denoised_wiener
0.000000	-84.497043
0.010000	-153.296723
0.020000	-198.935494
0.030000	-249.454164
0.040000	-298.001124
0.050000	-346.660747
0.060000	-383.386121
0.070000	-406.253557
0.080000	-419.479981
0.090000	-426.202306
0.100000	-428.597012
0.110000	-420.153237
0.120000	-413.459442
0.130000	-412.440210
0.140000	-421.015257
0.150000	-430.385873
0.160000	-438.282849
0.170000	-444.029973
0.180000	-445.908523
0.190000	-442.034779
0.200000	-443.598139
0.210000	-447.027288
0.220000	-445.640996
0.230000	-434.386253
0.240000	-421.415642
0.250000	-408.423195
0.260000	-388.529315
0.270000	-364.181856
0.280000	-343.688706
0.290000	-332.629500
0.300000	-323.508847
0.310000	-304.762813
0.320000	-281.070624
0.330000	-252.580883
0.340000	-227.685754
0.350000	-201.393078
0.360000	-174.347424
0.370000	-149.910634
0.380000	-126.359862
0.390000	-106.137866
0.400000	-83.046973
0.410000	-61.091691
0.420000	-59.474565
0.430000	-93.734359
0.440000	-149.853382
0.450000	-205.720701
0.460000	-246.618573
0.470000	-281.471542
0.480000	-317.077650
0.490000	-350.896622
0.500000	-379.233603
0.510000	-398.020883
0.520000	-405.429396
0.530000	-405.194271
0.540000	-401.995113
0.550000	-406.418025
0.560000	-418.900577
0.570000	-433.659123
0.580000	-446.845930
0.590000	-462.289347
0.600000	-474.467112
0.610000	-483.971340
0.620000	-487.111636
0.630000	-487.709195
0.640000	-483.775558
0.650000	-484.847513
0.660000	-499.806606
0.670000	-517.967797
0.680000	-530.879605
0.690000	-528.118589
0.700000	-511.020934
0.710000	-482.309321
0.720000	-452.219126
0.730000	-420.173348
0.740000	-389.798614
0.750000	-358.389824
0.760000	-332.774210
0.770000	-310.283564
0.780000	-281.100263
0.790000	-250.923428
0.800000	-225.797514
0.810000	-208.257313
0.820000	-189.834948
0.830000	-166.640914
0.840000	-141.594964
0.850000	-123.411047
0.860000	-130.084493
0.870000	-167.852977
0.880000	-226.566503
0.890000	-289.313895
0.900000	-346.105147
0.910000	-401.184931
0.920000	-445.979668
0.930000	-485.464324
0.940000	-519.544804
0.950000	-546.777937
0.960000	-566.817596
0.970000	-574.449539
0.980000	-578.834610
0.990000	-583.142800
1.000000	-595.235996
1.010000	-609.169663
1.020000	-624.356984
1.030000	-641.906095
1.040000	-653.490330
1.050000	-662.045084
1.060000	-663.977385
1.070000	-662.908873
1.080000	-656.152105
1.090000	-643.484430
1.100000	-634.057570
1.110000	-618.046190
1.120000	-597.701187
1.130000	-575.313031
1.140000	-555.389182
1.150000	-539.276125
1.160000	-518.087316
1.170000	-500.993700
1.180000	-482.115633
1.190000	-464.774701
1.200000	-445.162485
1.210000	-424.942141
1.220000	-407.251422
1.230000	-384.785556
1.240000	-364.417240
1.250000	-332.945061
1.260000	-302.022495
1.270000	-278.128135
1.280000	-263.320001
1.290000	-265.698805
1.300000	-285.633877
1.310000	-331.328535
1.320000	-383.910867
1.330000	-431.682045
1.340000	-476.930284
1.350000	-516.056657
1.360000	-548.328105
1.370000	-568.455880
1.380000	-579.452435
1.390000	-581.885348
1.400000	-572.937677
1.410000	-564.057446
1.420000	-558.771185
1.430000	-558.593946
1.440000	-559.626313
1.450000	-559.170132
1.460000	-565.547991
1.470000	-574.748612
1.480000	-584.176278
1.490000	-584.344100
1.500000	-579.879143
1.510000	-567.286302
1.520000	-548.967097
1.530000	-525.926763
1.540000	-508.449160
1.550000	-494.234479
1.560000	-475.283911
1.570000	-454.273042
1.580000	-428.806113
1.590000	-406.373319
1.600000	-378.318374
1.610000	-349.210837
1.620000	-319.185878
1.630000	-290.086973
1.640000	-268.099067
1.650000	-241.614502
1.660000	-211.078787
1.670000	-177.510194
1.680000	-147.440068
1.690000	-125.099146
1.700000	-100.461597
1.710000	-80.433833
1.720000	-75.859661
1.730000	-105.823365
1.740000	-154.527286
1.750000	-206.244948
1.760000	-249.571794
1.770000	-290.077986
1.780000	-326.963457
1.790000	-359.275073
1.800000	-384.381462
1.810000	-399.836770
1.820000	-402.829041
1.830000	-396.110804
1.840000	-384.311971
1.850000	-379.100837
1.860000	-380.793524
1.870000	-393.129874
1.880000	-412.617946
1.890000	-428.167236
1.900000	-439.501056
1.910000	-436.874034
1.920000	-436.149733
1.930000	-432.886745
1.940000	-427.840814
1.950000	-415.242777
1.960000	-397.916516
1.970000	-374.615088
1.980000	-345.690507
1.990000	-321.040617
2.000000	-303.137536
2.010000	-289.144763
2.020000	-268.589885
2.030000	-238.963500
2.040000	-208.764949
2.050000	-182.463403
2.060000	-165.635044
2.070000	-150.952945
2.080000	-134.539445
2.090000	-115.809447
2.100000	-101.154007
2.110000	-96.020776
2.120000	-96.767437
2.130000	-99.922825
2.140000	-97.391497
2.150000	-86.529592
2.160000	-86.431421
2.170000	-118.832853
2.180000	-184.435892
2.190000	-261.763928
2.200000	-321.774724
2.210000	-364.462972
2.220000	-399.160492
2.230000	-425.823964
2.240000	-447.909974
2.250000	-459.178827
2.260000	-464.710783
2.270000	-466.545303
2.280000	-456.168966
2.290000	-445.988653
2.300000	-439.622144
2.310000	-453.820262
2.320000	-473.339349
2.330000	-492.696961
2.340000	-503.733861
2.350000	-507.282723
2.360000	-507.822455
2.370000	-504.203460
2.380000	-497.266648
2.390000	-482.793461
2.400000	-461.406991
2.410000	-431.727165
2.420000	-399.916941
2.430000	-376.354353
2.440000	-368.099364
2.450000	-367.288481
2.460000	-356.269170
2.470000	-329.937685
2.480000	-298.828876
2.490000	-272.263502
2.500000	-252.381805
2.510000	-230.238147
2.520000	-202.629445
2.530000	-170.903891
2.540000	-140.566762
2.550000	-115.910889
2.560000	-91.488232
2.570000	-54.575133
2.580000	-18.491450
2.590000	18.124407
2.600000	40.451358
2.610000	31.809661
2.620000	-12.581990
2.630000	-71.441991
2.640000	-122.621100
2.650000	-168.101054
2.660000	-213.343887
2.670000	-243.043514
2.680000	-251.098715
2.690000	-244.695544
2.700000	-229.522154
2.710000	-211.687771
2.720000	-189.930701
2.730000	-173.380202
2.740000	-165.327855
2.750000	-160.386413
2.760000	-158.409998
2.770000	-157.725328
2.780000	-166.522437
2.790000	-177.023230
2.800000	-179.632365
2.810000	-176.020859
2.820000	-163.732711
2.830000	-154.391880
2.840000	-144.793347
2.850000	-131.429388
2.860000	-106.174918
2.870000	-76.843920
2.880000	-49.217113
2.890000	-25.915613
2.900000	-0.900991
2.910000	27.335159
2.920000	60.751646
2.930000	103.594529
2.940000	141.689714
2.950000	174.895501
2.960000	203.298506
2.970000	234.554397
2.980000	262.206039
2.990000	285.901264
3.000000	311.803038
3.010000	335.892101
3.020000	360.422901
3.030000	366.497501
3.040000	343.739185
3.050000	289.464072
3.060000	225.797339
3.070000	167.083354
3.080000	115.162248
3.090000	71.710301
3.100000	47.226520
3.110000	40.313384
3.120000	41.611416
3.130000	49.948460
3.140000	63.671508
3.150000	81.595016
3.160000	90.709668
3.170000	89.951937
3.180000	84.442713
3.190000	82.997248
3.200000	81.485458
3.210000	77.392594
3.220000	75.895267
3.230000	79.125860
3.240000	84.973378
3.250000	93.211266
3.260000	101.392697
3.270000	116.336434
3.280000	132.459271
3.290000	155.841962
3.300000	186.190332
3.310000	215.341545
3.320000	239.950628
3.330000	259.197734
3.340000	279.413903
3.350000	301.389041
3.360000	320.880690
3.370000	342.288414
3.380000	363.012912
3.390000	378.534162
3.400000	387.840075
3.410000	394.478058
3.420000	416.058474
3.430000	444.704880
3.440000	470.624851
3.450000	488.965487
3.460000	487.190651
3.470000	461.938792
3.480000	408.440385
3.490000	338.646119
3.500000	274.739956
3.510000	217.650423
3.520000	179.425716
3.530000	150.952545
3.540000	133.496209
3.550000	119.252941
3.560000	117.971715
3.570000	126.876022
3.580000	140.463774
3.590000	141.491177
3.600000	133.704758
3.610000	131.159534
3.620000	132.929768
3.630000	128.827906
3.640000	107.844920
3.650000	82.252898
3.660000	56.765602
3.670000	39.380143
3.680000	24.342025
3.690000	20.240573
3.700000	28.593090
3.710000	46.449741
3.720000	63.184356
3.730000	76.376340
3.740000	88.484192
3.750000	109.017752
3.760000	139.791947
3.770000	174.332390
3.780000	201.783937
3.790000	220.034248
3.800000	242.181182
3.810000	276.085472
3.820000	316.573312
3.830000	352.484539
3.840000	384.362137
3.850000	420.603327
3.860000	465.170525
3.870000	512.060078
3.880000	559.355732
3.890000	588.837898
3.900000	581.571738
3.910000	549.399927
3.920000	503.151547
3.930000	465.695184
3.940000	430.016344
3.950000	404.734010
3.960000	399.250821
3.970000	399.074964
3.980000	412.917006
3.990000	433.740873
4.000000	467.988633
4.010000	492.694652
4.020000	502.477412
4.030000	489.009408
4.040000	471.410856
4.050000	441.618986
4.060000	409.763953
4.070000	387.602919
4.080000	368.436441
4.090000	362.336526
4.100000	342.712034
4.110000	328.900272
4.120000	313.618693
4.130000	302.203040
4.140000	289.868772
4.150000	284.913137
4.160000	298.832548
4.170000	332.967092
4.180000	372.791346
4.190000	407.403104
4.200000	439.827338
4.210000	467.195374
4.220000	481.555315
4.230000	477.032794
4.240000	463.365778
4.250000	470.966761
4.260000	497.459436
4.270000	527.906300
4.280000	542.914412
4.290000	568.678082
4.300000	596.647805
4.310000	597.099023
4.320000	544.099066
4.330000	467.380438
4.340000	408.289943
4.350000	373.273838
4.360000	346.460819
4.370000	322.236828
4.380000	304.365656
4.390000	307.604997
4.400000	322.245055
4.410000	350.046548
4.420000	370.772689
4.430000	394.279511
4.440000	403.602190
4.450000	411.971044
4.460000	408.073351
4.470000	398.754951
4.480000	383.232823
4.490000	384.313005
4.500000	396.356951
4.510000	421.936478
4.520000	425.419103
4.530000	433.774933
4.540000	347.825539
4.550000	-2193.689128
4.560000	-4267.008362
4.570000	-2886.230733
4.580000	-54.750334
4.590000	81.167089
4.600000	126.286254
4.610000	222.107673
4.620000	242.550670
4.630000	333.505991
4.640000	294.240597
4.650000	195.969804
4.660000	-6118.125421
4.670000	-6494.939874
4.680000	-3176.409691
4.690000	600.137650
4.700000	423.013544
4.710000	270.571564
4.720000	220.343035
4.730000	-73.427786
4.740000	-687.231336
4.750000	-5506.743226
4.760000	-5371.174693
4.770000	-3399.307597
4.780000	51.478135
4.790000	127.147463
4.800000	126.924345
4.810000	120.610630
4.820000	-66.248586
4.830000	-960.947528
4.840000	-4422.759423
4.850000	-3748.858134
4.860000	-877.977934
4.870000	124.919822
4.880000	248.547195
4.890000	178.227675
4.900000	215.213398
4.910000	263.878590
4.920000	339.234850
4.930000	396.082528
4.940000	476.213987
4.950000	539.781343
4.960000	610.754530
4.970000	484.029519
4.980000	-597.990337
4.990000	-484.765517
5.000000	406.408854
5.010000	668.072475
5.020000	780.280070
5.030000	815.054117
5.040000	944.379059
5.050000	923.614001
5.060000	774.427409
5.070000	-3353.202915
5.080000	-3476.339133
5.090000	-360.706846
5.100000	914.200235
5.110000	724.489453
5.120000	492.653839
5.130000	457.612192
5.140000	487.350355
5.150000	481.213629
5.160000	531.971031
5.170000	570.095886
5.180000	645.312817
5.190000	680.022346
5.200000	730.082056
5.210000	720.651058
5.220000	730.334289
5.230000	712.330525
5.240000	729.951122
5.250000	719.724246
5.260000	745.981753
5.270000	753.519389
5.280000	772.978195
5.290000	755.158895
5.300000	760.005004
5.310000	779.007937
5.320000	812.453786
5.330000	838.193443
5.340000	876.082953
5.350000	916.362882
5.360000	973.510882
5.370000	1018.812798
5.380000	1074.478025
5.390000	1120.880729
5.400000	1178.956387
5.410000	1233.582995
5.420000	1288.553620
5.430000	1331.307471
5.440000	1369.941585
5.450000	1379.341583
5.460000	1363.477137
5.470000	1327.780928
5.480000	1300.142415
5.490000	1290.572709
5.500000	1299.516444
5.510000	1319.410997
5.520000	1324.241760
5.530000	1314.056295
5.540000	1298.395363
5.550000	1287.773256
5.560000	1284.595786
5.570000	1261.811829
5.580000	1238.325031
5.590000	1226.568644
5.600000	1228.762307
5.610000	1227.006347
5.620000	1203.937256
5.630000	1178.613666
5.640000	1153.803749
5.650000	1124.268644
5.660000	1103.792163
5.670000	1086.606280
5.680000	1077.880321
5.690000	1063.293424
5.700000	1048.426174
5.710000	1046.070065
5.720000	1053.666208
5.730000	1081.284376
5.740000	1108.893187
5.750000	1142.305921
5.760000	1173.150746
5.770000	1185.041612
5.780000	1168.162448
5.790000	1125.548634
5.800000	1073.947775
5.810000	1021.100132
5.820000	954.747303
5.830000	876.090970
5.840000	766.895717
5.850000	647.255916
5.860000	543.797459
5.870000	469.451857
5.880000	447.128427
5.890000	425.846551
5.900000	427.059914
5.910000	444.900983
5.920000	492.110488
5.930000	550.939516
5.940000	599.885125
5.950000	629.411819
5.960000	621.704444
5.970000	578.003737
5.980000	526.665362
5.990000	494.324566
6.000000	475.270918
6.010000	465.048824
6.020000	451.588713
6.030000	440.554774
6.040000	417.584316
6.050000	405.562333
6.060000	412.939403
6.070000	460.001349
6.080000	535.606943
6.090000	627.168311
6.100000	771.140915
6.110000	980.000951
6.120000	1240.335125
6.130000	1491.434837
6.140000	1694.319953
6.150000	1835.669924
6.160000	1938.134076
6.170000	2008.926218
6.180000	2038.298304
6.190000	2050.338546
6.200000	2028.747769
6.210000	1976.867369
6.220000	1880.544775
6.230000	1767.573349
6.240000	1671.753243
6.250000	1584.223457
6.260000	1524.433761
6.270000	1496.224633
6.280000	1494.149014
6.290000	1506.602102
6.300000	1528.942885
6.310000	1574.755395
6.320000	1641.083362
6.330000	1719.284698
6.340000	1764.849866
6.350000	1730.530587
6.360000	1651.566598
6.370000	1597.928418
6.380000	1583.853010
6.390000	1540.152735
6.400000	1433.626731
6.410000	1311.318761
6.420000	1226.471621
6.430000	1178.390275
6.440000	1142.303499
6.450000	1085.492549
6.460000	1011.620690
6.470000	960.746298
6.480000	961.958721
6.490000	995.248942
6.500000	1029.649840
6.510000	1048.506850
6.520000	1061.796152
6.530000	1069.451979
6.540000	1081.016402
6.550000	1099.425925
6.560000	1115.917547
6.570000	1104.732279
6.580000	1076.965057
6.590000	1029.711374
6.600000	981.782777
6.610000	905.606337
6.620000	822.443921
6.630000	742.512948
6.640000	687.177011
6.650000	636.346382
6.660000	598.695788
6.670000	558.819698
6.680000	541.697503
6.690000	511.163084
6.700000	503.268240
6.710000	487.359917
6.720000	505.073496
6.730000	494.641368
6.740000	505.218009
6.750000	488.689573
6.760000	509.705447
6.770000	504.751616
6.780000	541.585245
6.790000	538.768325
6.800000	571.592583
6.810000	549.358820
6.820000	592.876488
6.830000	444.270823
6.840000	92.324067
6.850000	-2241.276903
6.860000	-1924.708038
6.870000	-835.368917
6.880000	70.893172
6.890000	342.661887
6.900000	430.634935
6.910000	418.200451
6.920000	471.345163
6.930000	495.711765
6.940000	580.580197
6.950000	624.719550
6.960000	679.252692
6.970000	693.131676
6.980000	704.521124
6.990000	670.337497
7.000000	617.665065
7.010000	542.807499
7.020000	475.248121
7.030000	371.758370
7.040000	97.258736
7.050000	35.479947
7.060000	67.901552
7.070000	288.128398
7.080000	291.519404
7.090000	280.787747
7.100000	253.248449
7.110000	277.651210
7.120000	202.713650
7.130000	8.658996
7.140000	-2553.084563
7.150000	-4453.277522
7.160000	-4346.875832
7.170000	-2035.213711
7.180000	-688.633730
7.190000	-450.361156
7.200000	-389.002903
7.210000	-251.323208
7.220000	-235.476600
7.230000	-306.154117
7.240000	-3484.072588
7.250000	-5566.843315
7.260000	-4361.780392
7.270000	-816.531108
7.280000	-355.950092
7.290000	-119.895251
7.300000	-174.394634
7.310000	-52.756537
7.320000	-215.391797
7.330000	-606.140372
7.340000	-3464.229752
7.350000	-3100.247498
7.360000	100.989978
7.370000	238.457344
7.380000	172.216453
7.390000	-22.140997
7.400000	-36.335979
7.410000	-275.376307
7.420000	-798.185741
7.430000	-1742.105330
7.440000	-801.729039
7.450000	228.658540
7.460000	174.237808
7.470000	-41.938576
7.480000	-63.148929
7.490000	-79.190284
7.500000	-211.186454
7.510000	-2382.997740
7.520000	-2511.006885
7.530000	-781.444687
7.540000	-243.624700
7.550000	-79.763596
7.560000	-188.664022
7.570000	-198.293829
7.580000	-149.523859
7.590000	-115.599898
7.600000	-76.815783
7.610000	-52.033084
7.620000	-17.679480
7.630000	-3.635204
7.640000	9.904027
7.650000	10.651478
7.660000	27.577327
7.670000	42.451197
7.680000	61.292775
7.690000	62.483415
7.700000	75.122131
7.710000	92.391126
7.720000	111.603172
7.730000	118.573796
7.740000	111.089828
7.750000	63.330559
7.760000	-10.675605
7.770000	-104.294997
7.780000	-178.715137
7.790000	-245.087401
7.800000	-299.075553
7.810000	-347.942220
7.820000	-395.123151
7.830000	-432.463363
7.840000	-458.554569
7.850000	-475.025264
7.860000	-479.675013
7.870000	-491.344957
7.880000	-505.431517
7.890000	-523.382171
7.900000	-529.174722
7.910000	-532.859457
7.920000	-550.637053
7.930000	-573.637221
7.940000	-592.133472
7.950000	-602.802775
7.960000	-604.005144
7.970000	-590.997527
7.980000	-569.276412
7.990000	-546.904549
8.000000	-523.229377
8.010000	-494.509129
8.020000	-457.891233
8.030000	-425.194189
8.040000	-415.948186
8.050000	-426.189033
8.060000	-450.709766
8.070000	-479.545906
8.080000	-488.808585
8.090000	-469.653303
8.100000	-394.231461
8.110000	-303.660084
8.120000	-194.910094
8.130000	-60.699233
8.140000	90.991596
8.150000	228.150823
8.160000	276.398420
8.170000	249.196608
8.180000	167.780684
8.190000	72.247916
8.200000	-26.965174
8.210000	-134.455767
8.220000	-229.020915
8.230000	-310.264386
8.240000	-371.774966
8.250000	-422.831302
8.260000	-468.566540
8.270000	-498.738603
8.280000	-517.112902
8.290000	-525.356821
8.300000	-540.084024
8.310000	-558.305264
8.320000	-581.785959
8.330000	-605.620158
8.340000	-627.212696
8.350000	-643.318734
8.360000	-645.009630
8.370000	-637.776393
8.380000	-624.519259
8.390000	-616.978473
8.400000	-621.735185
8.410000	-626.181969
8.420000	-624.691386
8.430000	-616.453449
8.440000	-612.735820
8.450000	-626.785732
8.460000	-642.756012
8.470000	-651.191538
8.480000	-642.833003
8.490000	-633.054887
8.500000	-627.941315
8.510000	-633.642202
8.520000	-645.076176
8.530000	-650.268255
8.540000	-642.617071
8.550000	-611.274185
8.560000	-576.969837
8.570000	-544.294514
8.580000	-526.405114
8.590000	-535.371091
8.600000	-587.244144
8.610000	-668.760209
8.620000	-753.774428
8.630000	-822.226240
8.640000	-871.747074
8.650000	-910.448386
8.660000	-941.433518
8.670000	-975.419214
8.680000	-1001.455101
8.690000	-1015.136208
8.700000	-1008.862964
8.710000	-999.983638
8.720000	-995.303975
8.730000	-1005.570844
8.740000	-1015.402347
8.750000	-1019.247679
8.760000	-1011.229279
8.770000	-1002.032954
8.780000	-993.762403
8.790000	-981.863182
8.800000	-964.700256
8.810000	-938.417485
8.820000	-915.078801
8.830000	-891.326516
8.840000	-866.528699
8.850000	-827.264396
8.860000	-783.105825
8.870000	-735.577677
8.880000	-704.464031
8.890000	-672.854524
8.900000	-644.944638
8.910000	-612.160809
8.920000	-575.181907
8.930000	-536.871079
8.940000	-501.487728
8.950000	-470.638844
8.960000	-435.830645
8.970000	-397.161769
8.980000	-351.563141
8.990000	-304.439630
9.000000	-257.684369
9.010000	-215.455468
9.020000	-186.550137
9.030000	-190.900396
9.040000	-224.415138
9.050000	-276.726671
9.060000	-318.961267
9.070000	-357.381443
9.080000	-386.540598
9.090000	-404.778676
9.100000	-409.181909
9.110000	-404.261755
9.120000	-393.552682
9.130000	-374.794418
9.140000	-346.658200
9.150000	-324.104026
9.160000	-318.151784
9.170000	-323.434193
9.180000	-332.371539
9.190000	-332.817407
9.200000	-336.723077
9.210000	-334.540507
9.220000	-338.199210
9.230000	-337.936301
9.240000	-332.096550
9.250000	-317.727468
9.260000	-303.424539
9.270000	-296.580923
9.280000	-290.780181
9.290000	-279.499658
9.300000	-260.546606
9.310000	-243.182061
9.320000	-229.692737
9.330000	-222.263026
9.340000	-211.539333
9.350000	-196.432157
9.360000	-174.113267
9.370000	-156.707782
9.380000	-137.701405
9.390000	-123.083119
9.400000	-103.312234
9.410000	-76.544914
9.420000	-43.996755
9.430000	-10.080750
9.440000	3.539448
9.450000	-14.988172
9.460000	-69.968792
9.470000	-133.539047
9.480000	-194.253903
9.490000	-242.827598
9.500000	-286.315610
9.510000	-317.140974
9.520000	-332.455284
9.530000	-345.229410
9.540000	-354.956179
9.550000	-364.391674
9.560000	-362.818224
9.570000	-357.334318
9.580000	-361.763473
9.590000	-375.301470
9.600000	-394.766825
9.610000	-409.646397
9.620000	-425.545639
9.630000	-431.677433
9.640000	-433.433293
9.650000	-432.429107
9.660000	-427.042997
9.670000	-421.260389
9.680000	-408.019827
9.690000	-394.862505
9.700000	-372.347332
9.710000	-352.253476
9.720000	-335.375157
9.730000	-320.703234
9.740000	-307.133039
9.750000	-287.867589
9.760000	-266.984263
9.770000	-247.091292
9.780000	-230.899056
9.790000	-211.017111
9.800000	-189.235493
9.810000	-163.328231
9.820000	-140.326921
9.830000	-114.667552
9.840000	-80.480203
9.850000	-43.100241
9.860000	-7.361261
9.870000	10.707270
9.880000	-2.297383
9.890000	-53.864485
9.900000	-128.231713
9.910000	-201.141539
9.920000	-256.918140
9.930000	-307.890598
9.940000	-348.951656
9.950000	-379.714159
9.960000	-397.039041
9.970000	-402.612286
9.980000	-404.872840
9.990000	-398.533796
10.000000	-390.467664
10.010000	-388.853066
10.020000	-397.778635
10.030000	-417.555882
10.040000	-433.776300
10.050000	-445.355618
10.060000	-452.504377
10.070000	-456.551812
10.080000	-456.953887
10.090000	-453.141037
10.100000	-444.797048
10.110000	-433.795750
10.120000	-424.372684
10.130000	-410.147138
10.140000	-395.035611
10.150000	-376.874008
10.160000	-363.785480
10.170000	-351.291455
10.180000	-334.592823
10.190000	-312.443514
10.200000	-290.477077
10.210000	-264.961022
10.220000	-243.115744
10.230000	-221.841003
10.240000	-202.490620
10.250000	-181.765333
10.260000	-161.937744
10.270000	-141.736691
10.280000	-111.418176
10.290000	-85.163488
10.300000	-59.907444
10.310000	-49.359042
10.320000	-66.784662
10.330000	-124.607924
10.340000	-204.633237
10.350000	-277.213955
10.360000	-334.597020
10.370000	-378.567736
10.380000	-403.929653
10.390000	-416.339156
10.400000	-423.655972
10.410000	-428.149322
10.420000	-424.080863
10.430000	-401.000240
10.440000	-383.655917
10.450000	-378.855158
10.460000	-389.606937
10.470000	-398.373159
10.480000	-400.646378
10.490000	-410.327465
10.500000	-413.327801
10.510000	-413.716942
10.520000	-403.695029
10.530000	-394.877921
10.540000	-382.067351
10.550000	-364.101027
10.560000	-339.823831
10.570000	-308.709758
10.580000	-273.974242
10.590000	-234.022021
10.600000	-197.536048
10.610000	-160.682824
10.620000	-123.156881
10.630000	-83.054992
10.640000	-42.838535
10.650000	-3.471628
10.660000	39.780468
10.670000	80.031741
10.680000	118.039306
10.690000	149.139317
10.700000	180.616977
10.710000	217.527033
10.720000	257.794916
10.730000	299.201116
10.740000	330.568600
10.750000	343.503436
10.760000	312.248767
10.770000	259.225829
10.780000	194.850615
10.790000	142.939921
10.800000	93.314220
10.810000	56.332456
10.820000	48.082494
10.830000	44.904992
10.840000	45.869264
10.850000	42.412870
10.860000	53.020190
10.870000	57.772039
10.880000	49.830715
10.890000	34.120749
10.900000	15.264543
10.910000	0.099909
10.920000	-24.732505
10.930000	-45.889428
10.940000	-66.817274
10.950000	-72.201947
10.960000	-70.007119
10.970000	-60.868583
10.980000	-53.259168
10.990000	-46.550667
11.000000	-31.193592
11.010000	-16.992552
11.020000	2.543666
11.030000	18.817946
11.040000	36.277476
11.050000	53.907735
11.060000	70.638996
11.070000	93.314019
11.080000	119.937904
11.090000	147.011400
11.100000	173.539150
11.110000	197.000283
11.120000	224.462656
11.130000	257.269598
11.140000	285.317773
11.150000	305.187212
11.160000	316.812271
11.170000	308.369592
11.180000	266.600108
11.190000	197.903468
11.200000	126.066754
11.210000	67.715611
11.220000	10.418411
11.230000	-37.115814
11.240000	-69.941687
11.250000	-83.649915
11.260000	-89.713062
11.270000	-94.871794
11.280000	-87.133545
11.290000	-74.849894
11.300000	-64.916823
11.310000	-72.216505
11.320000	-85.996053
11.330000	-100.630008
11.340000	-109.438310
11.350000	-114.098838
11.360000	-115.243178
11.370000	-115.605375
11.380000	-110.726669
11.390000	-97.146142
11.400000	-75.251998
11.410000	-49.729756
11.420000	-26.478148
11.430000	-1.650534
11.440000	28.264409
11.450000	55.701450
11.460000	76.653481
11.470000	92.371509
11.480000	107.689584
11.490000	119.657603
11.500000	133.385462
11.510000	148.566679
11.520000	164.384686
11.530000	175.100537
11.540000	186.721358
11.550000	208.949951
11.560000	236.656248
11.570000	259.089768
11.580000	274.254572
11.590000	270.175110
11.600000	226.135370
11.610000	151.984427
11.620000	63.338908
11.630000	-4.511783
11.640000	-61.608074
11.650000	-107.003630
11.660000	-134.232168
11.670000	-150.558591
11.680000	-154.524162
11.690000	-158.509882
11.700000	-163.141981
11.710000	-161.130665
11.720000	-158.821605
11.730000	-163.778938
11.740000	-179.514030
11.750000	-199.757397
11.760000	-214.887418
11.770000	-230.801769
11.780000	-240.247756
11.790000	-247.567504
11.800000	-245.264877
11.810000	-236.050349
11.820000	-218.626510
11.830000	-201.248058
11.840000	-184.990161
11.850000	-165.786488
11.860000	-141.045810
11.870000	-112.357451
11.880000	-85.801280
11.890000	-59.259822
11.900000	-31.914006
11.910000	-1.177462
11.920000	29.603750
11.930000	59.224453
11.940000	91.449064
11.950000	120.246941
11.960000	148.967851
11.970000	186.599521
11.980000	226.425009
11.990000	265.276920
12.000000	291.173256
12.010000	291.267470
12.020000	258.252470
12.030000	199.948880
12.040000	134.676721
12.050000	86.629511
12.060000	49.333383
12.070000	32.003427
12.080000	30.269813
12.090000	37.020442
12.100000	48.867322
12.110000	59.346743
12.120000	76.489258
12.130000	95.622992
12.140000	107.751034
12.150000	113.243570
12.160000	112.665496
12.170000	105.847833
12.180000	98.916495
12.190000	97.770934
12.200000	105.813643
12.210000	119.327702
12.220000	133.360831
12.230000	149.221977
12.240000	162.546289
12.250000	180.134316
12.260000	206.379408
12.270000	234.002408
12.280000	256.201858
12.290000	266.192101
12.300000	274.059076
12.310000	286.360736
12.320000	295.867256
12.330000	299.864135
12.340000	298.673002
12.350000	295.698759
12.360000	296.139958
12.370000	295.830803
12.380000	296.947662
12.390000	303.290826
12.400000	301.699152
12.410000	265.704856
12.420000	186.155604
12.430000	92.549293
12.440000	18.280521
12.450000	-28.016334
12.460000	-55.986648
12.470000	-72.582935
12.480000	-80.583882
12.490000	-86.501139
12.500000	-86.493852
12.510000	-77.428947
12.520000	-64.433993
12.530000	-49.689295
12.540000	-47.414321
12.550000	-50.230597
12.560000	-60.762216
12.570000	-74.759600
12.580000	-81.766129
12.590000	-81.990781
12.600000	-80.455963
12.610000	-78.551170
12.620000	-73.807537
12.630000	-64.786540
12.640000	-54.844247
12.650000	-44.352164
12.660000	-30.209686
12.670000	-16.943483
12.680000	-0.222024
12.690000	20.784537
12.700000	43.084285
12.710000	65.847826
12.720000	95.072191
12.730000	117.521324
12.740000	134.429727
12.750000	152.540019
12.760000	175.107939
12.770000	197.199991
12.780000	208.769391
12.790000	197.517911
12.800000	154.103273
12.810000	83.539752
12.820000	9.152113
12.830000	-52.124447
12.840000	-103.188502
12.850000	-140.438931
12.860000	-169.221654
12.870000	-193.082925
12.880000	-207.567101
12.890000	-215.748363
12.900000	-209.214918
12.910000	-207.825182
12.920000	-216.154312
12.930000	-233.554358
12.940000	-251.404993
12.950000	-261.952245
12.960000	-278.045072
12.970000	-290.956828
12.980000	-297.700011
12.990000	-298.636180
13.000000	-295.022787
13.010000	-290.988598
13.020000	-285.329230
13.030000	-278.677511
13.040000	-265.616972
13.050000	-248.050904
13.060000	-233.250295
13.070000	-221.736390
13.080000	-202.515747
13.090000	-179.459582
13.100000	-157.113052
13.110000	-145.861939
13.120000	-133.979198
13.130000	-122.294811
13.140000	-108.499199
13.150000	-84.039464
13.160000	-61.405708
13.170000	-42.082383
13.180000	-45.021802
13.190000	-76.084066
13.200000	-140.631032
13.210000	-224.025104
13.220000	-307.222223
13.230000	-377.644412
13.240000	-441.525370
13.250000	-495.230011
13.260000	-543.845643
13.270000	-584.453227
13.280000	-613.490191
13.290000	-634.354700
13.300000	-640.098554
13.310000	-647.981318
13.320000	-662.664057
13.330000	-691.941367
13.340000	-725.838659
13.350000	-753.222544
13.360000	-777.376906
13.370000	-795.811641
13.380000	-814.261248
13.390000	-836.050682
13.400000	-860.457419
13.410000	-872.573419
13.420000	-868.004833
13.430000	-856.791198
13.440000	-848.539489
13.450000	-842.969944
13.460000	-833.043385
13.470000	-819.825102
13.480000	-808.211634
13.490000	-799.323388
13.500000	-791.692603
13.510000	-783.139207
13.520000	-765.476219
13.530000	-746.317218
13.540000	-721.880309
13.550000	-697.170776
13.560000	-670.583959
13.570000	-640.341203
13.580000	-612.626453
13.590000	-601.182320
13.600000	-630.681849
13.610000	-689.238853
13.620000	-754.691128
13.630000	-803.941197
13.640000	-847.774785
13.650000	-884.590432
13.660000	-913.173344
13.670000	-928.877003
13.680000	-933.569472
13.690000	-935.493667
13.700000	-931.245767
13.710000	-919.093311
13.720000	-905.923684
13.730000	-896.330822
13.740000	-897.586003
13.750000	-904.176476
13.760000	-909.220687
13.770000	-912.349006
13.780000	-909.487045
13.790000	-908.529110
13.800000	-902.687291
13.810000	-892.369367
13.820000	-871.509649
13.830000	-847.887037
13.840000	-828.635782
13.850000	-816.698226
13.860000	-805.373275
13.870000	-786.810246
13.880000	-765.447980
13.890000	-743.552554
13.900000	-719.481000
13.910000	-687.585703
13.920000	-646.827968
13.930000	-598.592913
13.940000	-545.812698
13.950000	-501.928604
13.960000	-462.046119
13.970000	-425.908850
13.980000	-389.233057
13.990000	-355.875458
14.000000	-344.089628
14.010000	-376.817788
14.020000	-449.499591
14.030000	-534.324605
14.040000	-594.846927
14.050000	-637.576571
14.060000	-666.480519
14.070000	-691.805094
14.080000	-688.977186
14.090000	-668.755429
14.100000	-624.048991
14.110000	-585.098514
14.120000	-517.232106
14.130000	-442.887431
14.140000	-309.163316
14.150000	-35.554923
14.160000	461.699057
14.170000	1569.622149
14.180000	2806.054882
14.190000	3077.410372
14.200000	2907.431139
14.210000	2460.998480
14.220000	2148.131284
14.230000	2095.234456
14.240000	2204.134664
14.250000	2252.289920
14.260000	2134.512475
14.270000	1921.213633
14.280000	1673.918998
14.290000	1546.444429
14.300000	1555.001653
14.310000	1716.398062
14.320000	1985.970460
14.330000	2287.654207
14.340000	2599.477025
14.350000	2883.255433
14.360000	3163.880169
14.370000	3442.515219
14.380000	3746.078143
14.390000	3998.215810
14.400000	4155.090195
14.410000	4246.510421
14.420000	4264.390187
14.430000	4216.240148
14.440000	4077.661710
14.450000	3916.616254
14.460000	3769.907203
14.470000	3615.223029
14.480000	3466.645813
14.490000	3294.436039
14.500000	3164.039196
14.510000	3056.142988
14.520000	2951.492841
14.530000	2803.167403
14.540000	2673.974653
14.550000	2630.595890
14.560000	2639.240576
14.570000	2700.512186
14.580000	2789.830602
14.590000	2876.471458
14.600000	2860.958208
14.610000	2737.414101
14.620000	2551.954769
14.630000	2339.050756
14.640000	2121.311242
14.650000	1916.065210
14.660000	1755.099522
14.670000	1613.315303
14.680000	1497.700916
14.690000	1406.933981
14.700000	1347.715508
14.710000	1282.822921
14.720000	1206.540601
14.730000	1145.190208
14.740000	1113.056037
14.750000	1079.824783
14.760000	1038.357935
14.770000	1003.241531
14.780000	978.686863
14.790000	961.693675
14.800000	943.722120
14.810000	927.899076
14.820000	876.699933
14.830000	790.930282
14.840000	687.776248
14.850000	610.085127
14.860000	543.080427
14.870000	485.329054
14.880000	425.743487
14.890000	361.647777
14.900000	304.830928
14.910000	258.995230
14.920000	226.632272
14.930000	191.340973
14.940000	143.502038
14.950000	84.767083
14.960000	27.450115
14.970000	-18.431141
14.980000	-54.585764
14.990000	-92.942904
15.000000	-124.850974
15.010000	-150.431675
15.020000	-163.385177
15.030000	-174.922222
15.040000	-185.844858
15.050000	-200.376617
15.060000	-213.567512
15.070000	-218.781598
15.080000	-220.944181
15.090000	-223.805994
15.100000	-231.611895
15.110000	-240.097080
15.120000	-244.568870
15.130000	-246.362199
15.140000	-240.132014
15.150000	-235.961245
15.160000	-232.622683
15.170000	-224.841464
15.180000	-215.762466
15.190000	-200.994003
15.200000	-196.250857
15.210000	-211.758544
15.220000	-271.738461
15.230000	-358.368742
15.240000	-451.514535
15.250000	-533.614521
15.260000	-611.319308
15.270000	-679.791296
15.280000	-738.766206
15.290000	-787.931178
15.300000	-832.191015
15.310000	-868.680302
15.320000	-891.906187
15.330000	-914.777872
15.340000	-938.554252
15.350000	-972.863635
15.360000	-1002.098517
15.370000	-1027.962759
15.380000	-1053.612884
15.390000	-1077.682530
15.400000	-1100.431737
15.410000	-1119.695938
15.420000	-1132.214814
15.430000	-1138.353468
15.440000	-1138.966991
15.450000	-1146.677988
15.460000	-1156.973684
15.470000	-1179.008529
15.480000	-1208.579065
15.490000	-1245.987041
15.500000	-1280.790750
15.510000	-1304.272973
15.520000	-1311.649454
15.530000	-1306.886012
15.540000	-1296.150795
15.550000	-1287.474262
15.560000	-1279.931134
15.570000	-1273.702638
15.580000	-1269.015502
15.590000	-1261.890174
15.600000	-1256.091989
15.610000	-1248.362725
15.620000	-1244.832018
15.630000	-1264.842769
15.640000	-1319.855033
15.650000	-1396.559515
15.660000	-1470.485546
15.670000	-1524.601590
15.680000	-1561.140603
15.690000	-1582.616130
15.700000	-1598.453056
15.710000	-1610.247622
15.720000	-1615.058197
15.730000	-1613.193215
15.740000	-1599.954774
15.750000	-1586.487509
15.760000	-1574.463848
15.770000	-1568.428185
15.780000	-1558.237715
15.790000	-1538.353267
15.800000	-1520.029422
15.810000	-1505.558724
15.820000	-1493.448989
15.830000	-1471.372600
15.840000	-1436.198577
15.850000	-1395.854850
15.860000	-1356.581423
15.870000	-1319.627840
15.880000	-1275.572619
15.890000	-1223.060514
15.900000	-1178.249307
15.910000	-1138.746148
15.920000	-1106.240964
15.930000	-1063.015403
15.940000	-1011.591640
15.950000	-956.927934
15.960000	-899.232338
15.970000	-847.835066
15.980000	-796.131957
15.990000	-746.736668
16.000000	-699.325789
16.010000	-653.272842
16.020000	-613.837645
16.030000	-571.737376
16.040000	-523.667332
16.050000	-488.229932
16.060000	-493.156382
16.070000	-530.592137
16.080000	-576.234070
16.090000	-613.275174
16.100000	-645.334527
16.110000	-666.231046
16.120000	-665.054830
16.130000	-655.888140
16.140000	-636.696521
16.150000	-613.532837
16.160000	-582.275389
16.170000	-557.192895
16.180000	-546.803037
16.190000	-552.464255
16.200000	-565.266498
16.210000	-575.029187
16.220000	-591.414564
16.230000	-601.829473
16.240000	-615.919897
16.250000	-622.200940
16.260000	-633.454126
16.270000	-637.465695
16.280000	-635.319840
16.290000	-638.386679
16.300000	-640.431528
16.310000	-631.925954
16.320000	-607.180770
16.330000	-577.806087
16.340000	-562.576031
16.350000	-543.878954
16.360000	-533.009680
16.370000	-522.191421
16.380000	-524.793039
16.390000	-513.349682
16.400000	-489.948488
16.410000	-435.741005
16.420000	-352.116390
16.430000	-222.372475
16.440000	-52.302211
16.450000	216.884339
16.460000	653.658340
16.470000	1479.725864
16.480000	3000.814894
16.490000	3466.197803
16.500000	3499.335672
16.510000	3062.461802
16.520000	2738.506797
16.530000	2568.742292
16.540000	2591.742551
16.550000	2547.162645
16.560000	2378.920449
16.570000	2087.452915
16.580000	1749.355751
16.590000	1410.707792
16.600000	1206.751223
16.610000	1206.161957
16.620000	1434.076057
16.630000	1773.608487
16.640000	2057.979770
16.650000	2269.179679
16.660000	2385.589756
16.670000	2535.545695
16.680000	2661.071086
16.690000	2796.214282
16.700000	2879.005249
16.710000	2946.203980
16.720000	2998.891394
16.730000	3012.840831
16.740000	2957.476765
16.750000	2862.025242
16.760000	2765.806467
16.770000	2724.638185
16.780000	2700.929429
16.790000	2639.920361
16.800000	2569.328536
16.810000	2481.488179
16.820000	2369.111364
16.830000	2267.889904
16.840000	2223.971934
16.850000	2228.857036
16.860000	2234.773276
16.870000	2249.692357
16.880000	2306.691763
16.890000	2315.904616
16.900000	2248.826477
16.910000	2149.363174
16.920000	2081.396523
16.930000	2027.311394
16.940000	1948.956686
16.950000	1833.375006
16.960000	1711.349508
16.970000	1588.749029
16.980000	1447.722326
16.990000	1295.904489
17.000000	1147.825135
17.010000	1019.775453
17.020000	881.510395
17.030000	738.119991
17.040000	592.231670
17.050000	457.203029
17.060000	346.662292
17.070000	254.606993
17.080000	178.142531
17.090000	111.376706
17.100000	57.354197
17.110000	28.879673
17.120000	10.193421
17.130000	-22.266548
17.140000	-71.204929
17.150000	-108.623738
17.160000	-105.897289
17.170000	-86.754226
17.180000	-88.590457
17.190000	-101.050599
17.200000	-100.878999
17.210000	-99.072288
17.220000	-141.896082
17.230000	-239.961487
17.240000	-363.768867
17.250000	-473.789438
17.260000	-576.066880
17.270000	-671.570606
17.280000	-758.992883
17.290000	-834.312317
17.300000	-895.893852
17.310000	-955.392689
17.320000	-991.005488
17.330000	-1016.874751
17.340000	-1040.736219
17.350000	-1084.365789
17.360000	-1132.335561
17.370000	-1168.492673
17.380000	-1193.953875
17.390000	-1215.273057
17.400000	-1240.548686
17.410000	-1259.976874
17.420000	-1274.144979
17.430000	-1280.645738
17.440000	-1288.078433
17.450000	-1287.573871
17.460000	-1276.336122
17.470000	-1255.821537
17.480000	-1242.610162
17.490000	-1231.651558
17.500000	-1216.522472
17.510000	-1187.448014
17.520000	-1162.152881
17.530000	-1142.844675
17.540000	-1127.080251
17.550000	-1113.888686
17.560000	-1098.975364
17.570000	-1095.624742
17.580000	-1112.836022
17.590000	-1171.370629
17.600000	-1245.546848
17.610000	-1315.109344
17.620000	-1361.908237
17.630000	-1407.268107
17.640000	-1445.173002
17.650000	-1468.067943
17.660000	-1471.424869
17.670000	-1463.214378
17.680000	-1459.344279
17.690000	-1449.267355
17.700000	-1443.634567
17.710000	-1430.571231
17.720000	-1418.627156
17.730000	-1401.480557
17.740000	-1377.946900
17.750000	-1348.708130
17.760000	-1312.240439
17.770000	-1278.948377
17.780000	-1247.481654
17.790000	-1203.800440
17.800000	-1150.080776
17.810000	-1097.657719
17.820000	-1057.993659
17.830000	-1020.100091
17.840000	-978.234377
17.850000	-923.179678
17.860000	-861.498516
17.870000	-794.558397
17.880000	-722.071487
17.890000	-651.271126
17.900000	-582.605812
17.910000	-516.630768
17.920000	-441.753352
17.930000	-373.712014
17.940000	-308.493131
17.950000	-235.421403
17.960000	-162.597537
17.970000	-114.488747
17.980000	-85.933512
17.990000	-57.496446
18.000000	-30.639719
18.010000	-16.844439
18.020000	-4.929735
18.030000	23.180512
18.040000	65.078049
18.050000	118.560148
18.060000	193.138856
18.070000	284.255374
18.080000	366.830929
18.090000	418.311885
18.100000	441.614025
18.110000	452.758846
18.120000	459.729547
18.130000	464.878222
18.140000	473.875441
18.150000	488.675358
18.160000	507.365387
18.170000	527.158130
18.180000	539.527641
18.190000	541.009569
18.200000	533.392448
18.210000	528.242677
18.220000	528.922886
18.230000	530.140192
18.240000	534.496534
18.250000	532.693222
18.260000	534.811616
18.270000	541.241173
18.280000	537.106312
18.290000	522.184237
18.300000	495.420250
18.310000	462.500666
18.320000	407.696872
18.330000	308.486586
18.340000	195.474207
18.350000	90.469792
18.360000	18.615443
18.370000	-25.275578
18.380000	-55.580533
18.390000	-75.635954
18.400000	-92.766151
18.410000	-96.258840
18.420000	-82.616995
18.430000	-64.237480
18.440000	-65.145234
18.450000	-78.777593
18.460000	-96.647028
18.470000	-97.929352
18.480000	-98.227759
18.490000	-97.684221
18.500000	-91.774604
18.510000	-85.109800
18.520000	-67.593361
18.530000	-45.559499
18.540000	-18.037734
18.550000	7.321426
18.560000	29.222965
18.570000	52.239397
18.580000	74.821095
18.590000	99.857119
18.600000	125.426889
18.610000	155.846157
18.620000	187.030444
18.630000	207.502370
18.640000	217.687482
18.650000	230.881364
18.660000	237.636130
18.670000	209.896635
18.680000	154.701855
18.690000	100.992723
18.700000	70.769146
18.710000	44.996706
18.720000	17.559154
18.730000	-1.601335
18.740000	-9.649856
18.750000	-4.514333
18.760000	4.797810
18.770000	19.955733
18.780000	35.914075
18.790000	41.429116
18.800000	37.083131
18.810000	26.932317
18.820000	19.952608
18.830000	12.755100
18.840000	4.181722
18.850000	1.287250
18.860000	4.078255
18.870000	12.505991
18.880000	19.642601
18.890000	26.098779
18.900000	30.554954
18.910000	33.382819
18.920000	31.811917
18.930000	32.713212
18.940000	40.415067
18.950000	61.736916
18.960000	83.984389
18.970000	108.819785
18.980000	132.892975
18.990000	152.254001
19.000000	167.834593
19.010000	174.023166
19.020000	157.441093
19.030000	101.135354
19.040000	25.502978
19.050000	-49.066384
19.060000	-105.758906
19.070000	-160.004005
19.080000	-210.288288
19.090000	-260.269903
19.100000	-298.757666
19.110000	-322.872785
19.120000	-336.225723
19.130000	-351.147177
19.140000	-382.013659
19.150000	-422.010991
19.160000	-465.786596
19.170000	-502.507432
19.180000	-536.916685
19.190000	-568.971787
19.200000	-599.697449
19.210000	-617.716505
19.220000	-625.163092
19.230000	-621.769069
19.240000	-617.304086
19.250000	-613.447192
19.260000	-605.742673
19.270000	-595.455463
19.280000	-582.491954
19.290000	-567.446699
19.300000	-546.543619
19.310000	-523.439384
19.320000	-502.244205
19.330000	-482.400225
19.340000	-465.932831
19.350000	-443.978735
19.360000	-413.952904
19.370000	-378.218331
19.380000	-345.972531
19.390000	-319.085202
19.400000	-307.327882
19.410000	-338.315049
19.420000	-394.205633
19.430000	-457.860683
19.440000	-498.359332
19.450000	-535.526100
19.460000	-573.450155
19.470000	-609.486630
19.480000	-635.840373
19.490000	-647.100510
19.500000	-646.567907
19.510000	-635.020769
19.520000	-636.004531
19.530000	-645.846071
19.540000	-662.090876
19.550000	-669.950442
19.560000	-671.870734
19.570000	-675.715765
19.580000	-680.271620
19.590000	-688.137410
19.600000	-691.623312
19.610000	-688.553140
19.620000	-676.954379
19.630000	-667.315114
19.640000	-654.554569
19.650000	-639.404798
19.660000	-621.463245
19.670000	-602.478511
19.680000	-577.665278
19.690000	-552.224134
19.700000	-528.169550
19.710000	-509.953946
19.720000	-496.970588
19.730000	-481.641771
19.740000	-464.437383
19.750000	-443.299464
19.760000	-427.244560
19.770000	-401.535032
19.780000	-372.084725
19.790000	-337.058731
19.800000	-311.948369
19.810000	-311.890490
19.820000	-348.444360
19.830000	-401.276630
19.840000	-445.235563
19.850000	-475.025552
19.860000	-513.411879
19.870000	-548.319955
19.880000	-572.910204
19.890000	-581.591872
19.900000	-585.428140
19.910000	-593.498660
19.920000	-588.847999
19.930000	-583.123880
19.940000	-575.874266
19.950000	-587.111382
19.960000	-607.124736
19.970000	-617.714499
19.980000	-618.730135
19.990000	-619.983418
20.000000	-625.959092
20.010000	-628.188026
20.020000	-619.161695
20.030000	-599.051138
20.040000	-579.031666
20.050000	-559.521579
20.060000	-537.863122
20.070000	-511.628974
20.080000	-476.993443
20.090000	-447.753859
20.100000	-426.729077
20.110000	-406.151511
20.120000	-379.770426
20.130000	-344.860096
20.140000	-319.168961
20.150000	-292.124881
20.160000	-268.576866
20.170000	-238.983517
20.180000	-209.661395
20.190000	-180.791394
20.200000	-153.046390
20.210000	-126.563269
20.220000	-115.434873
20.230000	-143.994780
20.240000	-199.352312
20.250000	-264.713116
20.260000	-312.203217
20.270000	-356.511933
20.280000	-381.265395
20.290000	-394.340292
20.300000	-394.264510
20.310000	-390.160037
20.320000	-385.209269
20.330000	-370.240812
20.340000	-359.513009
20.350000	-360.931766
20.360000	-376.761876
20.370000	-393.205551
20.380000	-402.654348
20.390000	-414.819834
20.400000	-428.476026
20.410000	-433.702466
20.420000	-427.943142
20.430000	-411.885530
20.440000	-396.396046
20.450000	-384.337415
20.460000	-377.135446
20.470000	-361.037689
20.480000	-340.548030
20.490000	-320.695409
20.500000	-300.900844
20.510000	-275.962358
20.520000	-245.555269
20.530000	-217.539622
20.540000	-190.805848
20.550000	-164.738654
20.560000	-142.687342
20.570000	-122.208082
20.580000	-97.512239
20.590000	-68.311487
20.600000	-33.286120
20.610000	-3.065809
20.620000	-1.380357
20.630000	-40.405717
20.640000	-98.331514
20.650000	-148.682691
20.660000	-185.956427
20.670000	-223.293303
20.680000	-251.134371
20.690000	-260.186296
20.700000	-249.616812
20.710000	-235.740582
20.720000	-219.337053
20.730000	-203.581520
20.740000	-193.007364
20.750000	-193.037507
20.760000	-201.602635
20.770000	-203.736541
20.780000	-213.555850
20.790000	-225.659629
20.800000	-238.797719
20.810000	-236.818636
20.820000	-228.718428
20.830000	-216.902233
20.840000	-206.923398
20.850000	-193.230532
20.860000	-170.737767
20.870000	-145.196299
20.880000	-113.802593
20.890000	-86.470530
20.900000	-54.422531
20.910000	-25.730403
20.920000	-0.292295
20.930000	21.068662
20.940000	42.580380
20.950000	62.580536
20.960000	81.521604
20.970000	101.493401
20.980000	125.529000
20.990000	146.776451
21.000000	161.275424
21.010000	175.486294
21.020000	182.383397
21.030000	159.887128
21.040000	106.280050
21.050000	40.410950
21.060000	-21.430077
21.070000	-83.387359
21.080000	-150.408002
21.090000	-200.042268
21.100000	-233.047769
21.110000	-246.952661
21.120000	-260.676896
21.130000	-272.068700
21.140000	-274.556988
21.150000	-280.499413
21.160000	-294.010034
21.170000	-318.857683
21.180000	-345.688452
21.190000	-378.513650
21.200000	-421.628209
21.210000	-470.405240
21.220000	-507.793536
21.230000	-518.226835
21.240000	-493.571430
21.250000	-448.369087
21.260000	-396.605730
21.270000	-343.411166
21.280000	-292.894260
21.290000	-254.390850
21.300000	-223.735166
21.310000	-197.962834
21.320000	-175.167520
21.330000	-154.459026
21.340000	-135.522409
21.350000	-111.190221
21.360000	-94.853791
21.370000	-78.114465
21.380000	-69.149800
21.390000	-54.230506
21.400000	-31.730551
21.410000	5.083113
21.420000	42.381658
21.430000	91.549217
21.440000	151.543438
21.450000	185.668229
21.460000	184.197260
21.470000	142.887402
21.480000	111.752333
21.490000	81.028419
21.500000	38.721103
21.510000	-15.712158
21.520000	-70.188037
21.530000	-99.662597
21.540000	-115.776264
21.550000	-131.193719
21.560000	-142.230328
21.570000	-154.995353
21.580000	-162.892643
21.590000	-179.093964
21.600000	-196.742166
21.610000	-213.446595
21.620000	-227.501521
21.630000	-237.373848
21.640000	-247.183413
21.650000	-248.506523
21.660000	-243.132758
21.670000	-228.198677
21.680000	-217.031689
21.690000	-199.731675
21.700000	-179.871785
21.710000	-159.497490
21.720000	-144.291737
21.730000	-132.813119
21.740000	-128.627675
21.750000	-129.681728
21.760000	-131.859210
21.770000	-123.430201
21.780000	-108.701747
21.790000	-97.426766
21.800000	-83.399766
21.810000	-63.330159
21.820000	-34.999061
21.830000	-6.827285
21.840000	19.188603
21.850000	55.485035
21.860000	85.734227
21.870000	82.871988
21.880000	39.438306
21.890000	-21.886508
21.900000	-72.736407
21.910000	-112.281220
21.920000	-147.826897
21.930000	-169.855998
21.940000	-182.848279
21.950000	-185.306316
21.960000	-179.437970
21.970000	-169.987906
21.980000	-151.556942
21.990000	-138.948296
22.000000	-127.177715
22.010000	-123.163696
22.020000	-127.670071
22.030000	-135.250024
22.040000	-142.054300
22.050000	-139.878041
22.060000	-132.357533
22.070000	-117.376236
22.080000	-89.202982
22.090000	-58.471015
22.100000	-36.601727
22.110000	-29.768673
22.120000	-26.167882
22.130000	-16.957414
22.140000	-1.305144
22.150000	19.633118
22.160000	39.996579
22.170000	61.363162
22.180000	79.401658
22.190000	97.568021
22.200000	111.238480
22.210000	124.584810
22.220000	148.548840
22.230000	173.333420
22.240000	208.033708
22.250000	238.808822
22.260000	264.343268
22.270000	257.336979
22.280000	230.219905
22.290000	199.334335
22.300000	175.874684
22.310000	157.754656
22.320000	142.989679
22.330000	136.654796
22.340000	129.526320
22.350000	121.374379
22.360000	114.197646
22.370000	125.599208
22.380000	141.912630
22.390000	150.623896
22.400000	143.102125
22.410000	134.511605
22.420000	140.758475
22.430000	148.785063
22.440000	165.602393
22.450000	191.840592
22.460000	217.216415
22.470000	239.050898
22.480000	259.979403
22.490000	300.444960
22.500000	339.096254
22.510000	369.014457
22.520000	392.708601
22.530000	432.441615
22.540000	498.425053
22.550000	578.946226
22.560000	656.263077
22.570000	715.263319
22.580000	761.630600
22.590000	804.730022
22.600000	849.124880
22.610000	886.635447
22.620000	923.131909
22.630000	960.003155
22.640000	1006.635922
22.650000	1063.154194
22.660000	1122.930579
22.670000	1157.722126
22.680000	1145.719569
22.690000	1112.229859
22.700000	1075.633650
22.710000	1055.552159
22.720000	1021.555129
22.730000	985.469090
22.740000	956.615323
22.750000	950.883345
22.760000	954.072504
22.770000	932.724681
22.780000	884.428600
22.790000	815.403697
22.800000	762.683629
22.810000	747.186400
22.820000	822.175762
22.830000	1031.090692
22.840000	1434.931576
22.850000	2075.010525
22.860000	3121.889207
22.870000	4089.045157
22.880000	4586.624426
22.890000	4914.590044
22.900000	5052.391689
22.910000	5056.453576
22.920000	5040.132834
22.930000	5062.652740
22.940000	5119.516719
22.950000	5188.955620
22.960000	5346.987047
22.970000	5539.385317
22.980000	5617.683047
22.990000	5608.446882
23.000000	5575.298522
23.010000	5588.678080
23.020000	5598.065850
23.030000	5653.001314
23.040000	5757.525196
23.050000	5898.092968
23.060000	6016.344538
23.070000	6117.508686
23.080000	6175.226158
23.090000	6240.953424
23.100000	6316.452801
23.110000	6458.028990
23.120000	6644.614096
23.130000	6838.873139
23.140000	6996.569088
23.150000	7034.422059
23.160000	7005.710464
23.170000	6933.364875
23.180000	6886.789284
23.190000	6835.843265
23.200000	6715.246374
23.210000	6523.637758
23.220000	6293.602959
23.230000	6028.824803
23.240000	5647.194816
23.250000	5264.358158
23.260000	5054.415950
23.270000	5009.860292
23.280000	5078.647835
23.290000	5151.002386
23.300000	5239.680219
23.310000	5278.055801
23.320000	5206.860854
23.330000	5052.471151
23.340000	4844.174826
23.350000	4618.029027
23.360000	4381.198612
23.370000	4119.649720
23.380000	3826.026957
23.390000	3530.825736
23.400000	3277.340272
23.410000	3089.062279
23.420000	2914.226882
23.430000	2716.118538
23.440000	2493.989030
23.450000	2257.645558
23.460000	1986.440971
23.470000	1722.115686
23.480000	1499.978641
23.490000	1343.989664
23.500000	1219.789437
23.510000	1114.353815
23.520000	1012.022831
23.530000	907.173629
23.540000	822.761060
23.550000	744.315239
23.560000	687.672016
23.570000	617.738023
23.580000	551.144319
23.590000	472.490334
23.600000	403.133304
23.610000	345.270629
23.620000	297.190371
23.630000	249.774276
23.640000	204.685619
23.650000	170.035743
23.660000	146.899857
23.670000	128.010814
23.680000	100.500095
23.690000	72.108744
23.700000	42.475868
23.710000	24.639461
23.720000	16.470836
23.730000	22.581075
23.740000	27.802062
23.750000	27.941616
23.760000	18.185227
23.770000	7.725808
23.780000	11.968831
23.790000	15.139268
23.800000	24.194644
23.810000	35.568461
23.820000	31.089846
23.830000	-15.316358
23.840000	-103.236302
23.850000	-187.373810
23.860000	-256.286473
23.870000	-312.435627
23.880000	-367.663721
23.890000	-419.761962
23.900000	-470.690661
23.910000	-512.701667
23.920000	-546.048071
23.930000	-563.263787
23.940000	-578.777687
23.950000	-602.126323
23.960000	-634.466587
23.970000	-672.293463
23.980000	-709.467430
23.990000	-745.129386
24.000000	-777.120749
24.010000	-801.952793
24.020000	-821.113963
24.030000	-835.101453
24.040000	-840.760199
24.050000	-847.950655
24.060000	-847.353619
24.070000	-842.503417
24.080000	-833.607883
24.090000	-820.393223
24.100000	-808.551948
24.110000	-794.933864
24.120000	-782.857272
24.130000	-766.461151
24.140000	-744.856469
24.150000	-721.682782
24.160000	-702.210402
24.170000	-689.918095
24.180000	-671.538618
24.190000	-649.886191
24.200000	-631.901780
24.210000	-624.880534
24.220000	-629.941579
24.230000	-665.283707
24.240000	-734.972796
24.250000	-819.988686
24.260000	-890.674990
24.270000	-951.154937
24.280000	-1005.747846
24.290000	-1058.024215
24.300000	-1099.494283
24.310000	-1129.289410
24.320000	-1150.294286
24.330000	-1155.572490
24.340000	-1158.864200
24.350000	-1158.193778
24.360000	-1165.187758
24.370000	-1167.466991
24.380000	-1164.262628
24.390000	-1161.479514
24.400000	-1155.366842
24.410000	-1150.238260
24.420000	-1138.497287
24.430000	-1124.089178
24.440000	-1104.003956
24.450000	-1074.000222
24.460000	-1038.265458
24.470000	-1005.323025
24.480000	-982.926187
24.490000	-966.681964
24.500000	-952.659164
24.510000	-940.456385
24.520000	-934.145014
24.530000	-931.288316
24.540000	-926.700156
24.550000	-922.217832
24.560000	-920.002595
24.570000	-918.886050
24.580000	-915.381278
24.590000	-906.640063
24.600000	-891.182517
24.610000	-880.850880
24.620000	-867.015822
24.630000	-852.181976
24.640000	-850.973512
24.650000	-891.308744
24.660000	-962.251702
24.670000	-1032.809023
24.680000	-1086.332602
24.690000	-1132.479567
24.700000	-1175.498028
24.710000	-1207.550994
24.720000	-1233.467002
24.730000	-1236.667061
24.740000	-1235.971310
24.750000	-1220.474256
24.760000	-1217.688564
24.770000	-1223.637036
24.780000	-1239.530114
24.790000	-1261.898310
24.800000	-1278.794351
24.810000	-1304.679372
24.820000	-1322.754595
24.830000	-1337.635717
24.840000	-1338.122458
24.850000	-1336.442050
24.860000	-1327.563139
24.870000	-1312.051879
24.880000	-1291.796800
24.890000	-1264.774863
24.900000	-1237.846637
24.910000	-1203.250666
24.920000	-1156.031688
24.930000	-1102.552916
24.940000	-1052.689589
24.950000	-1021.667571
24.960000	-999.075953
24.970000	-978.259242
24.980000	-964.964233
24.990000	-966.657969
25.000000	-989.318561
25.010000	-1021.814307
25.020000	-1060.833432
25.030000	-1088.403899
25.040000	-1121.251572
25.050000	-1150.398637
25.060000	-1192.550430
25.070000	-1259.190304
25.080000	-1354.641983
25.090000	-1464.410390
25.100000	-1552.154712
25.110000	-1624.229983
25.120000	-1684.142912
25.130000	-1732.191770
25.140000	-1761.262795
25.150000	-1779.013859
25.160000	-1787.187175
25.170000	-1794.343088
25.180000	-1791.552923
25.190000	-1792.224049
25.200000	-1799.715761
25.210000	-1808.907364
25.220000	-1808.354489
25.230000	-1792.768447
25.240000	-1765.846349
25.250000	-1729.788115
25.260000	-1686.166753
25.270000	-1637.307673
25.280000	-1589.998115
25.290000	-1531.941055
25.300000	-1470.383590
25.310000	-1392.353519
25.320000	-1300.647832
25.330000	-1186.236453
25.340000	-1055.123810
25.350000	-918.972853
25.360000	-797.460530
25.370000	-692.834245
25.380000	-606.301386
25.390000	-529.510499
25.400000	-464.011337
25.410000	-404.343514
25.420000	-355.927968
25.430000	-320.677797
25.440000	-285.983052
25.450000	-261.920167
25.460000	-239.164729
25.470000	-231.406394
25.480000	-232.473266
25.490000	-254.458295
25.500000	-256.151673
25.510000	-230.454245
25.520000	-168.008332
25.530000	-130.162943
25.540000	-104.849311
25.550000	-102.119119
25.560000	-151.598196
25.570000	-234.463791
25.580000	-339.222861
25.590000	-419.569246
25.600000	-498.896111
25.610000	-582.817100
25.620000	-686.119867
25.630000	-786.489099
25.640000	-849.503831
25.650000	-842.693980
25.660000	-781.547768
25.670000	-699.811317
25.680000	-596.358957
25.690000	-490.515233
25.700000	-385.991718
25.710000	-312.823276
25.720000	-280.433732
25.730000	-262.900802
25.740000	-245.440269
25.750000	-217.190395
25.760000	-206.422944
25.770000	-199.902000
25.780000	-194.637134
25.790000	-184.809904
25.800000	-180.767146
25.810000	-185.235657
25.820000	-191.744695
25.830000	-201.890385
25.840000	-203.558758
25.850000	-193.778410
25.860000	-181.614750
25.870000	-168.856000
25.880000	-165.904634
25.890000	-192.169235
25.900000	-249.023239
25.910000	-324.992784
25.920000	-401.669070
25.930000	-468.384542
25.940000	-525.225390
25.950000	-557.283407
25.960000	-574.064388
25.970000	-588.073462
25.980000	-604.433389
25.990000	-621.395580
26.000000	-613.622523
26.010000	-587.690923
26.020000	-559.724093
26.030000	-551.889725
26.040000	-560.308283
26.050000	-556.910216
26.060000	-540.187520
26.070000	-513.500130
26.080000	-490.986372
26.090000	-464.586373
26.100000	-422.332405
26.110000	-375.962924
26.120000	-326.207342
26.130000	-267.882986
26.140000	-191.631165
26.150000	-118.447379
26.160000	-56.247294
26.170000	-4.885128
26.180000	49.946039
26.190000	112.419255
26.200000	183.566779
26.210000	255.802065
26.220000	318.614318
26.230000	367.301725
26.240000	416.816127
26.250000	483.906003
26.260000	553.028321
26.270000	617.633447
26.280000	662.314036
26.290000	695.857910
26.300000	710.317063
26.310000	697.176803
26.320000	654.099078
26.330000	597.308067
26.340000	557.013589
26.350000	554.174030
26.360000	571.916991
26.370000	587.449210
26.380000	599.638045
26.390000	602.468483
26.400000	605.492029
26.410000	599.525812
26.420000	589.807797
26.430000	574.652296
26.440000	551.207861
26.450000	537.255601
26.460000	527.631038
26.470000	516.275231
26.480000	498.810258
26.490000	478.065390
26.500000	473.785978
26.510000	477.527463
26.520000	482.514920
26.530000	483.742325
26.540000	480.335769
26.550000	479.058010
26.560000	473.867249
26.570000	471.821422
26.580000	476.466779
26.590000	487.317399
26.600000	507.820023
26.610000	531.528389
26.620000	557.262519
26.630000	580.470836
26.640000	587.419774
26.650000	575.516452
26.660000	533.959643
26.670000	483.051907
26.680000	423.516058
26.690000	357.661287
26.700000	296.832767
26.710000	249.998853
26.720000	229.559519
26.730000	218.990160
26.740000	217.729199
26.750000	218.026707
26.760000	223.661422
26.770000	224.421603
26.780000	217.008635
26.790000	205.899750
26.800000	197.756299
26.810000	190.079746
26.820000	175.216032
26.830000	159.690806
26.840000	148.395949
26.850000	151.707484
26.860000	161.915965
26.870000	173.118111
26.880000	181.830832
26.890000	188.259621
26.900000	203.829814
26.910000	224.410915
26.920000	252.899818
26.930000	275.567477
26.940000	297.738962
26.950000	320.428210
26.960000	346.632102
26.970000	381.676427
26.980000	409.179243
26.990000	413.305633
27.000000	378.104748
27.010000	330.430283
27.020000	283.703764
27.030000	251.598550
27.040000	223.946075
27.050000	223.565384
27.060000	242.477612
27.070000	280.927804
27.080000	334.368165
27.090000	403.676483
27.100000	494.308492
27.110000	592.074248
27.120000	675.263715
27.130000	734.206467
27.140000	773.625690
27.150000	810.070881
27.160000	829.602797
27.170000	841.029128
27.180000	848.263633
27.190000	849.334190
27.200000	814.209520
27.210000	772.163387
27.220000	768.894229
27.230000	855.700798
27.240000	974.303253
27.250000	1076.289704
27.260000	1110.728857
27.270000	1109.461884
27.280000	1078.772626
27.290000	916.690850
27.300000	734.421757
27.310000	556.701255
27.320000	488.977239
27.330000	419.465416
27.340000	347.186515
27.350000	279.601274
27.360000	203.018600
27.370000	122.134256
27.380000	52.225421
27.390000	3.330906
27.400000	-42.968818
27.410000	-81.732129
27.420000	-119.185197
27.430000	-147.415418
27.440000	-172.767439
27.450000	-187.387364
27.460000	-199.723059
27.470000	-210.333863
27.480000	-233.045619
27.490000	-251.528987
27.500000	-268.753577
27.510000	-272.014395
27.520000	-272.862434
27.530000	-271.136187
27.540000	-275.999729
27.550000	-276.205678
27.560000	-275.182028
27.570000	-277.617596
27.580000	-277.675312
27.590000	-289.425016
27.600000	-335.868216
27.610000	-423.195612
27.620000	-524.313307
27.630000	-604.957710
27.640000	-674.557183
27.650000	-739.390857
27.660000	-795.453422
27.670000	-842.181644
27.680000	-878.363637
27.690000	-905.329403
27.700000	-921.617068
27.710000	-940.536171
27.720000	-965.863638
27.730000	-1001.095700
27.740000	-1034.756824
27.750000	-1063.365788
27.760000	-1087.015957
27.770000	-1101.313867
27.780000	-1117.007836
27.790000	-1130.581433
27.800000	-1142.035542
27.810000	-1141.849838
27.820000	-1138.139493
27.830000	-1138.812962
27.840000	-1136.898666
27.850000	-1129.484122
27.860000	-1117.365704
27.870000	-1111.548449
27.880000	-1110.497536
27.890000	-1110.974770
27.900000	-1107.323494
27.910000	-1094.437459
27.920000	-1076.544026
27.930000	-1059.607932
27.940000	-1038.103411
27.950000	-1010.159584
27.960000	-984.731058
27.970000	-959.385873
27.980000	-953.792692
27.990000	-976.956862
28.000000	-1027.199665
28.010000	-1080.508551
28.020000	-1120.670786
28.030000	-1162.856504
28.040000	-1195.779983
28.050000	-1209.586458
28.060000	-1201.621017
28.070000	-1178.053359
28.080000	-1159.214296
28.090000	-1132.477058
28.100000	-1115.271407
28.110000	-1096.203491
28.120000	-1081.425890
28.130000	-1065.949106
28.140000	-1043.627581
28.150000	-1022.785439
28.160000	-988.483605
28.170000	-939.712169
28.180000	-875.392154
28.190000	-788.007834
28.200000	-656.985345
28.210000	-460.688311
28.220000	-200.697250
28.230000	89.153798
28.240000	361.831887
28.250000	579.965862
28.260000	736.386852
28.270000	846.114530
28.280000	919.871794
28.290000	943.803585
28.300000	943.071232
28.310000	920.036789
28.320000	907.627485
28.330000	938.207404
28.340000	993.984356
28.350000	1097.426385
28.360000	1205.097411
28.370000	1276.256030
28.380000	1266.469650
28.390000	1181.826475
28.400000	1116.685753
28.410000	1102.825827
28.420000	1107.992807
28.430000	1056.973366
28.440000	939.075935
28.450000	848.340093
28.460000	828.953013
28.470000	850.431937
28.480000	840.310975
28.490000	788.958540
28.500000	681.248674
28.510000	480.018755
28.520000	248.722833
28.530000	42.983537
28.540000	-110.624081
28.550000	-245.959666
28.560000	-360.614081
28.570000	-429.249966
28.580000	-475.482640
28.590000	-490.863674
28.600000	-486.817954
28.610000	-431.437898
28.620000	-346.046360
28.630000	-240.728838
28.640000	-158.112410
28.650000	-167.508686
28.660000	-233.640834
28.670000	-346.775674
28.680000	-456.475120
28.690000	-572.960942
28.700000	-670.964278
28.710000	-725.901114
28.720000	-744.626813
28.730000	-736.268551
28.740000	-706.033602
28.750000	-689.140762
28.760000	-706.824980
28.770000	-764.392868
28.780000	-854.004539
28.790000	-969.407596
28.800000	-1094.582834
28.810000	-1223.208482
28.820000	-1343.573139
28.830000	-1464.158926
28.840000	-1569.258375
28.850000	-1651.561069
28.860000	-1712.730820
28.870000	-1754.058664
28.880000	-1797.690926
28.890000	-1830.557140
28.900000	-1873.174771
28.910000	-1908.049907
28.920000	-1949.511909
28.930000	-1989.246886
28.940000	-2032.319363
28.950000	-2072.847863
28.960000	-2104.894537
28.970000	-2136.254900
28.980000	-2165.212379
28.990000	-2185.084198
29.000000	-2191.305699
29.010000	-2195.728658
29.020000	-2204.821372
29.030000	-2206.760404
29.040000	-2201.808137
29.050000	-2190.898918
29.060000	-2180.582260
29.070000	-2174.134041
29.080000	-2173.458531
29.090000	-2179.806922
29.100000	-2185.082305
29.110000	-2183.593198
29.120000	-2180.843878
29.130000	-2175.802153
29.140000	-2167.045247
29.150000	-2162.812069
29.160000	-2151.299536
29.170000	-2132.295316
29.180000	-2124.714704
29.190000	-2137.860673
29.200000	-2149.819466
29.210000	-2124.495888
29.220000	-2041.075134
29.230000	-1920.354446
29.240000	-1765.056982
29.250000	-1601.052488
29.260000	-1435.429901
29.270000	-1283.215051
29.280000	-1166.598611
29.290000	-884.003179
