Time(s)	GREEN_denoised_wiener
0.000000	212.010388
0.010000	266.569121
0.020000	199.015682
0.030000	237.789491
0.040000	315.142044
0.050000	447.906488
0.060000	571.709683
0.070000	723.967368
0.080000	803.561132
0.090000	801.612552
0.100000	733.811003
0.110000	648.010337
0.120000	561.975803
0.130000	446.944537
0.140000	316.587992
0.150000	185.879784
0.160000	77.218006
0.170000	-1.226654
0.180000	-59.203850
0.190000	-106.001181
0.200000	-173.691021
0.210000	-254.001010
0.220000	-321.132875
0.230000	-368.389494
0.240000	-411.639606
0.250000	-461.432972
0.260000	-511.102018
0.270000	-539.773768
0.280000	-566.343355
0.290000	-547.613749
0.300000	-504.430337
0.310000	-449.434296
0.320000	-354.742465
0.330000	-256.433650
0.340000	-138.247313
0.350000	-75.353940
0.360000	-12.062561
0.370000	62.265536
0.380000	112.660423
0.390000	112.905884
0.400000	55.431443
0.410000	-14.979824
0.420000	-76.530524
0.430000	-147.311617
0.440000	-189.675938
0.450000	-217.788926
0.460000	-218.081724
0.470000	-226.405188
0.480000	-248.742029
0.490000	-260.273406
0.500000	-261.809281
0.510000	-257.487318
0.520000	-279.623812
0.530000	-307.224689
0.540000	-329.469493
0.550000	-339.643201
0.560000	-353.713997
0.570000	-366.005441
0.580000	-369.290739
0.590000	-361.718926
0.600000	-339.532037
0.610000	-290.077756
0.620000	-232.864752
0.630000	-172.064185
0.640000	-114.541231
0.650000	-60.034044
0.660000	31.555394
0.670000	179.937156
0.680000	311.726747
0.690000	446.828362
0.700000	545.397808
0.710000	591.448934
0.720000	560.041470
0.730000	474.866959
0.740000	450.598922
0.750000	427.469783
0.760000	381.919746
0.770000	312.798090
0.780000	220.575632
0.790000	132.196385
0.800000	32.112087
0.810000	-95.742796
0.820000	-203.846198
0.830000	-307.189731
0.840000	-368.664105
0.850000	-398.770152
0.860000	-401.466763
0.870000	-359.962961
0.880000	-302.729776
0.890000	-219.050835
0.900000	-124.400741
0.910000	-51.187889
0.920000	10.374866
0.930000	59.643768
0.940000	98.822336
0.950000	135.821828
0.960000	161.219606
0.970000	205.440089
0.980000	244.130531
0.990000	285.812761
1.000000	307.619375
1.010000	303.228351
1.020000	265.436616
1.030000	208.032420
1.040000	122.523492
1.050000	68.019663
1.060000	32.078012
1.070000	8.688747
1.080000	17.366811
1.090000	17.857843
1.100000	39.176703
1.110000	1.391884
1.120000	-12.568590
1.130000	10.398322
1.140000	55.941556
1.150000	100.042384
1.160000	142.848921
1.170000	210.421794
1.180000	288.309192
1.190000	357.786976
1.200000	416.812785
1.210000	458.135352
1.220000	462.948801
1.230000	450.251709
1.240000	423.038331
1.250000	398.404252
1.260000	378.751608
1.270000	369.896923
1.280000	355.735403
1.290000	326.069855
1.300000	279.407112
1.310000	238.306159
1.320000	186.970755
1.330000	135.276886
1.340000	81.833997
1.350000	35.606561
1.360000	0.680978
1.370000	-12.382216
1.380000	-2.835263
1.390000	18.594514
1.400000	52.677059
1.410000	95.555484
1.420000	148.868051
1.430000	217.856556
1.440000	283.990583
1.450000	343.194120
1.460000	428.879496
1.470000	503.333039
1.480000	594.612383
1.490000	657.600925
1.500000	713.524046
1.510000	713.338989
1.520000	661.913560
1.530000	615.213782
1.540000	581.167450
1.550000	543.017022
1.560000	491.103675
1.570000	446.567611
1.580000	412.987675
1.590000	390.772082
1.600000	363.153670
1.610000	367.454190
1.620000	363.101374
1.630000	364.616505
1.640000	356.294851
1.650000	364.222291
1.660000	381.392693
1.670000	417.870111
1.680000	461.424344
1.690000	499.512004
1.700000	522.124444
1.710000	532.518370
1.720000	533.484518
1.730000	501.781034
1.740000	458.293466
1.750000	405.988698
1.760000	350.102729
1.770000	282.486881
1.780000	209.278375
1.790000	129.960464
1.800000	68.514842
1.810000	22.688718
1.820000	2.779030
1.830000	-14.682659
1.840000	-19.538126
1.850000	-24.457247
1.860000	-24.480850
1.870000	-30.950736
1.880000	-26.686175
1.890000	13.235957
1.900000	64.298150
1.910000	152.887763
1.920000	213.354844
1.930000	271.783204
1.940000	265.826863
1.950000	256.341753
1.960000	258.832232
1.970000	264.825544
1.980000	229.729342
1.990000	153.756524
2.000000	73.383360
2.010000	3.619030
2.020000	-51.001056
2.030000	-107.921991
2.040000	-132.251703
2.050000	-170.028762
2.060000	-196.317704
2.070000	-228.930052
2.080000	-248.291620
2.090000	-246.206675
2.100000	-234.665209
2.110000	-216.803362
2.120000	-198.056308
2.130000	-182.407404
2.140000	-163.096052
2.150000	-162.102012
2.160000	-180.089021
2.170000	-198.422196
2.180000	-212.465827
2.190000	-220.429052
2.200000	-236.565699
2.210000	-249.043395
2.220000	-271.080309
2.230000	-305.308063
2.240000	-353.939971
2.250000	-398.194732
2.260000	-430.844492
2.270000	-467.490690
2.280000	-505.712892
2.290000	-529.763542
2.300000	-540.975151
2.310000	-514.311032
2.320000	-465.362842
2.330000	-389.817805
2.340000	-282.094438
2.350000	-201.517004
2.360000	-118.262109
2.370000	-79.107620
2.380000	-0.753634
2.390000	84.302500
2.400000	157.779238
2.410000	220.082537
2.420000	247.564538
2.430000	272.334109
2.440000	259.484070
2.450000	242.090599
2.460000	230.993958
2.470000	221.789878
2.480000	198.456490
2.490000	159.179292
2.500000	116.609761
2.510000	71.186058
2.520000	26.422268
2.530000	-19.504489
2.540000	-67.445323
2.550000	-127.570177
2.560000	-203.310729
2.570000	-276.258980
2.580000	-332.538457
2.590000	-357.295082
2.600000	-348.150542
2.610000	-326.747354
2.620000	-301.409679
2.630000	-273.530990
2.640000	-246.691988
2.650000	-227.339760
2.660000	-219.652086
2.670000	-213.794159
2.680000	-195.283627
2.690000	-159.626958
2.700000	-106.945565
2.710000	-50.513692
2.720000	7.404841
2.730000	59.567917
2.740000	96.397428
2.750000	137.377860
2.760000	152.569359
2.770000	184.368149
2.780000	218.901659
2.790000	263.063635
2.800000	263.382898
2.810000	231.251919
2.820000	211.938396
2.830000	217.998147
2.840000	230.722386
2.850000	223.369911
2.860000	214.611935
2.870000	201.329224
2.880000	216.581483
2.890000	251.487203
2.900000	314.913535
2.910000	358.468232
2.920000	379.351019
2.930000	379.442217
2.940000	361.437398
2.950000	327.394325
2.960000	295.882219
2.970000	276.969393
2.980000	268.940864
2.990000	257.155023
3.000000	252.047661
3.010000	248.276467
3.020000	236.455709
3.030000	222.084353
3.040000	193.461947
3.050000	154.914889
3.060000	108.106034
3.070000	71.770681
3.080000	38.656976
3.090000	7.621343
3.100000	-15.795767
3.110000	-21.537771
3.120000	-4.952336
3.130000	31.928972
3.140000	79.514407
3.150000	110.323857
3.160000	135.063169
3.170000	155.671665
3.180000	162.891372
3.190000	193.790099
3.200000	219.180851
3.210000	274.729766
3.220000	325.920535
3.230000	357.699045
3.240000	352.295440
3.250000	298.996905
3.260000	258.174630
3.270000	219.074979
3.280000	180.388504
3.290000	127.090640
3.300000	71.652999
3.310000	18.392179
3.320000	-14.402678
3.330000	-23.706914
3.340000	-8.489362
3.350000	-2.928403
3.360000	-2.495583
3.370000	-3.511564
3.380000	2.485164
3.390000	10.842933
3.400000	25.128668
3.410000	47.500252
3.420000	70.719565
3.430000	83.118446
3.440000	73.952548
3.450000	49.422570
3.460000	2.120718
3.470000	-61.930684
3.480000	-139.078712
3.490000	-222.636857
3.500000	-299.288007
3.510000	-370.411632
3.520000	-438.194582
3.530000	-497.862505
3.540000	-556.161503
3.550000	-600.622791
3.560000	-640.550561
3.570000	-669.034356
3.580000	-695.680939
3.590000	-714.766573
3.600000	-726.858152
3.610000	-721.832447
3.620000	-716.806659
3.630000	-709.207502
3.640000	-667.037727
3.650000	-598.723737
3.660000	-496.253907
3.670000	-409.094869
3.680000	-349.732310
3.690000	-338.183911
3.700000	-343.768781
3.710000	-334.299554
3.720000	-339.339013
3.730000	-385.772088
3.740000	-463.505345
3.750000	-532.526861
3.760000	-596.489429
3.770000	-652.628575
3.780000	-695.497453
3.790000	-708.063176
3.800000	-723.675296
3.810000	-745.446230
3.820000	-768.529505
3.830000	-781.175268
3.840000	-789.464345
3.850000	-801.274274
3.860000	-811.060726
3.870000	-820.424676
3.880000	-833.362150
3.890000	-854.608931
3.900000	-881.675569
3.910000	-910.153099
3.920000	-926.997129
3.930000	-932.766490
3.940000	-935.370734
3.950000	-944.750640
3.960000	-953.729155
3.970000	-965.461645
3.980000	-981.448144
3.990000	-1010.892223
4.000000	-1041.807310
4.010000	-1072.716665
4.020000	-1088.493931
4.030000	-1093.960783
4.040000	-1083.182498
4.050000	-1069.288679
4.060000	-1039.832156
4.070000	-993.010399
4.080000	-909.130505
4.090000	-788.484740
4.100000	-683.603288
4.110000	-594.846644
4.120000	-560.878677
4.130000	-503.585090
4.140000	-453.482924
4.150000	-432.329845
4.160000	-438.051953
4.170000	-474.454185
4.180000	-499.859364
4.190000	-541.129939
4.200000	-566.535537
4.210000	-574.250709
4.220000	-571.265321
4.230000	-574.427804
4.240000	-580.636068
4.250000	-582.956644
4.260000	-593.086760
4.270000	-601.789929
4.280000	-609.926956
4.290000	-606.953489
4.300000	-599.174855
4.310000	-594.482648
4.320000	-593.430325
4.330000	-594.366624
4.340000	-589.362565
4.350000	-578.967704
4.360000	-568.000149
4.370000	-560.593655
4.380000	-556.318410
4.390000	-554.578818
4.400000	-554.328219
4.410000	-558.266844
4.420000	-566.356191
4.430000	-573.299221
4.440000	-578.087843
4.450000	-585.037891
4.460000	-585.475254
4.470000	-585.508360
4.480000	-587.877704
4.490000	-570.601640
4.500000	-531.357946
4.510000	-444.320575
4.520000	-342.690266
4.530000	-254.381354
4.540000	-221.751690
4.550000	-216.604186
4.560000	-183.761249
4.570000	-130.019206
4.580000	-94.213844
4.590000	-95.401334
4.600000	-113.580328
4.610000	-147.188332
4.620000	-178.255704
4.630000	-194.678456
4.640000	-188.295317
4.650000	-192.636223
4.660000	-206.258401
4.670000	-227.278695
4.680000	-243.879837
4.690000	-263.994103
4.700000	-271.119240
4.710000	-261.094871
4.720000	-239.737223
4.730000	-219.230689
4.740000	-212.708417
4.750000	-221.684913
4.760000	-243.351098
4.770000	-261.117692
4.780000	-274.052893
4.790000	-289.255008
4.800000	-288.366959
4.810000	-266.444386
4.820000	-237.414447
4.830000	-217.655118
4.840000	-214.117028
4.850000	-211.819629
4.860000	-206.863755
4.870000	-181.292265
4.880000	-150.047270
4.890000	-142.818190
4.900000	-161.834506
4.910000	-146.182852
4.920000	-50.008284
4.930000	58.126693
4.940000	147.577525
4.950000	238.230784
4.960000	345.139465
4.970000	438.869071
4.980000	506.068943
4.990000	607.701804
5.000000	758.863088
5.010000	869.904467
5.020000	953.930702
5.030000	1006.049243
5.040000	1047.729220
5.050000	1115.561001
5.060000	1225.129105
5.070000	1397.079325
5.080000	1487.403017
5.090000	1521.054906
5.100000	1581.163474
5.110000	1660.776744
5.120000	1678.379704
5.130000	1622.351338
5.140000	1574.847829
5.150000	1524.998286
5.160000	1436.574356
5.170000	1338.151450
5.180000	1240.246347
5.190000	1123.885507
5.200000	957.211662
5.210000	784.156579
5.220000	609.398156
5.230000	430.403637
5.240000	252.936687
5.250000	105.041263
5.260000	38.202429
5.270000	10.084150
5.280000	14.229781
5.290000	36.101356
5.300000	98.355924
5.310000	175.650142
5.320000	227.771427
5.330000	279.374071
5.340000	322.427589
5.350000	411.935003
5.360000	515.173460
5.370000	649.297024
5.380000	832.252380
5.390000	1013.134246
5.400000	1165.395944
5.410000	1216.509680
5.420000	1235.927390
5.430000	1247.424331
5.440000	1256.072209
5.450000	1229.233555
5.460000	1115.162750
5.470000	920.534821
5.480000	741.163078
5.490000	623.699396
5.500000	498.174795
5.510000	329.625170
5.520000	157.723254
5.530000	55.307134
5.540000	-41.438500
5.550000	-172.279717
5.560000	-265.295016
5.570000	-315.384938
5.580000	-328.850999
5.590000	-323.857542
5.600000	-295.344644
5.610000	-292.480514
5.620000	-361.498295
5.630000	-433.120939
5.640000	-490.798113
5.650000	-539.822675
5.660000	-589.443414
5.670000	-623.790002
5.680000	-634.443724
5.690000	-635.821213
5.700000	-579.606186
5.710000	-499.077602
5.720000	-432.115634
5.730000	-414.328707
5.740000	-470.596510
5.750000	-538.006181
5.760000	-621.932373
5.770000	-691.250769
5.780000	-700.897238
5.790000	-687.052379
5.800000	-647.423562
5.810000	-598.907071
5.820000	-571.987496
5.830000	-550.299947
5.840000	-605.459837
5.850000	-643.237313
5.860000	-653.162121
5.870000	-663.948752
5.880000	-679.462492
5.890000	-687.615929
5.900000	-682.445783
5.910000	-683.017825
5.920000	-694.055527
5.930000	-706.380584
5.940000	-701.638978
5.950000	-730.264373
5.960000	-770.021457
5.970000	-828.562052
5.980000	-871.954705
5.990000	-898.613389
6.000000	-924.935333
6.010000	-957.301701
6.020000	-993.222569
6.030000	-1026.978601
6.040000	-1067.881694
6.050000	-1115.960413
6.060000	-1152.151925
6.070000	-1170.307695
6.080000	-1174.780785
6.090000	-1160.291420
6.100000	-1139.120548
6.110000	-1121.264636
6.120000	-1122.805882
6.130000	-1123.132344
6.140000	-1121.206663
6.150000	-1118.334572
6.160000	-1117.606828
6.170000	-1113.173112
6.180000	-1104.014178
6.190000	-1063.601882
6.200000	-1012.544318
6.210000	-928.572574
6.220000	-831.850376
6.230000	-757.576950
6.240000	-699.367619
6.250000	-686.002979
6.260000	-652.619060
6.270000	-644.054710
6.280000	-653.051464
6.290000	-683.794909
6.300000	-731.783360
6.310000	-778.486242
6.320000	-821.548988
6.330000	-838.778692
6.340000	-833.707174
6.350000	-823.095674
6.360000	-833.881125
6.370000	-857.302038
6.380000	-885.043343
6.390000	-906.822979
6.400000	-918.542122
6.410000	-933.711458
6.420000	-930.930443
6.430000	-921.675247
6.440000	-906.272728
6.450000	-891.641298
6.460000	-883.261455
6.470000	-863.192972
6.480000	-849.665696
6.490000	-843.345459
6.500000	-850.734565
6.510000	-868.786520
6.520000	-878.072772
6.530000	-883.274327
6.540000	-887.720650
6.550000	-903.766489
6.560000	-925.296876
6.570000	-927.185015
6.580000	-924.628605
6.590000	-879.100224
6.600000	-831.823106
6.610000	-752.462107
6.620000	-660.797945
6.630000	-558.750429
6.640000	-469.138482
6.650000	-433.731895
6.660000	-387.158634
6.670000	-355.604843
6.680000	-323.704122
6.690000	-322.577722
6.700000	-316.370688
6.710000	-320.328767
6.720000	-331.290623
6.730000	-318.306858
6.740000	-284.607243
6.750000	-251.637228
6.760000	-262.284442
6.770000	-287.069960
6.780000	-322.333107
6.790000	-365.472255
6.800000	-406.995600
6.810000	-441.518009
6.820000	-462.954443
6.830000	-460.515203
6.840000	-441.259425
6.850000	-409.133717
6.860000	-398.610865
6.870000	-385.553281
6.880000	-362.636590
6.890000	-321.263529
6.900000	-271.674305
6.910000	-230.283723
6.920000	-190.273930
6.930000	-138.244290
6.940000	-58.826002
6.950000	43.449904
6.960000	173.691758
6.970000	323.818500
6.980000	486.923975
6.990000	635.509036
7.000000	806.378576
7.010000	953.685594
7.020000	1100.402488
7.030000	1234.480179
7.040000	1352.163978
7.050000	1426.259090
7.060000	1451.033694
7.070000	1489.944535
7.080000	1528.740366
7.090000	1535.632743
7.100000	1497.549908
7.110000	1440.814471
7.120000	1360.325644
7.130000	1284.808778
7.140000	1228.782530
7.150000	1217.887622
7.160000	1200.080519
7.170000	1157.448484
7.180000	1108.868294
7.190000	1073.733295
7.200000	1052.995062
7.210000	1040.054121
7.220000	1027.510156
7.230000	1020.801162
7.240000	1012.715215
7.250000	1011.315284
7.260000	1004.256426
7.270000	981.896102
7.280000	972.962697
7.290000	956.734497
7.300000	929.776896
7.310000	870.584085
7.320000	804.781744
7.330000	747.132069
7.340000	702.487972
7.350000	670.060176
7.360000	642.238103
7.370000	604.699502
7.380000	575.808006
7.390000	545.992440
7.400000	524.159331
7.410000	509.322545
7.420000	491.885006
7.430000	511.853885
7.440000	533.467893
7.450000	596.658755
7.460000	658.221722
7.470000	715.307393
7.480000	741.310208
7.490000	743.783394
7.500000	751.858470
7.510000	744.188224
7.520000	710.504926
7.530000	650.688976
7.540000	587.950458
7.550000	513.169542
7.560000	451.559171
7.570000	417.021529
7.580000	439.280761
7.590000	495.131158
7.600000	620.902481
7.610000	826.237692
7.620000	1057.086387
7.630000	1314.566460
7.640000	1588.643952
7.650000	1888.352122
7.660000	2185.504044
7.670000	2448.533479
7.680000	2730.000379
7.690000	2975.827328
7.700000	3190.730421
7.710000	3358.803593
7.720000	3477.904132
7.730000	3579.277551
7.740000	3633.651052
7.750000	3579.067917
7.760000	3313.026184
7.770000	2841.681462
7.780000	2183.150921
7.790000	1550.614307
7.800000	1066.365149
7.810000	708.452596
7.820000	425.451558
7.830000	303.986459
7.840000	405.449792
7.850000	649.537168
7.860000	869.616886
7.870000	856.042299
7.880000	754.833341
7.890000	617.359889
7.900000	563.309780
7.910000	604.119085
7.920000	693.700400
7.930000	873.189929
7.940000	1034.419598
7.950000	1176.293408
7.960000	1195.596768
7.970000	1160.271985
7.980000	1110.769982
7.990000	1048.882474
8.000000	992.725991
8.010000	934.158661
8.020000	918.566693
8.030000	845.438315
8.040000	753.527259
8.050000	655.383195
8.060000	592.638064
8.070000	565.618147
8.080000	541.728458
8.090000	543.407415
8.100000	551.440759
8.110000	559.300980
8.120000	551.531128
8.130000	519.281759
8.140000	478.424930
8.150000	445.332573
8.160000	405.636091
8.170000	374.532842
8.180000	343.516852
8.190000	313.827700
8.200000	272.091751
8.210000	218.560702
8.220000	190.836401
8.230000	170.874479
8.240000	157.360390
8.250000	137.222461
8.260000	121.349792
8.270000	100.247167
8.280000	89.473824
8.290000	91.969465
8.300000	106.986420
8.310000	177.878019
8.320000	257.649098
8.330000	349.321950
8.340000	378.162647
8.350000	402.528960
8.360000	432.942106
8.370000	468.769059
8.380000	474.021277
8.390000	431.791474
8.400000	368.281845
8.410000	299.181091
8.420000	272.025712
8.430000	248.396865
8.440000	261.026985
8.450000	242.733272
8.460000	231.043987
8.470000	205.972917
8.480000	180.211683
8.490000	160.256222
8.500000	133.721267
8.510000	119.686095
8.520000	114.561804
8.530000	120.858997
8.540000	131.100919
8.550000	135.751984
8.560000	135.727539
8.570000	140.727629
8.580000	139.020220
8.590000	124.777476
8.600000	98.721936
8.610000	68.904888
8.620000	48.160617
8.630000	39.060999
8.640000	37.637944
8.650000	31.583869
8.660000	18.531963
8.670000	10.201205
8.680000	7.117404
8.690000	-0.153593
8.700000	-18.902990
8.710000	-4.979099
8.720000	9.254181
8.730000	67.792567
8.740000	144.940441
8.750000	233.669059
8.760000	301.276129
8.770000	320.613804
8.780000	355.247018
8.790000	368.669463
8.800000	377.081486
8.810000	345.971033
8.820000	308.152445
8.830000	257.216156
8.840000	218.026958
8.850000	217.851904
8.860000	223.786604
8.870000	238.970082
8.880000	215.789992
8.890000	192.707501
8.900000	157.035427
8.910000	117.552770
8.920000	85.670011
8.930000	73.113858
8.940000	81.992820
8.950000	96.339634
8.960000	112.396524
8.970000	121.599261
8.980000	116.851003
8.990000	104.609217
9.000000	86.337890
9.010000	60.322923
9.020000	23.533327
9.030000	-19.564256
9.040000	-53.195301
9.050000	-89.149244
9.060000	-112.472894
9.070000	-137.771478
9.080000	-173.356238
9.090000	-221.333352
9.100000	-271.830343
9.110000	-324.879733
9.120000	-377.253101
9.130000	-431.733875
9.140000	-494.643797
9.150000	-510.710699
9.160000	-505.548806
9.170000	-457.516847
9.180000	-399.228906
9.190000	-360.608637
9.200000	-327.748605
9.210000	-333.789919
9.220000	-316.299688
9.230000	-311.202177
9.240000	-312.363029
9.250000	-338.978726
9.260000	-372.952266
9.270000	-432.483565
9.280000	-488.707770
9.290000	-513.954151
9.300000	-535.242886
9.310000	-543.956516
9.320000	-585.222201
9.330000	-621.027373
9.340000	-681.686274
9.350000	-740.572512
9.360000	-781.476542
9.370000	-819.501478
9.380000	-861.542326
9.390000	-905.370343
9.400000	-926.512195
9.410000	-929.952183
9.420000	-930.808849
9.430000	-934.807383
9.440000	-943.058858
9.450000	-954.957426
9.460000	-968.270817
9.470000	-985.420185
9.480000	-1011.122529
9.490000	-1039.487430
9.500000	-1061.933973
9.510000	-1070.857975
9.520000	-1083.113364
9.530000	-1111.852605
9.540000	-1149.202732
9.550000	-1182.134265
9.560000	-1208.289399
9.570000	-1231.735012
9.580000	-1258.349261
9.590000	-1254.863231
9.600000	-1225.146215
9.610000	-1159.923864
9.620000	-1087.013641
9.630000	-1026.264614
9.640000	-977.461363
9.650000	-928.207374
9.660000	-853.175757
9.670000	-817.032875
9.680000	-802.634396
9.690000	-796.504097
9.700000	-765.006678
9.710000	-735.445064
9.720000	-727.995113
9.730000	-724.249136
9.740000	-721.662876
9.750000	-705.655916
9.760000	-688.373144
9.770000	-684.371755
9.780000	-705.712317
9.790000	-728.959187
9.800000	-731.690011
9.810000	-720.929886
9.820000	-716.003851
9.830000	-728.849295
9.840000	-754.239519
9.850000	-778.715027
9.860000	-785.769044
9.870000	-787.962776
9.880000	-789.577957
9.890000	-803.536329
9.900000	-819.625344
9.910000	-834.430501
9.920000	-844.307309
9.930000	-832.924965
9.940000	-813.037547
9.950000	-772.987348
9.960000	-722.127034
9.970000	-672.358180
9.980000	-630.169670
9.990000	-595.345170
10.000000	-561.162235
10.010000	-519.629695
10.020000	-463.123376
10.030000	-379.536021
10.040000	-264.406174
10.050000	-158.533859
10.060000	-78.924018
10.070000	-53.528701
10.080000	-32.194145
10.090000	-10.950397
10.100000	-16.849351
10.110000	-57.618760
10.120000	-119.745826
10.130000	-176.884684
10.140000	-238.707234
10.150000	-281.357728
10.160000	-297.345995
10.170000	-271.107529
10.180000	-237.756076
10.190000	-199.732914
10.200000	-176.511450
10.210000	-167.267585
10.220000	-155.522050
10.230000	-143.485001
10.240000	-121.130306
10.250000	-100.728104
10.260000	-84.675747
10.270000	-73.262903
10.280000	-73.871335
10.290000	-76.714398
10.300000	-81.055479
10.310000	-97.493909
10.320000	-119.823526
10.330000	-147.585782
10.340000	-159.831717
10.350000	-163.717782
10.360000	-165.466790
10.370000	-161.786272
10.380000	-156.416980
10.390000	-148.136772
10.400000	-142.013261
10.410000	-144.118687
10.420000	-142.521923
10.430000	-130.409659
10.440000	-109.348437
10.450000	-58.934962
10.460000	-6.935094
10.470000	76.737621
10.480000	162.353113
10.490000	244.182109
10.500000	284.927434
10.510000	290.785705
10.520000	302.636826
10.530000	306.612234
10.540000	300.752391
10.550000	254.400230
10.560000	215.123247
10.570000	173.739623
10.580000	144.265232
10.590000	131.427737
10.600000	127.079569
10.610000	124.828534
10.620000	121.611058
10.630000	126.972119
10.640000	137.481881
10.650000	127.429623
10.660000	124.541397
10.670000	134.535417
10.680000	152.948496
10.690000	178.358585
10.700000	199.704950
10.710000	220.932268
10.720000	230.127290
10.730000	233.264661
10.740000	208.182066
10.750000	165.396661
10.760000	108.928982
10.770000	61.623813
10.780000	26.665481
10.790000	-2.799559
10.800000	-26.868956
10.810000	-54.202474
10.820000	-61.939382
10.830000	-54.970712
10.840000	-63.033687
10.850000	-91.627884
10.860000	-120.011291
10.870000	-128.242498
10.880000	-97.948311
10.890000	-67.969229
10.900000	-12.997320
10.910000	53.576374
10.920000	124.683129
10.930000	174.114971
10.940000	159.030253
10.950000	149.342419
10.960000	119.494456
10.970000	105.117351
10.980000	62.453501
10.990000	10.444178
11.000000	-45.244096
11.010000	-103.194054
11.020000	-129.472310
11.030000	-151.620928
11.040000	-155.204896
11.050000	-184.160992
11.060000	-207.684937
11.070000	-229.080673
11.080000	-243.093941
11.090000	-246.625275
11.100000	-246.816605
11.110000	-234.410226
11.120000	-215.199195
11.130000	-194.144673
11.140000	-179.542581
11.150000	-181.502260
11.160000	-200.143210
11.170000	-229.460895
11.180000	-267.372332
11.190000	-305.686996
11.200000	-342.569666
11.210000	-381.545088
11.220000	-417.694258
11.230000	-447.356932
11.240000	-468.774208
11.250000	-481.121318
11.260000	-490.823884
11.270000	-506.173808
11.280000	-524.793733
11.290000	-532.142192
11.300000	-522.069089
11.310000	-495.077798
11.320000	-455.971690
11.330000	-378.543480
11.340000	-271.251228
11.350000	-163.682063
11.360000	-84.141922
11.370000	-61.770751
11.380000	-27.042574
11.390000	12.648540
11.400000	41.085317
11.410000	29.753698
11.420000	-17.310888
11.430000	-39.933585
11.440000	-72.245881
11.450000	-96.090156
11.460000	-111.844490
11.470000	-91.113540
11.480000	-55.860389
11.490000	-39.447010
11.500000	-41.061003
11.510000	-51.368788
11.520000	-41.820350
11.530000	-22.340885
11.540000	3.493298
11.550000	23.719743
11.560000	41.237055
11.570000	62.513001
11.580000	84.343943
11.590000	100.354107
11.600000	105.177032
11.610000	105.618942
11.620000	104.389364
11.630000	96.586900
11.640000	78.328717
11.650000	50.626054
11.660000	30.703888
11.670000	21.350372
11.680000	22.128546
11.690000	22.104398
11.700000	14.623693
11.710000	4.615838
11.720000	-5.495582
11.730000	7.242987
11.740000	35.361098
11.750000	87.641153
11.760000	186.983127
11.770000	299.610422
11.780000	412.388813
11.790000	456.487204
11.800000	494.215368
11.810000	530.266605
11.820000	549.381508
11.830000	553.822034
11.840000	520.539546
11.850000	483.595913
11.860000	430.966102
11.870000	415.610212
11.880000	429.955166
11.890000	466.687490
11.900000	484.914429
11.910000	490.288526
11.920000	491.945999
11.930000	484.245199
11.940000	481.094307
11.950000	458.494279
11.960000	443.111770
11.970000	442.420783
11.980000	455.503127
11.990000	464.364131
12.000000	464.328275
12.010000	464.409082
12.020000	460.849146
12.030000	446.843251
12.040000	421.450500
12.050000	395.708146
12.060000	365.407923
12.070000	344.019650
12.080000	330.390014
12.090000	329.078449
12.100000	331.400773
12.110000	339.899898
12.120000	352.463996
12.130000	360.101131
12.140000	362.951078
12.150000	358.360230
12.160000	382.610732
12.170000	416.867001
12.180000	484.117736
12.190000	564.989984
12.200000	647.711595
12.210000	720.178112
12.220000	732.267169
12.230000	755.433033
12.240000	757.604677
12.250000	771.599179
12.260000	741.431346
12.270000	699.073357
12.280000	653.594946
12.290000	611.941578
12.300000	606.561843
12.310000	600.686309
12.320000	631.130836
12.330000	626.868189
12.340000	628.406208
12.350000	612.608661
12.360000	596.525366
12.370000	588.057431
12.380000	581.674401
12.390000	594.635567
12.400000	614.809488
12.410000	635.294841
12.420000	645.334084
12.430000	642.711000
12.440000	627.932905
12.450000	604.869790
12.460000	567.905712
12.470000	518.447883
12.480000	473.655102
12.490000	432.709890
12.500000	403.160721
12.510000	377.664209
12.520000	353.411967
12.530000	339.718285
12.540000	325.005580
12.550000	312.546180
12.560000	283.939316
12.570000	254.867285
12.580000	222.889486
12.590000	219.681578
12.600000	235.124291
12.610000	277.947010
12.620000	344.725022
12.630000	414.897957
12.640000	489.450778
12.650000	516.770221
12.660000	553.539692
12.670000	578.494035
12.680000	596.432427
12.690000	582.869572
12.700000	547.150152
12.710000	516.359154
12.720000	495.204981
12.730000	505.962122
12.740000	511.160762
12.750000	526.776826
12.760000	527.401050
12.770000	532.446039
12.780000	509.229549
12.790000	464.621736
12.800000	417.154479
12.810000	376.504058
12.820000	353.814267
12.830000	354.100252
12.840000	360.143567
12.850000	347.741044
12.860000	313.593935
12.870000	276.840314
12.880000	254.435024
12.890000	244.283844
12.900000	247.347612
12.910000	248.078333
12.920000	256.727220
12.930000	265.887005
12.940000	288.558752
12.950000	305.001474
12.960000	315.507550
12.970000	315.497989
12.980000	304.529649
12.990000	288.741035
13.000000	269.266301
13.010000	256.404059
13.020000	270.424990
13.030000	303.718323
13.040000	375.050449
13.050000	447.273173
13.060000	516.494574
13.070000	566.187142
13.080000	589.692790
13.090000	631.301185
13.100000	641.025367
13.110000	644.014711
13.120000	619.625097
13.130000	601.937951
13.140000	589.854081
13.150000	577.908214
13.160000	586.880629
13.170000	603.510254
13.180000	642.709625
13.190000	676.051446
13.200000	701.001040
13.210000	708.632834
13.220000	715.085488
13.230000	739.279158
13.240000	761.454096
13.250000	782.037753
13.260000	780.822611
13.270000	768.938755
13.280000	763.597245
13.290000	771.533478
13.300000	783.048974
13.310000	782.500507
13.320000	768.260894
13.330000	755.234359
13.340000	737.135753
13.350000	706.352082
13.360000	674.450521
13.370000	650.516590
13.380000	653.512383
13.390000	664.964609
13.400000	687.685397
13.410000	716.442913
13.420000	762.288529
13.430000	818.591058
13.440000	885.962973
13.450000	936.712551
13.460000	1005.191910
13.470000	1094.130936
13.480000	1184.745156
13.490000	1265.285023
13.500000	1290.589321
13.510000	1341.166592
13.520000	1370.466455
13.530000	1396.273091
13.540000	1377.228991
13.550000	1318.220710
13.560000	1256.794930
13.570000	1186.427233
13.580000	1166.254070
13.590000	1163.092620
13.600000	1195.901741
13.610000	1219.961314
13.620000	1243.405664
13.630000	1267.856076
13.640000	1285.928340
13.650000	1317.535486
13.660000	1338.706341
13.670000	1367.372015
13.680000	1402.139463
13.690000	1441.582806
13.700000	1476.257728
13.710000	1495.831129
13.720000	1509.134734
13.730000	1513.419871
13.740000	1515.075175
13.750000	1515.031395
13.760000	1501.685055
13.770000	1474.376261
13.780000	1445.366450
13.790000	1431.435627
13.800000	1420.336264
13.810000	1407.550416
13.820000	1397.029571
13.830000	1388.018537
13.840000	1375.409872
13.850000	1361.204475
13.860000	1357.181324
13.870000	1384.780570
13.880000	1435.566996
13.890000	1516.761919
13.900000	1610.913121
13.910000	1703.779602
13.920000	1793.988052
13.930000	1849.405539
13.940000	1915.969409
13.950000	1954.154665
13.960000	1982.467310
13.970000	1975.138572
13.980000	1955.121298
13.990000	1930.770526
14.000000	1888.067833
14.010000	1860.218693
14.020000	1837.916617
14.030000	1858.145501
14.040000	1865.529037
14.050000	1871.605872
14.060000	1871.779372
14.070000	1882.806232
14.080000	1913.020343
14.090000	1943.277311
14.100000	1989.369201
14.110000	2046.369144
14.120000	2109.394891
14.130000	2170.795786
14.140000	2204.043504
14.150000	2218.661899
14.160000	2222.694165
14.170000	2214.506532
14.180000	2192.682827
14.190000	2178.416290
14.200000	2169.609489
14.210000	2165.330148
14.220000	2151.834111
14.230000	2148.333240
14.240000	2161.689085
14.250000	2159.892720
14.260000	2165.021288
14.270000	2161.008294
14.280000	2180.146005
14.290000	2200.633813
14.300000	2230.342875
14.310000	2268.892787
14.320000	2331.905261
14.330000	2414.081299
14.340000	2517.139339
14.350000	2607.490659
14.360000	2676.424958
14.370000	2744.295095
14.380000	2802.277719
14.390000	2857.790087
14.400000	2850.255001
14.410000	2640.378791
14.420000	2188.635821
14.430000	1110.474905
14.440000	-134.573095
14.450000	-1177.017223
14.460000	-2675.571141
14.470000	-4911.909203
14.480000	-5065.225559
14.490000	-4242.786932
14.500000	-4589.761865
14.510000	-5553.164679
14.520000	-5454.795307
14.530000	-5408.744033
14.540000	-5466.537348
14.550000	-5515.551343
14.560000	-5462.041596
14.570000	-5430.335780
14.580000	-5439.970659
14.590000	-5374.794590
14.600000	-5367.965908
14.610000	-5409.910498
14.620000	-5350.291317
14.630000	-5218.571301
14.640000	-5127.898553
14.650000	-5161.201970
14.660000	-5188.976040
14.670000	-5229.961012
14.680000	-5332.189307
14.690000	-5466.564296
14.700000	-5561.007995
14.710000	-5576.649615
14.720000	-5564.464937
14.730000	-5534.347538
14.740000	-5405.732789
14.750000	-5164.955784
14.760000	-4898.335683
14.770000	-4606.055030
14.780000	-4305.380200
14.790000	-4046.640207
14.800000	-3897.868861
14.810000	-3807.626458
14.820000	-3626.818863
14.830000	-3461.042108
14.840000	-3372.045271
14.850000	-3250.384668
14.860000	-3019.091558
14.870000	-2758.891261
14.880000	-2538.836908
14.890000	-2327.185653
14.900000	-2124.736452
14.910000	-1963.296850
14.920000	-1844.618558
14.930000	-1752.758019
14.940000	-1688.946525
14.950000	-1640.579981
14.960000	-1571.608984
14.970000	-1507.302661
14.980000	-1466.987493
14.990000	-1404.578117
15.000000	-1350.642358
15.010000	-1292.467232
15.020000	-1211.346663
15.030000	-1139.896566
15.040000	-1090.060134
15.050000	-1079.073059
15.060000	-1075.037949
15.070000	-1077.401597
15.080000	-1083.408998
15.090000	-1088.123406
15.100000	-1102.222170
15.110000	-1096.802381
15.120000	-1069.173176
15.130000	-985.795758
15.140000	-867.004559
15.150000	-717.144239
15.160000	-550.595799
15.170000	-403.952617
15.180000	-267.124302
15.190000	-146.204186
15.200000	-51.061839
15.210000	-3.553927
15.220000	-15.369951
15.230000	-53.178432
15.240000	-89.759853
15.250000	-116.585861
15.260000	-121.538065
15.270000	-131.832746
15.280000	-155.996281
15.290000	-176.071477
15.300000	-190.564212
15.310000	-185.674154
15.320000	-190.648034
15.330000	-206.262873
15.340000	-227.780856
15.350000	-243.563360
15.360000	-235.626879
15.370000	-220.689694
15.380000	-201.832553
15.390000	-189.566779
15.400000	-171.706131
15.410000	-143.193590
15.420000	-108.335472
15.430000	-65.868381
15.440000	-32.410432
15.450000	-13.910271
15.460000	-5.518703
15.470000	-1.011248
15.480000	-22.768299
15.490000	-32.006891
15.500000	-67.627143
15.510000	-88.846125
15.520000	-101.008355
15.530000	-100.055104
15.540000	-88.803918
15.550000	-124.809783
15.560000	-132.963697
15.570000	-125.867178
15.580000	-107.160568
15.590000	-91.015092
15.600000	-87.407404
15.610000	-77.478517
15.620000	-60.097531
15.630000	-48.709798
15.640000	-1.697464
15.650000	19.381278
15.660000	36.872233
15.670000	37.981801
15.680000	34.448717
15.690000	33.175227
15.700000	8.542176
15.710000	-17.895371
15.720000	-51.164186
15.730000	-69.285162
15.740000	-78.006627
15.750000	-74.377537
15.760000	-75.965120
15.770000	-84.485963
15.780000	-103.989492
15.790000	-142.999368
15.800000	-189.349616
15.810000	-228.565562
15.820000	-252.786920
15.830000	-257.867518
15.840000	-253.989020
15.850000	-233.178269
15.860000	-201.287629
15.870000	-165.885478
15.880000	-132.973555
15.890000	-95.281062
15.900000	-69.115611
15.910000	-25.944730
15.920000	20.902913
15.930000	78.055430
15.940000	115.095500
15.950000	141.775191
15.960000	182.938940
15.970000	214.971382
15.980000	231.104975
15.990000	221.101153
16.000000	191.593924
16.010000	156.527698
16.020000	132.032357
16.030000	123.869367
16.040000	144.432729
16.050000	145.321232
16.060000	163.678682
16.070000	164.853312
16.080000	166.011147
16.090000	176.641949
16.100000	189.575608
16.110000	222.777487
16.120000	237.261623
16.130000	251.014257
16.140000	260.500058
16.150000	252.168490
16.160000	234.410500
16.170000	209.250418
16.180000	185.284276
16.190000	164.258919
16.200000	139.413503
16.210000	128.279726
16.220000	113.726543
16.230000	103.314130
16.240000	108.329026
16.250000	126.256599
16.260000	151.201625
16.270000	170.125608
16.280000	179.045348
16.290000	211.042767
16.300000	248.028296
16.310000	292.964274
16.320000	327.900422
16.330000	351.544905
16.340000	372.412940
16.350000	396.732794
16.360000	441.568842
16.370000	472.392679
16.380000	479.406443
16.390000	463.696308
16.400000	446.580200
16.410000	429.893750
16.420000	413.362214
16.430000	382.332482
16.440000	344.486415
16.450000	265.603693
16.460000	179.411526
16.470000	96.425492
16.480000	23.607936
16.490000	-31.135677
16.500000	-94.008177
16.510000	-135.930471
16.520000	-171.128641
16.530000	-189.042548
16.540000	-196.682675
16.550000	-194.521927
16.560000	-186.966050
16.570000	-178.386363
16.580000	-162.939799
16.590000	-147.336986
16.600000	-134.287542
16.610000	-127.341507
16.620000	-124.672049
16.630000	-110.693043
16.640000	-88.492589
16.650000	-58.421742
16.660000	-34.067435
16.670000	-4.801823
16.680000	39.973145
16.690000	98.733706
16.700000	177.316240
16.710000	229.408369
16.720000	270.778939
16.730000	282.269590
16.740000	305.023141
16.750000	333.953111
16.760000	337.477234
16.770000	346.089848
16.780000	341.078948
16.790000	336.599679
16.800000	318.886848
16.810000	316.174448
16.820000	339.597411
16.830000	369.280381
16.840000	381.246420
16.850000	376.070162
16.860000	366.879692
16.870000	350.765714
16.880000	341.508654
16.890000	326.338221
16.900000	318.826539
16.910000	321.496979
16.920000	336.092233
16.930000	349.899339
16.940000	366.686519
16.950000	380.558501
16.960000	397.931308
16.970000	409.123484
16.980000	411.144520
16.990000	408.659546
17.000000	388.592393
17.010000	373.242829
17.020000	362.261450
17.030000	366.807777
17.040000	367.128987
17.050000	369.728216
17.060000	360.891029
17.070000	378.406801
17.080000	403.113322
17.090000	445.784265
17.100000	489.877227
17.110000	522.454912
17.120000	567.692991
17.130000	580.552020
17.140000	620.077832
17.150000	651.675101
17.160000	677.513447
17.170000	674.010539
17.180000	661.352315
17.190000	653.277927
17.200000	641.747635
17.210000	640.220576
17.220000	645.045444
17.230000	664.812932
17.240000	654.812872
17.250000	645.895426
17.260000	628.418277
17.270000	609.305867
17.280000	585.946517
17.290000	569.703627
17.300000	573.093430
17.310000	588.327694
17.320000	607.522053
17.330000	631.591132
17.340000	648.196036
17.350000	652.824381
17.360000	650.176855
17.370000	645.340102
17.380000	641.433558
17.390000	628.768469
17.400000	618.695741
17.410000	622.143230
17.420000	642.885692
17.430000	674.437080
17.440000	706.010955
17.450000	752.414863
17.460000	796.662374
17.470000	827.688896
17.480000	889.411290
17.490000	948.363375
17.500000	1026.926403
17.510000	1074.784143
17.520000	1086.176331
17.530000	1033.757871
17.540000	864.300545
17.550000	705.172792
17.560000	589.109801
17.570000	516.443455
17.580000	514.270418
17.590000	499.355374
17.600000	510.710859
17.610000	552.114344
17.620000	601.691101
17.630000	662.551956
17.640000	656.056582
17.650000	631.283217
17.660000	621.655008
17.670000	592.436297
17.680000	578.052152
17.690000	593.143538
17.700000	627.322118
17.710000	691.183041
17.720000	761.105796
17.730000	847.924587
17.740000	940.436075
17.750000	1003.874927
17.760000	1069.220142
17.770000	1154.729912
17.780000	1226.466795
17.790000	1285.954595
17.800000	1325.627132
17.810000	1384.579093
17.820000	1431.532174
17.830000	1464.889428
17.840000	1511.452511
17.850000	1551.007567
17.860000	1613.781289
17.870000	1677.584599
17.880000	1731.409912
17.890000	1770.447390
17.900000	1793.984784
17.910000	1840.017738
17.920000	1886.328421
17.930000	1895.814240
17.940000	1891.436947
17.950000	1870.472982
17.960000	1891.980804
17.970000	1903.757960
17.980000	1941.363694
17.990000	1979.807443
18.000000	1945.877762
18.010000	1716.650136
18.020000	1258.017307
18.030000	475.074487
18.040000	-382.297897
18.050000	-1544.829023
18.060000	-3419.650008
18.070000	-3942.726119
18.080000	-3752.814303
18.090000	-3656.776785
18.100000	-3851.105782
18.110000	-4109.481420
18.120000	-4250.685276
18.130000	-4361.665970
18.140000	-4475.861600
18.150000	-4483.869064
18.160000	-4441.569799
18.170000	-4472.001530
18.180000	-4491.121142
18.190000	-4427.915314
18.200000	-4364.171290
18.210000	-4382.243350
18.220000	-4407.870852
18.230000	-4384.031816
18.240000	-4311.809907
18.250000	-4222.316114
18.260000	-4097.026093
18.270000	-4024.307528
18.280000	-4051.543286
18.290000	-4081.314828
18.300000	-4068.952278
18.310000	-4082.044010
18.320000	-4124.934398
18.330000	-4160.071539
18.340000	-4088.828748
18.350000	-3954.568895
18.360000	-3792.781156
18.370000	-3570.624744
18.380000	-3282.554491
18.390000	-2996.294225
18.400000	-2777.066429
18.410000	-2573.054112
18.420000	-2314.941876
18.430000	-2122.076768
18.440000	-2026.989810
18.450000	-1914.103224
18.460000	-1809.503741
18.470000	-1690.405317
18.480000	-1591.919515
18.490000	-1447.503976
18.500000	-1262.274134
18.510000	-1097.164233
18.520000	-936.492855
18.530000	-752.866427
18.540000	-575.273439
18.550000	-393.534273
18.560000	-211.832926
18.570000	-35.945496
18.580000	143.243269
18.590000	290.115652
18.600000	412.033195
18.610000	517.108335
18.620000	601.720820
18.630000	661.362282
18.640000	738.468193
18.650000	802.346634
18.660000	869.944771
18.670000	931.523148
18.680000	982.367703
18.690000	1019.637782
18.700000	1051.754958
18.710000	1086.684964
18.720000	1090.294122
18.730000	1079.807809
18.740000	1095.832495
18.750000	1139.089817
18.760000	1210.975138
18.770000	1301.944568
18.780000	1412.414958
18.790000	1527.694663
18.800000	1619.421084
18.810000	1701.832625
18.820000	1731.874371
18.830000	1720.390129
18.840000	1662.890692
18.850000	1595.999332
18.860000	1528.436108
18.870000	1447.489012
18.880000	1360.309023
18.890000	1274.586709
18.900000	1196.116846
18.910000	1130.958821
18.920000	1075.839625
18.930000	1017.577865
18.940000	952.195377
18.950000	885.164104
18.960000	836.532610
18.970000	785.245758
18.980000	741.230105
18.990000	713.934791
19.000000	691.477885
19.010000	721.061821
19.020000	747.720944
19.030000	802.033196
19.040000	870.118119
19.050000	931.262187
19.060000	980.167505
19.070000	968.650077
19.080000	966.150120
19.090000	962.095174
19.100000	946.076953
19.110000	913.500130
19.120000	856.940028
19.130000	784.558688
19.140000	716.112515
19.150000	654.181073
19.160000	638.665276
19.170000	616.492628
19.180000	604.688518
19.190000	604.037614
19.200000	616.660212
19.210000	641.518788
19.220000	652.842244
19.230000	658.036090
19.240000	643.578535
19.250000	616.220875
19.260000	588.275292
19.270000	571.348968
19.280000	541.152083
19.290000	493.477562
19.300000	441.020682
19.310000	398.891545
19.320000	374.145954
19.330000	338.153007
19.340000	287.285426
19.350000	244.098603
19.360000	221.677802
19.370000	219.619423
19.380000	208.603051
19.390000	183.151382
19.400000	146.832149
19.410000	100.287664
19.420000	64.395869
19.430000	52.682813
19.440000	28.434009
19.450000	0.482154
19.460000	-36.955551
19.470000	-45.986087
19.480000	-29.511349
19.490000	-20.591337
19.500000	22.082951
19.510000	67.550774
19.520000	107.351589
19.530000	132.971962
19.540000	130.885695
19.550000	118.423819
19.560000	100.331166
19.570000	85.833932
19.580000	80.378882
19.590000	58.104025
19.600000	31.812111
19.610000	13.651649
19.620000	2.153945
19.630000	-1.179886
19.640000	-4.919187
19.650000	-9.041787
19.660000	-10.705190
19.670000	-15.647864
19.680000	-15.506393
19.690000	5.378845
19.700000	24.868010
19.710000	76.170343
19.720000	131.019679
19.730000	182.633638
19.740000	211.081366
19.750000	227.127381
19.760000	275.515865
19.770000	286.586394
19.780000	283.819011
19.790000	268.263299
19.800000	263.797692
19.810000	266.810870
19.820000	258.681313
19.830000	267.766971
19.840000	281.064157
19.850000	282.661238
19.860000	274.442023
19.870000	260.173478
19.880000	240.758144
19.890000	228.329342
19.900000	214.296775
19.910000	219.846401
19.920000	235.697790
19.930000	264.341832
19.940000	292.334393
19.950000	312.467058
19.960000	322.597553
19.970000	329.897147
19.980000	337.796362
19.990000	337.907336
20.000000	339.656628
20.010000	339.160128
20.020000	338.144765
20.030000	329.668198
20.040000	365.406282
20.050000	401.192035
20.060000	448.098483
20.070000	487.914357
20.080000	518.112629
20.090000	532.906540
20.100000	507.687172
20.110000	502.409686
20.120000	505.343465
20.130000	494.830811
20.140000	475.015801
20.150000	447.189204
20.160000	431.351222
20.170000	430.779957
20.180000	428.241848
20.190000	445.756649
20.200000	428.198630
20.210000	420.619774
20.220000	404.592257
20.230000	398.528521
20.240000	396.530122
20.250000	382.353097
20.260000	377.515847
20.270000	375.377706
20.280000	386.158482
20.290000	387.590245
20.300000	382.146120
20.310000	374.753129
20.320000	377.095807
20.330000	380.470052
20.340000	374.651237
20.350000	359.825365
20.360000	339.157856
20.370000	313.450399
20.380000	304.999596
20.390000	305.600944
20.400000	303.774827
20.410000	347.858131
20.420000	386.886199
20.430000	445.598654
20.440000	478.413026
20.450000	483.735118
20.460000	440.160421
20.470000	347.872370
20.480000	271.693361
20.490000	204.419651
20.500000	153.875274
20.510000	100.833509
20.520000	50.732311
20.530000	14.536433
20.540000	15.897919
20.550000	34.391859
20.560000	70.728310
20.570000	90.089611
20.580000	139.055342
20.590000	209.911153
20.600000	291.980319
20.610000	375.340687
20.620000	444.161488
20.630000	517.137299
20.640000	582.531156
20.650000	625.196455
20.660000	670.617486
20.670000	701.743673
20.680000	689.943378
20.690000	685.445336
20.700000	683.054702
20.710000	585.832477
20.720000	266.243366
20.730000	-458.806784
20.740000	-1561.571841
20.750000	-2653.969545
20.760000	-4203.876499
20.770000	-4405.218004
20.780000	-4003.075496
20.790000	-4035.270191
20.800000	-4142.311035
20.810000	-4134.982022
20.820000	-4073.032303
20.830000	-4140.767056
20.840000	-4249.735551
20.850000	-4297.244096
20.860000	-4230.974926
20.870000	-4147.862114
20.880000	-4107.175154
20.890000	-4041.864048
20.900000	-3824.343441
20.910000	-3521.667226
20.920000	-3430.994783
20.930000	-3414.542066
20.940000	-3308.374522
20.950000	-3209.530067
20.960000	-3249.912799
20.970000	-3304.541665
20.980000	-3355.139656
20.990000	-3458.487925
21.000000	-3563.799224
21.010000	-3589.076248
21.020000	-3558.811999
21.030000	-3533.156144
21.040000	-3465.257420
21.050000	-3270.525125
21.060000	-2992.446874
21.070000	-2685.649786
21.080000	-2413.050324
21.090000	-2226.467987
21.100000	-2071.418595
21.110000	-1932.783861
21.120000	-1825.591961
21.130000	-1742.760701
21.140000	-1682.835197
21.150000	-1583.958764
21.160000	-1438.614164
21.170000	-1292.355094
21.180000	-1116.240373
21.190000	-915.563302
21.200000	-725.666291
21.210000	-543.716487
21.220000	-390.539665
21.230000	-244.468079
21.240000	-111.871137
21.250000	3.741119
21.260000	84.712173
21.270000	136.969428
21.280000	209.368422
21.290000	273.942472
21.300000	378.188367
21.310000	461.910189
21.320000	546.189368
21.330000	584.651146
21.340000	580.953658
21.350000	584.811824
21.360000	568.131477
21.370000	517.975382
21.380000	433.638152
21.390000	340.506536
21.400000	249.735672
21.410000	196.734906
21.420000	173.679043
21.430000	187.636108
21.440000	231.883793
21.450000	326.577715
21.460000	465.984678
21.470000	651.172565
21.480000	832.247477
21.490000	1053.328164
21.500000	1263.218337
21.510000	1409.785017
21.520000	1485.616489
21.530000	1521.652294
21.540000	1541.299663
21.550000	1497.966968
21.560000	1390.748572
21.570000	1294.129554
21.580000	1243.063666
21.590000	1224.134624
21.600000	1296.554141
21.610000	1440.900181
21.620000	1610.613759
21.630000	1694.131415
21.640000	1690.622262
21.650000	1635.440641
21.660000	1466.341820
21.670000	1264.456612
21.680000	1079.287956
21.690000	1232.199867
21.700000	1350.642611
21.710000	1342.103105
21.720000	-447.506656
21.730000	-178.186404
21.740000	-77.395534
21.750000	-68.512046
21.760000	-144.366348
21.770000	-7.054922
21.780000	148.293378
21.790000	358.023099
21.800000	440.673805
21.810000	322.716928
21.820000	12.264942
21.830000	-372.633709
21.840000	-815.284655
21.850000	-1420.527276
21.860000	-2076.092905
21.870000	-2413.374011
21.880000	-2678.836972
21.890000	-2753.696447
21.900000	-2682.376083
21.910000	-1917.496114
21.920000	-1515.893621
21.930000	-1153.256793
21.940000	-934.157095
21.950000	-772.962444
21.960000	-841.133365
21.970000	-1010.852209
21.980000	-1141.413099
21.990000	-1226.783480
22.000000	-1246.323742
22.010000	-1297.041647
22.020000	-1350.559841
22.030000	-1446.489108
22.040000	-1582.014691
22.050000	-1752.599825
22.060000	-1956.143581
22.070000	-2136.228061
22.080000	-2273.039057
22.090000	-2317.441146
22.100000	-2337.253792
22.110000	-2298.371628
22.120000	-2217.939255
22.130000	-2112.630058
22.140000	-1997.950016
22.150000	-1892.892487
22.160000	-1794.226726
22.170000	-1687.115918
22.180000	-1558.500409
22.190000	-1481.233273
22.200000	-1431.164814
22.210000	-1417.097461
22.220000	-1313.114702
22.230000	-1221.576623
22.240000	-1012.079100
22.250000	-683.114030
22.260000	-200.021147
22.270000	159.018705
22.280000	453.240506
22.290000	693.227938
22.300000	807.795964
22.310000	909.293519
22.320000	1022.798182
22.330000	1345.853443
22.340000	1479.851199
22.350000	1448.261661
22.360000	1548.011817
22.370000	1554.951665
22.380000	1227.896340
22.390000	956.288300
22.400000	1065.732505
22.410000	1233.372229
22.420000	1156.677887
22.430000	1118.394510
22.440000	1245.639519
22.450000	1310.471985
22.460000	1134.769130
22.470000	948.702775
22.480000	956.861125
22.490000	1015.343138
22.500000	1040.151775
22.510000	1060.663073
22.520000	1230.485879
22.530000	1436.286116
22.540000	1372.328532
22.550000	1266.412244
22.560000	1189.779574
22.570000	1210.903166
22.580000	1281.282417
22.590000	1346.752273
22.600000	1472.153187
22.610000	1495.018787
22.620000	1479.355011
22.630000	1519.411365
22.640000	1502.699304
22.650000	1420.800686
22.660000	1346.645203
22.670000	1314.128238
22.680000	1302.821261
22.690000	1265.428609
22.700000	1177.106167
22.710000	1126.755804
22.720000	1098.150630
22.730000	1104.211906
22.740000	1058.972880
22.750000	994.040860
22.760000	988.977293
22.770000	1001.252120
22.780000	989.035117
22.790000	928.899257
22.800000	871.014245
22.810000	814.124813
22.820000	744.011252
22.830000	670.136051
22.840000	605.739752
22.850000	554.175057
22.860000	553.619298
22.870000	626.225917
22.880000	716.341469
22.890000	769.336378
22.900000	744.492427
22.910000	709.803118
22.920000	686.573293
22.930000	660.898406
22.940000	644.784347
22.950000	596.238172
22.960000	565.976589
22.970000	515.058665
22.980000	473.084484
22.990000	434.510453
23.000000	372.863129
23.010000	364.306122
23.020000	323.594176
23.030000	276.135172
23.040000	234.018512
23.050000	185.963639
23.060000	204.737697
23.070000	196.732885
23.080000	217.264048
23.090000	199.231112
23.100000	114.630043
23.110000	20.361862
23.120000	-56.018176
23.130000	-60.033334
23.140000	-8.795847
23.150000	70.945903
23.160000	169.875652
23.170000	231.196415
23.180000	291.204916
23.190000	349.080783
23.200000	386.890035
23.210000	427.480408
23.220000	453.200887
23.230000	492.744671
23.240000	517.425206
23.250000	535.515221
23.260000	587.142167
23.270000	647.847236
23.280000	691.594021
23.290000	703.282212
23.300000	676.142040
23.310000	662.285887
23.320000	636.886063
23.330000	620.822777
23.340000	594.259609
23.350000	567.183272
23.360000	532.327798
23.370000	483.956997
23.380000	447.892019
23.390000	431.088590
23.400000	427.831445
23.410000	420.263829
23.420000	423.271444
23.430000	444.831051
23.440000	488.109503
23.450000	517.703917
23.460000	531.450742
23.470000	521.306155
23.480000	508.284280
23.490000	484.575345
23.500000	516.066646
23.510000	560.627894
23.520000	591.638601
23.530000	628.888521
23.540000	646.165097
23.550000	688.760038
23.560000	668.406202
23.570000	625.065454
23.580000	591.710082
23.590000	546.636265
23.600000	513.554521
23.610000	460.470155
23.620000	442.387569
23.630000	458.567514
23.640000	463.848759
23.650000	491.631038
23.660000	482.806500
23.670000	485.740611
23.680000	448.907645
23.690000	404.163856
23.700000	394.457473
23.710000	409.860315
23.720000	452.124712
23.730000	470.163860
23.740000	470.368914
23.750000	460.223047
23.760000	439.678617
23.770000	412.378762
23.780000	391.768505
23.790000	372.904103
23.800000	349.274418
23.810000	323.207581
23.820000	311.240076
23.830000	277.788822
23.840000	294.922510
23.850000	318.137845
23.860000	351.493132
23.870000	390.551865
23.880000	407.086921
23.890000	435.894339
23.900000	393.110335
23.910000	375.154349
23.920000	394.993757
23.930000	431.409850
23.940000	428.872492
23.950000	386.572029
23.960000	361.666988
23.970000	327.594300
23.980000	325.404053
23.990000	312.142869
24.000000	310.411673
24.010000	288.633290
24.020000	257.960795
24.030000	247.263324
24.040000	258.192929
24.050000	278.947649
24.060000	291.165097
24.070000	294.773736
24.080000	302.263430
24.090000	315.328641
24.100000	335.118869
24.110000	362.307643
24.120000	404.084407
24.130000	443.312161
24.140000	454.118410
24.150000	458.875101
24.160000	481.582923
24.170000	586.976076
24.180000	732.846650
24.190000	899.899700
24.200000	1027.757367
24.210000	1082.322102
24.220000	1093.604190
24.230000	1021.645787
24.240000	958.239751
24.250000	911.499929
24.260000	901.000483
24.270000	891.630970
24.280000	830.138541
24.290000	757.782140
24.300000	673.922117
24.310000	618.137748
24.320000	575.650409
24.330000	593.089402
24.340000	597.143358
24.350000	591.346229
24.360000	551.654701
24.370000	484.447436
24.380000	419.658248
24.390000	247.470630
