Time(s)	GREEN_denoised_wiener
0.000000	157.295928
0.010000	239.252717
0.020000	239.140504
0.030000	240.480679
0.040000	243.429511
0.050000	248.699129
0.060000	240.996557
0.070000	213.596143
0.080000	171.584114
0.090000	121.484877
0.100000	66.149049
0.110000	9.029097
0.120000	-44.961807
0.130000	-91.441582
0.140000	-132.437344
0.150000	-170.928924
0.160000	-207.587556
0.170000	-241.092112
0.180000	-269.083200
0.190000	-295.287266
0.200000	-324.263347
0.210000	-354.815792
0.220000	-385.793089
0.230000	-413.687613
0.240000	-440.020029
0.250000	-462.231906
0.260000	-480.271148
0.270000	-495.464229
0.280000	-509.541233
0.290000	-523.044759
0.300000	-532.151066
0.310000	-537.322404
0.320000	-539.781933
0.330000	-541.287393
0.340000	-542.429063
0.350000	-540.930902
0.360000	-538.106031
0.370000	-533.924285
0.380000	-528.470458
0.390000	-522.607192
0.400000	-515.852153
0.410000	-509.649924
0.420000	-503.249250
0.430000	-495.713810
0.440000	-486.001278
0.450000	-476.475834
0.460000	-463.425621
0.470000	-446.603260
0.480000	-433.226570
0.490000	-438.107860
0.500000	-465.688893
0.510000	-508.603427
0.520000	-559.173963
0.530000	-611.126651
0.540000	-659.687152
0.550000	-702.012708
0.560000	-737.898639
0.570000	-768.259745
0.580000	-795.806477
0.590000	-818.852972
0.600000	-837.744999
0.610000	-851.467732
0.620000	-868.401426
0.630000	-889.086552
0.640000	-910.406887
0.650000	-929.732598
0.660000	-946.778151
0.670000	-962.407969
0.680000	-973.832342
0.690000	-980.783354
0.700000	-982.244348
0.710000	-981.196368
0.720000	-978.009272
0.730000	-973.303593
0.740000	-964.458909
0.750000	-953.784728
0.760000	-940.594100
0.770000	-927.301574
0.780000	-914.083740
0.790000	-900.844999
0.800000	-887.601069
0.810000	-871.741980
0.820000	-855.158241
0.830000	-836.992269
0.840000	-816.743953
0.850000	-798.616398
0.860000	-781.342253
0.870000	-760.593086
0.880000	-734.976265
0.890000	-711.955089
0.900000	-702.982230
0.910000	-708.982506
0.920000	-726.336709
0.930000	-749.365250
0.940000	-772.719736
0.950000	-791.777609
0.960000	-806.476220
0.970000	-816.884570
0.980000	-824.263520
0.990000	-827.679676
1.000000	-826.746450
1.010000	-821.837619
1.020000	-814.259306
1.030000	-806.359063
1.040000	-799.463268
1.050000	-793.570704
1.060000	-788.025872
1.070000	-782.142622
1.080000	-774.613714
1.090000	-765.077328
1.100000	-751.891474
1.110000	-736.714434
1.120000	-720.861525
1.130000	-704.708755
1.140000	-686.184537
1.150000	-664.399223
1.160000	-641.207868
1.170000	-616.777712
1.180000	-591.591262
1.190000	-565.513570
1.200000	-540.004630
1.210000	-515.605691
1.220000	-490.770911
1.230000	-463.053837
1.240000	-434.574749
1.250000	-409.198303
1.260000	-382.714449
1.270000	-351.702818
1.280000	-319.563936
1.290000	-298.255059
1.300000	-289.409124
1.310000	-287.478132
1.320000	-289.284543
1.330000	-294.398970
1.340000	-301.514261
1.350000	-307.337554
1.360000	-311.107288
1.370000	-311.965385
1.380000	-313.067336
1.390000	-310.930800
1.400000	-305.392130
1.410000	-297.254314
1.420000	-290.748262
1.430000	-287.926912
1.440000	-283.104680
1.450000	-276.303198
1.460000	-267.816329
1.470000	-259.036789
1.480000	-250.212253
1.490000	-239.451725
1.500000	-226.633388
1.510000	-210.884746
1.520000	-194.082012
1.530000	-176.666894
1.540000	-157.211695
1.550000	-136.140109
1.560000	-115.364572
1.570000	-95.294759
1.580000	-74.196910
1.590000	-50.468236
1.600000	-26.725760
1.610000	-4.322951
1.620000	17.734010
1.630000	41.139981
1.640000	66.840993
1.650000	93.245427
1.660000	117.260217
1.670000	143.689142
1.680000	173.652783
1.690000	201.765323
1.700000	219.019286
1.710000	224.514533
1.720000	225.726428
1.730000	226.237561
1.740000	225.072434
1.750000	221.947411
1.760000	218.408593
1.770000	216.310103
1.780000	216.393894
1.790000	215.982467
1.800000	215.039042
1.810000	217.986537
1.820000	225.660658
1.830000	233.295069
1.840000	238.274890
1.850000	241.934681
1.860000	246.879702
1.870000	252.552885
1.880000	257.469431
1.890000	264.169795
1.900000	272.372577
1.910000	282.108914
1.920000	294.266272
1.930000	306.360482
1.940000	320.494453
1.950000	332.583784
1.960000	347.068282
1.970000	361.443755
1.980000	377.309290
1.990000	392.282200
2.000000	406.881176
2.010000	422.780222
2.020000	439.436873
2.030000	457.605195
2.040000	474.305859
2.050000	490.765415
2.060000	506.493976
2.070000	521.584562
2.080000	536.674390
2.090000	556.071400
2.100000	575.823196
2.110000	588.205758
2.120000	588.638645
2.130000	583.361303
2.140000	578.445226
2.150000	573.490787
2.160000	567.575531
2.170000	562.285767
2.180000	559.030732
2.190000	555.395731
2.200000	549.813849
2.210000	543.839955
2.220000	539.925208
2.230000	537.936285
2.240000	534.018972
2.250000	529.372539
2.260000	524.102524
2.270000	520.808511
2.280000	519.171002
2.290000	517.567251
2.300000	517.240432
2.310000	515.642057
2.320000	514.648558
2.330000	513.369195
2.340000	514.058643
2.350000	518.087277
2.360000	524.789892
2.370000	535.470901
2.380000	547.169601
2.390000	560.524625
2.400000	573.869896
2.410000	587.577562
2.420000	602.565332
2.430000	615.947052
2.440000	628.263871
2.450000	639.308192
2.460000	650.627617
2.470000	663.662769
2.480000	678.314202
2.490000	693.675533
2.500000	708.326444
2.510000	725.361091
2.520000	743.988399
2.530000	757.357040
2.540000	758.309863
2.550000	749.373242
2.560000	736.968986
2.570000	722.368893
2.580000	706.286800
2.590000	690.694846
2.600000	677.263917
2.610000	667.012419
2.620000	658.226887
2.630000	649.657896
2.640000	643.191701
2.650000	639.961132
2.660000	637.807228
2.670000	633.588014
2.680000	626.756147
2.690000	620.217225
2.700000	614.357569
2.710000	608.837105
2.720000	604.956065
2.730000	603.113645
2.740000	601.875221
2.750000	600.384027
2.760000	598.120779
2.770000	596.986416
2.780000	597.688301
2.790000	599.911116
2.800000	603.581479
2.810000	607.825143
2.820000	612.802225
2.830000	618.396333
2.840000	625.349776
2.850000	632.286005
2.860000	640.228070
2.870000	648.160744
2.880000	657.436708
2.890000	666.685015
2.900000	676.307062
2.910000	687.869163
2.920000	699.491121
2.930000	711.382044
2.940000	723.998671
2.950000	738.887208
2.960000	749.807269
2.970000	747.372636
2.980000	731.964732
2.990000	708.525758
3.000000	684.450556
3.010000	658.309386
3.020000	632.267445
3.030000	606.742518
3.040000	584.077030
3.050000	562.484822
3.060000	540.541220
3.070000	521.225930
3.080000	505.319167
3.090000	491.280218
3.100000	474.407739
3.110000	452.995118
3.120000	431.164453
3.130000	410.354525
3.140000	393.242853
3.150000	378.019627
3.160000	363.306859
3.170000	350.008483
3.180000	338.687145
3.190000	330.983911
3.200000	323.035649
3.210000	316.958822
3.220000	311.691537
3.230000	309.592294
3.240000	307.648222
3.250000	305.882704
3.260000	305.255792
3.270000	304.815887
3.280000	304.513573
3.290000	303.728274
3.300000	302.754345
3.310000	303.625622
3.320000	305.634139
3.330000	308.837992
3.340000	313.159509
3.350000	317.693736
3.360000	321.663904
3.370000	329.542262
3.380000	340.799284
3.390000	349.687534
3.400000	342.891307
3.410000	318.507933
3.420000	281.311799
3.430000	237.642441
3.440000	193.039582
3.450000	149.743717
3.460000	110.744928
3.470000	75.477071
3.480000	44.093769
3.490000	12.506631
3.500000	-14.558987
3.510000	-37.504023
3.520000	-55.568351
3.530000	-75.896514
3.540000	-100.590987
3.550000	-126.635728
3.560000	-153.648635
3.570000	-178.729464
3.580000	-201.742305
3.590000	-222.518532
3.600000	-239.862234
3.610000	-255.010352
3.620000	-267.674365
3.630000	-277.866376
3.640000	-286.519389
3.650000	-292.748087
3.660000	-296.731666
3.670000	-298.661140
3.680000	-299.310499
3.690000	-299.272292
3.700000	-299.255223
3.710000	-297.576087
3.720000	-296.242936
3.730000	-293.235303
3.740000	-290.942880
3.750000	-287.249226
3.760000	-285.692403
3.770000	-283.948058
3.780000	-279.141718
3.790000	-272.025110
3.800000	-269.643536
3.810000	-285.488707
3.820000	-320.145697
3.830000	-369.976782
3.840000	-423.663120
3.850000	-474.179958
3.860000	-519.564698
3.870000	-559.090387
3.880000	-593.173550
3.890000	-623.040777
3.900000	-648.817378
3.910000	-670.027780
3.920000	-685.163559
3.930000	-699.405266
3.940000	-715.876451
3.950000	-734.814096
3.960000	-753.286822
3.970000	-770.267910
3.980000	-785.405699
3.990000	-797.091819
4.000000	-805.570099
4.010000	-810.287526
4.020000	-812.112604
4.030000	-810.854734
4.040000	-807.365918
4.050000	-801.460569
4.060000	-793.997103
4.070000	-784.772012
4.080000	-774.673328
4.090000	-763.121645
4.100000	-749.725796
4.110000	-734.180742
4.120000	-717.491254
4.130000	-700.950182
4.140000	-683.292726
4.150000	-666.103972
4.160000	-647.795483
4.170000	-626.968425
4.180000	-604.347687
4.190000	-582.548484
4.200000	-559.597831
4.210000	-534.174334
4.220000	-515.922217
4.230000	-516.850922
4.240000	-536.590291
4.250000	-565.212395
4.260000	-596.312620
4.270000	-627.629930
4.280000	-657.080219
4.290000	-680.754001
4.300000	-698.904227
4.310000	-712.592023
4.320000	-728.789621
4.330000	-743.445000
4.340000	-751.383908
4.350000	-754.028141
4.360000	-757.369531
4.370000	-766.320497
4.380000	-773.366593
4.390000	-777.342583
4.400000	-778.078730
4.410000	-777.750160
4.420000	-776.497702
4.430000	-770.860302
4.440000	-762.309376
4.450000	-751.012708
4.460000	-740.509508
4.470000	-728.528369
4.480000	-714.760923
4.490000	-700.427459
4.500000	-684.719330
4.510000	-669.379451
4.520000	-652.714185
4.530000	-634.046779
4.540000	-611.752296
4.550000	-586.098478
4.560000	-559.843062
4.570000	-533.523200
4.580000	-508.648923
4.590000	-482.983352
4.600000	-452.495540
4.610000	-419.172342
4.620000	-385.054570
4.630000	-350.401990
4.640000	-313.988354
4.650000	-283.367871
4.660000	-268.306941
4.670000	-269.353771
4.680000	-277.979210
4.690000	-289.395167
4.700000	-301.036075
4.710000	-313.824572
4.720000	-325.462457
4.730000	-333.966472
4.740000	-341.946349
4.750000	-350.482328
4.760000	-358.134736
4.770000	-360.033436
4.780000	-357.050157
4.790000	-354.307403
4.800000	-353.667727
4.810000	-352.947944
4.820000	-349.996316
4.830000	-345.306594
4.840000	-340.037484
4.850000	-334.707480
4.860000	-327.115080
4.870000	-319.831943
4.880000	-310.222075
4.890000	-300.680492
4.900000	-288.692415
4.910000	-274.914477
4.920000	-260.206600
4.930000	-243.185478
4.940000	-226.775682
4.950000	-208.818805
4.960000	-191.733510
4.970000	-174.485373
4.980000	-159.075618
4.990000	-142.514057
5.000000	-125.135898
5.010000	-105.914587
5.020000	-86.913464
5.030000	-65.678054
5.040000	-42.741124
5.050000	-21.491130
5.060000	-1.265970
5.070000	17.985929
5.080000	37.170133
5.090000	47.394805
5.100000	46.583804
5.110000	38.445207
5.120000	28.628569
5.130000	17.774401
5.140000	4.961719
5.150000	-7.594998
5.160000	-18.414228
5.170000	-29.012926
5.180000	-39.493127
5.190000	-47.464058
5.200000	-48.272407
5.210000	-39.293902
5.220000	-25.779666
5.230000	-14.500813
5.240000	-11.992379
5.250000	-13.716624
5.260000	-14.576077
5.270000	-14.986644
5.280000	-15.198261
5.290000	-11.952512
5.300000	-0.187519
5.310000	20.363213
5.320000	45.773261
5.330000	70.970803
5.340000	93.035085
5.350000	96.505879
5.360000	86.314966
5.370000	76.695339
5.380000	83.896011
5.390000	107.802270
5.400000	130.724655
5.410000	151.584147
5.420000	168.513912
5.430000	185.678818
5.440000	199.912714
5.450000	211.078273
5.460000	220.946671
5.470000	231.775758
5.480000	244.607429
5.490000	258.096941
5.500000	271.901302
5.510000	286.718121
5.520000	304.495856
5.530000	321.621378
5.540000	329.373837
5.550000	325.506640
5.560000	314.902390
5.570000	303.358838
5.580000	292.717929
5.590000	284.508121
5.600000	280.498834
5.610000	279.948635
5.620000	279.570965
5.630000	277.691881
5.640000	272.942321
5.650000	269.749518
5.660000	268.601410
5.670000	267.432107
5.680000	261.886255
5.690000	254.432225
5.700000	249.809533
5.710000	247.048931
5.720000	244.697155
5.730000	240.629537
5.740000	238.900894
5.750000	237.826924
5.760000	238.745544
5.770000	238.979292
5.780000	241.237728
5.790000	245.423414
5.800000	252.699565
5.810000	260.490182
5.820000	269.469969
5.830000	279.855384
5.840000	290.870727
5.850000	302.522533
5.860000	313.567902
5.870000	325.831336
5.880000	338.557934
5.890000	351.107106
5.900000	363.182272
5.910000	375.686237
5.920000	390.776830
5.930000	408.894126
5.940000	425.324072
5.950000	440.750378
5.960000	457.843672
5.970000	476.566117
5.980000	487.638170
5.990000	486.695657
6.000000	477.087505
6.010000	466.136445
6.020000	455.488257
6.030000	443.869566
6.040000	433.866634
6.050000	426.231341
6.060000	422.547654
6.070000	418.878306
6.080000	412.866698
6.090000	409.846735
6.100000	410.138969
6.110000	412.110113
6.120000	410.702132
6.130000	407.358294
6.140000	405.571184
6.150000	404.227394
6.160000	404.078901
6.170000	404.726846
6.180000	406.555585
6.190000	410.193749
6.200000	414.995512
6.210000	420.628218
6.220000	425.398365
6.230000	430.704465
6.240000	437.433050
6.250000	445.076739
6.260000	455.440557
6.270000	465.067643
6.280000	475.093701
6.290000	483.014848
6.300000	492.730667
6.310000	503.582366
6.320000	514.666391
6.330000	526.787267
6.340000	539.564810
6.350000	551.621966
6.360000	559.423088
6.370000	570.452636
6.380000	585.562095
6.390000	601.236834
6.400000	606.646434
6.410000	599.676964
6.420000	584.713845
6.430000	565.413541
6.440000	543.741615
6.450000	524.121757
6.460000	506.722469
6.470000	493.466107
6.480000	480.986657
6.490000	468.114220
6.500000	457.893352
6.510000	450.719188
6.520000	446.429179
6.530000	439.941166
6.540000	430.941816
6.550000	419.126737
6.560000	406.758257
6.570000	394.604807
6.580000	383.872348
6.590000	373.372594
6.600000	364.623339
6.610000	357.765909
6.620000	352.000892
6.630000	344.783408
6.640000	338.353732
6.650000	334.428110
6.660000	333.331220
6.670000	334.364965
6.680000	337.605621
6.690000	343.263463
6.700000	349.836413
6.710000	357.126454
6.720000	364.025433
6.730000	371.622688
6.740000	379.838259
6.750000	390.083178
6.760000	400.936608
6.770000	409.833630
6.780000	417.336451
6.790000	425.881935
6.800000	434.352366
6.810000	433.533631
6.820000	416.667111
6.830000	385.166315
6.840000	344.284063
6.850000	298.087185
6.860000	251.528006
6.870000	208.295591
6.880000	169.722927
6.890000	133.785333
6.900000	99.210245
6.910000	65.901744
6.920000	34.656559
6.930000	8.313413
6.940000	-15.956608
6.950000	-41.319987
6.960000	-71.615993
6.970000	-101.974066
6.980000	-130.327909
6.990000	-157.347382
7.000000	-183.083409
7.010000	-209.103710
7.020000	-231.870624
7.030000	-253.922687
7.040000	-278.372266
7.050000	-303.775558
7.060000	-327.918420
7.070000	-346.001507
7.080000	-359.194698
7.090000	-367.270897
7.100000	-370.519886
7.110000	-369.588968
7.120000	-364.558089
7.130000	-353.950879
7.140000	-340.990852
7.150000	-328.694071
7.160000	-319.470668
7.170000	-310.471734
7.180000	-299.334262
7.190000	-295.330656
7.200000	-298.889725
7.210000	-303.219428
7.220000	-303.166225
7.230000	-317.223201
7.240000	-361.152127
7.250000	-428.884101
7.260000	-501.820882
7.270000	-572.626710
7.280000	-638.887438
7.290000	-702.097842
7.300000	-758.657956
7.310000	-807.627733
7.320000	-849.818228
7.330000	-891.557877
7.340000	-932.010739
7.350000	-962.852848
7.360000	-986.618605
7.370000	-1015.225924
7.380000	-1055.598547
7.390000	-1098.607489
7.400000	-1136.635335
7.410000	-1168.726821
7.420000	-1200.409498
7.430000	-1230.213264
7.440000	-1257.906814
7.450000	-1279.743214
7.460000	-1294.798451
7.470000	-1298.650188
7.480000	-1293.762356
7.490000	-1284.281852
7.500000	-1276.117876
7.510000	-1269.952633
7.520000	-1263.518792
7.530000	-1256.682788
7.540000	-1246.632539
7.550000	-1235.145735
7.560000	-1222.796492
7.570000	-1211.332068
7.580000	-1200.007072
7.590000	-1188.238958
7.600000	-1174.936325
7.610000	-1159.868235
7.620000	-1143.921954
7.630000	-1129.889321
7.640000	-1116.950840
7.650000	-1103.294113
7.660000	-1095.388825
7.670000	-1102.760227
7.680000	-1131.536981
7.690000	-1174.575953
7.700000	-1224.069264
7.710000	-1272.779081
7.720000	-1317.331206
7.730000	-1355.704840
7.740000	-1387.650118
7.750000	-1415.355923
7.760000	-1442.357865
7.770000	-1470.052769
7.780000	-1494.101321
7.790000	-1511.805403
7.800000	-1524.908063
7.810000	-1539.621198
7.820000	-1554.745125
7.830000	-1568.151565
7.840000	-1578.634946
7.850000	-1587.739471
7.860000	-1596.239056
7.870000	-1602.035633
7.880000	-1604.897501
7.890000	-1606.051396
7.900000	-1605.267251
7.910000	-1602.114952
7.920000	-1595.349462
7.930000	-1583.559097
7.940000	-1572.164490
7.950000	-1562.706298
7.960000	-1556.692792
7.970000	-1549.215546
7.980000	-1538.943557
7.990000	-1527.445015
8.000000	-1511.894124
8.010000	-1490.054243
8.020000	-1464.234911
8.030000	-1444.395132
8.040000	-1433.266071
8.050000	-1423.752154
8.060000	-1402.322235
8.070000	-1368.520650
8.080000	-1330.443655
8.090000	-1306.692628
8.100000	-1303.237866
8.110000	-1312.534484
8.120000	-1325.735001
8.130000	-1335.419592
8.140000	-1347.641295
8.150000	-1365.668687
8.160000	-1385.899824
8.170000	-1400.610361
8.180000	-1406.540639
8.190000	-1410.616146
8.200000	-1413.533253
8.210000	-1407.968240
8.220000	-1393.245215
8.230000	-1382.391807
8.240000	-1383.978172
8.250000	-1395.484210
8.260000	-1403.713822
8.270000	-1402.961914
8.280000	-1400.181666
8.290000	-1401.801629
8.300000	-1407.995132
8.310000	-1404.965117
8.320000	-1388.529818
8.330000	-1364.182648
8.340000	-1340.432904
8.350000	-1320.077244
8.360000	-1299.009084
8.370000	-1277.007191
8.380000	-1256.951074
8.390000	-1241.292529
8.400000	-1228.237234
8.410000	-1215.932797
8.420000	-1202.878700
8.430000	-1190.935881
8.440000	-1179.198718
8.450000	-1166.289712
8.460000	-1152.875615
8.470000	-1139.660790
8.480000	-1130.577726
8.490000	-1122.360978
8.500000	-1107.282317
8.510000	-1082.087375
8.520000	-1048.346592
8.530000	-1022.867891
8.540000	-1019.748185
8.550000	-1049.315310
8.560000	-1102.439407
8.570000	-1154.395444
8.580000	-1193.173572
8.590000	-1214.838237
8.600000	-1226.611321
8.610000	-1228.265960
8.620000	-1225.402905
8.630000	-1219.017965
8.640000	-1203.178149
8.650000	-1177.787778
8.660000	-1153.985100
8.670000	-1140.885292
8.680000	-1139.435270
8.690000	-1141.288656
8.700000	-1141.224448
8.710000	-1133.352982
8.720000	-1116.354678
8.730000	-1096.766414
8.740000	-1077.468077
8.750000	-1059.834606
8.760000	-1041.896859
8.770000	-1026.238870
8.780000	-1013.643253
8.790000	-1002.959372
8.800000	-993.043525
8.810000	-986.342568
8.820000	-978.744251
8.830000	-968.048447
8.840000	-953.766062
8.850000	-943.425011
8.860000	-935.744622
8.870000	-924.434364
8.880000	-909.719893
8.890000	-894.094349
8.900000	-879.336525
8.910000	-865.391536
8.920000	-852.261127
8.930000	-837.321562
8.940000	-819.161339
8.950000	-803.910140
8.960000	-804.049056
8.970000	-816.758970
8.980000	-835.226956
8.990000	-851.571556
9.000000	-864.053951
9.010000	-871.349700
9.020000	-875.520188
9.030000	-880.428251
9.040000	-885.936409
9.050000	-891.131149
9.060000	-893.974856
9.070000	-895.800780
9.080000	-896.298419
9.090000	-894.757764
9.100000	-891.578961
9.110000	-892.348394
9.120000	-897.129202
9.130000	-897.532810
9.140000	-889.306592
9.150000	-882.370725
9.160000	-884.090316
9.170000	-883.771164
9.180000	-871.152790
9.190000	-855.501557
9.200000	-850.168228
9.210000	-850.121960
9.220000	-844.105808
9.230000	-830.707385
9.240000	-820.345937
9.250000	-813.200132
9.260000	-803.503912
9.270000	-790.974166
9.280000	-777.599735
9.290000	-768.019129
9.300000	-757.933367
9.310000	-746.334186
9.320000	-729.853603
9.330000	-716.940141
9.340000	-715.028182
9.350000	-724.783314
9.360000	-741.442337
9.370000	-761.215652
9.380000	-783.116014
9.390000	-803.223760
9.400000	-819.377000
9.410000	-832.153860
9.420000	-839.543992
9.430000	-842.670994
9.440000	-842.621280
9.450000	-840.764604
9.460000	-841.614863
9.470000	-845.753694
9.480000	-855.518164
9.490000	-863.954108
9.500000	-872.346212
9.510000	-880.718445
9.520000	-890.744771
9.530000	-899.033440
9.540000	-904.379160
9.550000	-907.582346
9.560000	-907.902960
9.570000	-909.035644
9.580000	-910.639785
9.590000	-912.712534
9.600000	-911.587763
9.610000	-904.946218
9.620000	-896.771354
9.630000	-886.049680
9.640000	-874.511178
