Time(s)	GREEN_denoised_wiener
0.000000	157.295928
0.010000	239.252717
0.020000	239.140504
0.030000	240.480679
0.040000	243.429511
0.050000	248.699129
0.060000	240.996557
0.070000	213.596143
0.080000	171.584114
0.090000	121.484877
0.100000	66.149049
0.110000	9.029097
0.120000	-44.961807
0.130000	-91.441582
0.140000	-132.437344
0.150000	-170.928924
0.160000	-207.587556
0.170000	-241.092112
0.180000	-269.083200
0.190000	-295.287266
0.200000	-324.263347
0.210000	-354.815792
0.220000	-385.793089
0.230000	-413.687613
0.240000	-440.020029
0.250000	-462.231906
0.260000	-480.271148
0.270000	-495.464229
0.280000	-509.541233
0.290000	-523.044759
0.300000	-532.151066
0.310000	-537.322404
0.320000	-539.781933
0.330000	-541.287393
0.340000	-542.429063
0.350000	-540.930902
0.360000	-538.106031
0.370000	-533.924285
0.380000	-528.470458
0.390000	-522.607192
0.400000	-515.852153
0.410000	-509.649924
0.420000	-503.249250
0.430000	-495.713810
0.440000	-486.001278
0.450000	-476.475834
0.460000	-463.425621
0.470000	-446.603260
0.480000	-433.226570
0.490000	-438.107860
0.500000	-465.688893
0.510000	-508.603427
0.520000	-559.173963
0.530000	-611.126651
0.540000	-659.687152
0.550000	-702.012708
0.560000	-737.898639
0.570000	-768.259745
0.580000	-795.806477
0.590000	-818.852972
0.600000	-837.744999
0.610000	-851.467732
0.620000	-868.401426
0.630000	-889.086552
0.640000	-910.406887
0.650000	-929.732598
0.660000	-946.778151
0.670000	-962.407969
0.680000	-973.832342
0.690000	-980.783354
0.700000	-982.244348
0.710000	-981.196368
0.720000	-978.009272
0.730000	-973.303593
0.740000	-964.458909
0.750000	-953.784728
0.760000	-940.594100
0.770000	-927.301574
0.780000	-914.083740
0.790000	-900.844999
0.800000	-887.601069
0.810000	-871.741980
0.820000	-855.158241
0.830000	-836.992269
0.840000	-816.743953
0.850000	-798.616398
0.860000	-781.342253
0.870000	-760.593086
0.880000	-734.976265
0.890000	-711.955089
0.900000	-702.982230
0.910000	-708.982506
0.920000	-726.336709
0.930000	-749.365250
0.940000	-772.719736
0.950000	-791.777609
0.960000	-806.476220
0.970000	-816.884570
0.980000	-824.263520
0.990000	-827.679676
1.000000	-826.746450
1.010000	-821.837619
1.020000	-814.259306
1.030000	-806.359063
1.040000	-799.463268
1.050000	-793.570704
1.060000	-788.025872
1.070000	-782.142622
1.080000	-774.613714
1.090000	-765.077328
1.100000	-751.891474
1.110000	-736.714434
1.120000	-720.861525
1.130000	-704.708755
1.140000	-686.184537
1.150000	-664.399223
1.160000	-641.207868
1.170000	-616.777712
1.180000	-591.591262
1.190000	-565.513570
1.200000	-540.004630
1.210000	-515.605691
1.220000	-490.770911
1.230000	-463.053837
1.240000	-434.574749
1.250000	-409.198303
1.260000	-382.714449
1.270000	-351.702818
1.280000	-319.563936
1.290000	-298.255059
1.300000	-289.409124
1.310000	-287.478132
1.320000	-289.284543
1.330000	-294.398970
1.340000	-301.514261
1.350000	-307.337554
1.360000	-311.107288
1.370000	-311.965385
1.380000	-313.067336
1.390000	-310.930800
1.400000	-305.392130
1.410000	-297.254314
1.420000	-290.748262
1.430000	-287.926912
1.440000	-283.104680
1.450000	-276.303198
1.460000	-267.816329
1.470000	-259.036789
1.480000	-250.212253
1.490000	-239.451725
1.500000	-226.633388
1.510000	-210.884746
1.520000	-194.082012
1.530000	-176.666894
1.540000	-157.211695
1.550000	-136.140109
1.560000	-115.364572
1.570000	-95.294759
1.580000	-74.196910
1.590000	-50.468236
1.600000	-26.725760
1.610000	-4.322951
1.620000	17.734010
1.630000	41.139981
1.640000	66.840993
1.650000	93.245427
1.660000	117.260217
1.670000	143.689142
1.680000	173.652783
1.690000	201.765323
1.700000	219.019286
1.710000	224.514533
1.720000	225.726428
1.730000	226.237561
1.740000	225.072434
1.750000	221.947411
1.760000	218.408593
1.770000	216.310103
1.780000	216.393894
1.790000	215.982467
1.800000	215.039042
1.810000	217.986537
1.820000	225.660658
1.830000	233.295069
1.840000	238.274890
1.850000	241.934681
1.860000	246.879702
1.870000	252.552885
1.880000	257.469431
1.890000	264.169795
1.900000	272.372577
1.910000	282.108914
1.920000	294.266272
1.930000	306.360482
1.940000	320.494453
1.950000	332.583784
1.960000	347.068282
1.970000	361.443755
1.980000	377.309290
1.990000	392.282200
2.000000	406.881176
2.010000	422.780222
2.020000	439.436873
2.030000	457.605195
2.040000	474.305859
2.050000	490.765415
2.060000	506.493976
2.070000	521.584562
2.080000	536.674390
2.090000	556.071400
2.100000	575.823196
2.110000	588.205758
2.120000	588.638645
2.130000	583.361303
2.140000	578.445226
2.150000	573.490787
2.160000	567.575531
2.170000	562.285767
2.180000	559.030732
2.190000	555.395731
2.200000	549.813849
2.210000	543.839955
2.220000	539.925208
2.230000	537.936285
2.240000	534.018972
2.250000	529.372539
2.260000	524.102524
2.270000	520.808511
2.280000	519.171002
2.290000	517.567251
2.300000	517.240432
2.310000	515.642057
2.320000	514.648558
2.330000	513.369195
2.340000	514.058643
2.350000	518.087277
2.360000	524.789892
2.370000	535.470901
2.380000	547.169601
2.390000	560.524625
2.400000	573.869896
2.410000	587.577562
2.420000	602.565332
2.430000	615.947052
2.440000	628.263871
2.450000	639.308192
2.460000	650.627617
2.470000	663.662769
2.480000	678.314202
2.490000	693.675533
2.500000	708.326444
2.510000	725.361091
2.520000	743.988399
2.530000	757.357040
2.540000	758.309863
2.550000	749.373242
2.560000	736.968986
2.570000	722.368893
2.580000	706.286800
2.590000	690.694846
2.600000	677.263917
2.610000	667.012419
2.620000	658.226887
2.630000	649.657896
2.640000	643.191701
2.650000	639.961132
2.660000	637.807228
2.670000	633.588014
2.680000	626.756147
2.690000	620.217225
2.700000	614.357569
2.710000	608.837105
2.720000	604.956065
2.730000	603.113645
2.740000	601.875221
2.750000	600.384027
2.760000	598.120779
2.770000	596.986416
2.780000	597.688301
2.790000	599.911116
2.800000	603.581479
2.810000	607.825143
2.820000	612.802225
2.830000	618.396333
2.840000	625.349776
2.850000	632.286005
2.860000	640.228070
2.870000	648.160744
2.880000	657.436708
2.890000	666.685015
2.900000	676.307062
2.910000	687.869163
2.920000	699.491121
2.930000	711.382044
2.940000	723.998671
2.950000	738.887208
2.960000	749.807269
2.970000	747.372636
2.980000	731.964732
2.990000	708.525758
3.000000	684.450556
3.010000	658.309386
3.020000	632.267445
3.030000	606.742518
3.040000	584.077030
3.050000	562.484822
3.060000	540.541220
3.070000	521.225930
3.080000	505.319167
3.090000	491.280218
3.100000	474.407739
3.110000	452.995118
3.120000	431.164453
3.130000	410.354525
3.140000	393.242853
3.150000	378.019627
3.160000	363.306859
3.170000	350.008483
3.180000	338.687145
3.190000	330.983911
3.200000	323.035649
3.210000	316.958822
3.220000	311.691537
3.230000	309.592294
3.240000	307.648222
3.250000	305.882704
3.260000	305.255792
3.270000	304.815887
3.280000	304.513573
3.290000	303.728274
3.300000	302.754345
3.310000	303.625622
3.320000	305.634139
3.330000	308.837992
3.340000	313.159509
3.350000	317.693736
3.360000	321.663904
3.370000	329.542262
3.380000	340.799284
3.390000	349.687534
3.400000	342.891307
3.410000	318.507933
3.420000	281.311799
3.430000	237.642441
3.440000	193.039582
3.450000	149.743717
3.460000	110.744928
3.470000	75.477071
3.480000	44.093769
3.490000	12.506631
3.500000	-14.558987
3.510000	-37.504023
3.520000	-55.568351
3.530000	-75.896514
3.540000	-100.590987
3.550000	-126.635728
3.560000	-153.648635
3.570000	-178.729464
3.580000	-201.742305
3.590000	-222.518532
3.600000	-239.862234
3.610000	-255.010352
3.620000	-267.674365
3.630000	-277.866376
3.640000	-286.519389
3.650000	-292.748087
3.660000	-296.731666
3.670000	-298.661140
3.680000	-299.310499
3.690000	-299.272292
3.700000	-299.255223
3.710000	-297.576087
3.720000	-296.242936
3.730000	-293.235303
3.740000	-290.942880
3.750000	-287.249226
3.760000	-285.692403
3.770000	-283.948058
3.780000	-279.141718
3.790000	-272.025110
3.800000	-269.643536
3.810000	-285.488707
3.820000	-320.145697
3.830000	-369.976782
3.840000	-423.663120
3.850000	-474.179958
3.860000	-519.564698
3.870000	-559.090387
3.880000	-593.173550
3.890000	-623.040777
3.900000	-648.817378
3.910000	-670.027780
3.920000	-685.163559
3.930000	-699.405266
3.940000	-715.876451
3.950000	-734.814096
3.960000	-753.286822
3.970000	-770.267910
3.980000	-785.405699
3.990000	-797.091819
4.000000	-805.570099
4.010000	-810.287526
4.020000	-812.112604
4.030000	-810.854734
4.040000	-807.365918
4.050000	-801.460569
4.060000	-793.997103
4.070000	-784.772012
4.080000	-774.673328
4.090000	-763.121645
4.100000	-749.725796
4.110000	-734.180742
4.120000	-717.491254
4.130000	-700.950182
4.140000	-683.292726
4.150000	-666.103972
4.160000	-647.795483
4.170000	-626.968425
4.180000	-604.347687
4.190000	-582.548484
4.200000	-559.597831
4.210000	-534.174334
4.220000	-515.922217
4.230000	-516.850922
4.240000	-536.590291
4.250000	-565.212395
4.260000	-596.312620
4.270000	-627.629930
4.280000	-657.080219
4.290000	-680.754001
4.300000	-698.904227
4.310000	-712.592023
4.320000	-728.789621
4.330000	-743.445000
4.340000	-751.383908
4.350000	-754.028141
4.360000	-757.369531
4.370000	-766.320497
4.380000	-773.366593
4.390000	-777.342583
4.400000	-778.078730
4.410000	-777.750160
4.420000	-776.497702
4.430000	-770.860302
4.440000	-762.309376
4.450000	-751.012708
4.460000	-740.509508
4.470000	-728.528369
4.480000	-714.760923
4.490000	-700.427459
4.500000	-684.719330
4.510000	-669.379451
4.520000	-652.714185
4.530000	-634.046779
4.540000	-611.752296
4.550000	-586.098478
4.560000	-559.843062
4.570000	-533.523200
4.580000	-508.648923
4.590000	-482.983352
4.600000	-452.495540
4.610000	-419.172342
4.620000	-385.054570
4.630000	-350.401990
4.640000	-313.988354
4.650000	-283.367871
4.660000	-268.306941
4.670000	-269.353771
4.680000	-277.979210
4.690000	-289.395167
4.700000	-301.036075
4.710000	-313.824572
4.720000	-325.462457
4.730000	-333.966472
4.740000	-341.946349
4.750000	-350.482328
4.760000	-358.134736
4.770000	-360.033436
4.780000	-357.050157
4.790000	-354.307403
4.800000	-353.667727
4.810000	-352.947944
4.820000	-349.996316
4.830000	-345.306594
4.840000	-340.037484
4.850000	-334.707480
4.860000	-327.115080
4.870000	-319.831943
4.880000	-310.222075
4.890000	-300.680492
4.900000	-288.692415
4.910000	-274.914477
4.920000	-260.206600
4.930000	-243.185478
4.940000	-226.775682
4.950000	-208.818805
4.960000	-191.733510
4.970000	-174.485373
4.980000	-159.075618
4.990000	-142.514057
5.000000	-125.135898
5.010000	-105.914587
5.020000	-86.913464
5.030000	-65.678054
5.040000	-42.741124
5.050000	-21.491130
5.060000	-1.265970
5.070000	17.985929
5.080000	37.170133
5.090000	47.394805
5.100000	46.583804
5.110000	38.445207
5.120000	28.628569
5.130000	17.774401
5.140000	4.961719
5.150000	-7.594998
5.160000	-18.414228
5.170000	-29.012926
5.180000	-39.493127
5.190000	-47.464058
5.200000	-48.272407
5.210000	-39.293902
5.220000	-25.779666
5.230000	-14.500813
5.240000	-11.992379
5.250000	-13.716624
5.260000	-14.576077
5.270000	-14.986644
5.280000	-15.198261
5.290000	-11.952512
5.300000	-0.187519
5.310000	20.363213
5.320000	45.773261
5.330000	70.970803
5.340000	93.035085
5.350000	96.505879
5.360000	86.314966
5.370000	76.695339
5.380000	83.896011
5.390000	107.802270
5.400000	130.724655
5.410000	151.584147
5.420000	168.513912
5.430000	185.678818
5.440000	199.912714
5.450000	211.078273
5.460000	220.946671
5.470000	231.775758
5.480000	244.607429
5.490000	258.096941
5.500000	271.901302
5.510000	286.718121
5.520000	304.495856
5.530000	321.621378
5.540000	329.373837
5.550000	325.506640
5.560000	314.902390
5.570000	303.358838
5.580000	292.717929
5.590000	284.508121
5.600000	280.498834
5.610000	279.948635
5.620000	279.570965
5.630000	277.691881
5.640000	272.942321
5.650000	269.749518
5.660000	268.601410
5.670000	267.432107
5.680000	261.886255
5.690000	254.432225
5.700000	249.809533
5.710000	247.048931
5.720000	244.697155
5.730000	240.629537
5.740000	238.900894
5.750000	237.826924
5.760000	238.745544
5.770000	238.979292
5.780000	241.237728
5.790000	245.423414
5.800000	252.699565
5.810000	260.490182
5.820000	269.469969
5.830000	279.855384
5.840000	290.870727
5.850000	302.522533
5.860000	313.567902
5.870000	325.831336
5.880000	338.557934
5.890000	351.107106
5.900000	363.182272
5.910000	375.686237
5.920000	390.776830
5.930000	408.894126
5.940000	425.324072
5.950000	440.750378
5.960000	457.843672
5.970000	476.566117
5.980000	487.638170
5.990000	486.695657
6.000000	477.087505
6.010000	466.136445
6.020000	455.488257
6.030000	443.869566
6.040000	433.866634
6.050000	426.231341
6.060000	422.547654
6.070000	418.878306
6.080000	412.866698
6.090000	409.846735
6.100000	410.138969
6.110000	412.110113
6.120000	410.702132
6.130000	407.358294
6.140000	405.571184
6.150000	404.227394
6.160000	404.078901
6.170000	404.726846
6.180000	406.555585
6.190000	410.193749
6.200000	414.995512
6.210000	420.628218
6.220000	425.398365
6.230000	430.704465
6.240000	437.433050
6.250000	445.076739
6.260000	455.440557
6.270000	465.067643
6.280000	475.093701
6.290000	483.014848
6.300000	492.730667
6.310000	503.582366
6.320000	514.666391
6.330000	526.787267
6.340000	539.564810
6.350000	551.621966
6.360000	559.423088
6.370000	570.452636
6.380000	585.562095
6.390000	601.236834
6.400000	606.646434
6.410000	599.676964
6.420000	584.713845
6.430000	565.413541
6.440000	543.741615
6.450000	524.121757
6.460000	506.722469
6.470000	493.466107
6.480000	480.986657
6.490000	468.114220
6.500000	457.893352
6.510000	450.719188
6.520000	446.429179
6.530000	439.941166
6.540000	430.941816
6.550000	419.126737
6.560000	406.758257
6.570000	394.604807
6.580000	383.872348
6.590000	373.372594
6.600000	364.623339
6.610000	357.765909
6.620000	352.000892
6.630000	344.783408
6.640000	338.353732
6.650000	334.428110
6.660000	333.331220
6.670000	334.364965
6.680000	337.605621
6.690000	343.263463
6.700000	349.836413
6.710000	357.126454
6.720000	364.025433
6.730000	371.622688
6.740000	379.838259
6.750000	390.083178
6.760000	400.936608
6.770000	409.833630
6.780000	417.336451
6.790000	425.881935
6.800000	434.352366
6.810000	433.533631
6.820000	416.667111
6.830000	385.166315
6.840000	344.284063
6.850000	298.087185
6.860000	251.528006
6.870000	208.295591
6.880000	169.722927
6.890000	133.785333
6.900000	99.210245
6.910000	65.901744
6.920000	34.656559
6.930000	8.313413
6.940000	-15.956608
6.950000	-41.319987
6.960000	-71.615993
6.970000	-101.974066
6.980000	-130.327909
6.990000	-157.347382
7.000000	-183.083409
7.010000	-209.103710
7.020000	-231.870624
7.030000	-253.922687
7.040000	-278.372266
7.050000	-303.775558
7.060000	-327.918420
7.070000	-346.001507
7.080000	-359.194698
7.090000	-367.270897
7.100000	-370.519886
7.110000	-369.588968
7.120000	-364.558089
7.130000	-353.950879
7.140000	-340.990852
7.150000	-328.694071
7.160000	-319.470668
7.170000	-310.471734
7.180000	-299.334262
7.190000	-295.330656
7.200000	-298.889725
7.210000	-303.219428
7.220000	-303.166225
7.230000	-317.223201
7.240000	-361.152127
7.250000	-428.884101
7.260000	-501.820882
7.270000	-572.626710
7.280000	-638.887438
7.290000	-702.097842
7.300000	-758.657956
7.310000	-807.627733
7.320000	-849.818228
7.330000	-891.557877
7.340000	-932.010739
7.350000	-962.852848
7.360000	-986.618605
7.370000	-1015.225924
7.380000	-1055.598547
7.390000	-1098.607489
7.400000	-1136.635335
7.410000	-1168.726821
7.420000	-1200.409498
7.430000	-1230.213264
7.440000	-1257.906814
7.450000	-1279.743214
7.460000	-1294.798451
7.470000	-1298.650188
7.480000	-1293.762356
7.490000	-1284.281852
7.500000	-1276.117876
7.510000	-1269.952633
7.520000	-1263.518792
7.530000	-1256.682788
7.540000	-1246.632539
7.550000	-1235.145735
7.560000	-1222.796492
7.570000	-1211.332068
7.580000	-1200.007072
7.590000	-1188.238958
7.600000	-1174.936325
7.610000	-1159.868235
7.620000	-1143.921954
7.630000	-1129.889321
7.640000	-1116.950840
7.650000	-1103.294113
7.660000	-1095.388825
7.670000	-1102.760227
7.680000	-1131.536981
7.690000	-1174.575953
7.700000	-1224.069264
7.710000	-1272.779081
7.720000	-1317.331206
7.730000	-1355.704840
7.740000	-1387.650118
7.750000	-1415.355923
7.760000	-1442.357865
7.770000	-1470.052769
7.780000	-1494.101321
7.790000	-1511.805403
7.800000	-1524.908063
7.810000	-1539.621198
7.820000	-1554.745125
7.830000	-1568.151565
7.840000	-1578.634946
7.850000	-1587.739471
7.860000	-1596.239056
7.870000	-1602.035633
7.880000	-1604.897501
7.890000	-1606.051396
7.900000	-1605.267251
7.910000	-1602.114952
7.920000	-1595.349462
7.930000	-1583.559097
7.940000	-1572.164490
7.950000	-1562.706298
7.960000	-1556.692792
7.970000	-1549.215546
7.980000	-1538.943557
7.990000	-1527.445015
8.000000	-1511.894124
8.010000	-1490.054243
8.020000	-1464.234911
8.030000	-1444.395132
8.040000	-1433.266071
8.050000	-1423.752154
8.060000	-1402.322235
8.070000	-1368.520650
8.080000	-1330.443655
8.090000	-1306.692628
8.100000	-1303.237866
8.110000	-1312.534484
8.120000	-1325.735001
8.130000	-1335.419592
8.140000	-1347.641295
8.150000	-1365.668687
8.160000	-1385.899824
8.170000	-1400.610361
8.180000	-1406.540639
8.190000	-1410.616146
8.200000	-1413.533253
8.210000	-1407.968240
8.220000	-1393.245215
8.230000	-1382.391807
8.240000	-1383.978172
8.250000	-1395.484210
8.260000	-1403.713822
8.270000	-1402.961914
8.280000	-1400.181666
8.290000	-1401.801629
8.300000	-1407.995132
8.310000	-1404.965117
8.320000	-1388.529818
8.330000	-1364.182648
8.340000	-1340.432904
8.350000	-1320.077244
8.360000	-1299.009084
8.370000	-1277.007191
8.380000	-1256.951074
8.390000	-1241.292529
8.400000	-1228.237234
8.410000	-1215.932797
8.420000	-1202.878700
8.430000	-1190.935881
8.440000	-1179.198718
8.450000	-1166.289712
8.460000	-1152.875615
8.470000	-1139.660790
8.480000	-1130.577726
8.490000	-1122.360978
8.500000	-1107.282317
8.510000	-1082.087375
8.520000	-1048.346592
8.530000	-1022.867891
8.540000	-1019.748185
8.550000	-1049.315310
8.560000	-1102.439407
8.570000	-1154.395444
8.580000	-1193.173572
8.590000	-1214.838237
8.600000	-1226.611321
8.610000	-1228.265960
8.620000	-1225.402905
8.630000	-1219.017965
8.640000	-1203.178149
8.650000	-1177.787778
8.660000	-1153.985100
8.670000	-1140.885292
8.680000	-1139.435270
8.690000	-1141.288656
8.700000	-1141.224448
8.710000	-1133.352982
8.720000	-1116.354678
8.730000	-1096.766414
8.740000	-1077.468077
8.750000	-1059.834606
8.760000	-1041.896859
8.770000	-1026.238870
8.780000	-1013.643253
8.790000	-1002.959372
8.800000	-993.043525
8.810000	-986.342568
8.820000	-978.744251
8.830000	-968.048447
8.840000	-953.766062
8.850000	-943.425011
8.860000	-935.744622
8.870000	-924.434364
8.880000	-909.719893
8.890000	-894.094349
8.900000	-879.336525
8.910000	-865.391536
8.920000	-852.261127
8.930000	-837.321562
8.940000	-819.161339
8.950000	-803.910140
8.960000	-804.049056
8.970000	-816.758970
8.980000	-835.226956
8.990000	-851.571556
9.000000	-864.053951
9.010000	-871.349700
9.020000	-875.520188
9.030000	-880.428251
9.040000	-885.936409
9.050000	-891.131149
9.060000	-893.974856
9.070000	-895.800780
9.080000	-896.298419
9.090000	-894.757764
9.100000	-891.578961
9.110000	-892.348394
9.120000	-897.129202
9.130000	-897.532810
9.140000	-889.306592
9.150000	-882.370725
9.160000	-884.090316
9.170000	-883.771164
9.180000	-871.152790
9.190000	-855.501557
9.200000	-850.168228
9.210000	-850.121960
9.220000	-844.105808
9.230000	-830.707385
9.240000	-820.345937
9.250000	-813.200132
9.260000	-803.503912
9.270000	-790.974166
9.280000	-777.599735
9.290000	-768.019129
9.300000	-757.933367
9.310000	-746.334186
9.320000	-729.853603
9.330000	-716.940141
9.340000	-715.028182
9.350000	-724.783314
9.360000	-741.442337
9.370000	-761.215652
9.380000	-783.116014
9.390000	-803.223760
9.400000	-819.377000
9.410000	-832.153860
9.420000	-839.543992
9.430000	-842.670994
9.440000	-842.621280
9.450000	-840.764604
9.460000	-841.614863
9.470000	-845.753694
9.480000	-855.518164
9.490000	-863.954108
9.500000	-872.346212
9.510000	-880.718445
9.520000	-890.744771
9.530000	-899.033440
9.540000	-904.379160
9.550000	-907.582346
9.560000	-907.902960
9.570000	-909.035644
9.580000	-910.639785
9.590000	-912.712534
9.600000	-911.587763
9.610000	-904.946218
9.620000	-896.771354
9.630000	-886.049680
9.640000	-874.511178
9.650000	-862.697097
9.660000	-849.793016
9.670000	-833.217244
9.680000	-814.963512
9.690000	-807.306887
9.700000	-816.657654
9.710000	-837.903128
9.720000	-862.880149
9.730000	-887.713024
9.740000	-911.644899
9.750000	-935.058208
9.760000	-957.604933
9.770000	-977.595456
9.780000	-993.760323
9.790000	-1007.666478
9.800000	-1021.441678
9.810000	-1036.257733
9.820000	-1051.974048
9.830000	-1070.039731
9.840000	-1088.348112
9.850000	-1105.005515
9.860000	-1122.248458
9.870000	-1142.150854
9.880000	-1163.317666
9.890000	-1181.465030
9.900000	-1193.899722
9.910000	-1202.298054
9.920000	-1210.325782
9.930000	-1216.620829
9.940000	-1220.589192
9.950000	-1220.440562
9.960000	-1215.688088
9.970000	-1207.762457
9.980000	-1195.608702
9.990000	-1181.253001
10.000000	-1167.356211
10.010000	-1157.235458
10.020000	-1148.910902
10.030000	-1138.365662
10.040000	-1129.639331
10.050000	-1136.672935
10.060000	-1166.496912
10.070000	-1211.085236
10.080000	-1261.162351
10.090000	-1314.994442
10.100000	-1376.317230
10.110000	-1438.013142
10.120000	-1487.260625
10.130000	-1515.512634
10.140000	-1535.396086
10.150000	-1556.134875
10.160000	-1576.299224
10.170000	-1586.196189
10.180000	-1585.354281
10.190000	-1578.061982
10.200000	-1561.178473
10.210000	-1535.726877
10.220000	-1508.470881
10.230000	-1489.183929
10.240000	-1479.857236
10.250000	-1482.420888
10.260000	-1496.348329
10.270000	-1522.103455
10.280000	-1553.595703
10.290000	-1588.903138
10.300000	-1620.932580
10.310000	-1650.827181
10.320000	-1672.348943
10.330000	-1689.543907
10.340000	-1705.525182
10.350000	-1724.691259
10.360000	-1744.440604
10.370000	-1757.248133
10.380000	-1766.807844
10.390000	-1770.874313
10.400000	-1770.935559
10.410000	-1771.590517
10.420000	-1788.506404
10.430000	-1830.364834
10.440000	-1888.437957
10.450000	-1951.204553
10.460000	-2010.783786
10.470000	-2066.466104
10.480000	-2118.532317
10.490000	-2164.451079
10.500000	-2203.347700
10.510000	-2236.836332
10.520000	-2264.883126
10.530000	-2284.937022
10.540000	-2296.143328
10.550000	-2304.775158
10.560000	-2316.450671
10.570000	-2329.306074
10.580000	-2344.143042
10.590000	-2357.868362
10.600000	-2373.224524
10.610000	-2385.781698
10.620000	-2394.349969
10.630000	-2397.727704
10.640000	-2397.179178
10.650000	-2396.374915
10.660000	-2393.351768
10.670000	-2387.381951
10.680000	-2378.547242
10.690000	-2366.071504
10.700000	-2351.431308
10.710000	-2337.778916
10.720000	-2328.326297
10.730000	-2321.815630
10.740000	-2314.219397
10.750000	-2301.522222
10.760000	-2286.799261
10.770000	-2273.561396
10.780000	-2260.360973
10.790000	-2246.930011
10.800000	-2241.603235
10.810000	-2259.304352
10.820000	-2301.125829
10.830000	-2357.632108
10.840000	-2421.634256
10.850000	-2485.602574
10.860000	-2535.097985
10.870000	-2559.555246
10.880000	-2561.900942
10.890000	-2553.162927
10.900000	-2550.350324
10.910000	-2568.392117
10.920000	-2598.358606
10.930000	-2618.206911
10.940000	-2622.364254
10.950000	-2624.022533
10.960000	-2623.614623
10.970000	-2612.757499
10.980000	-2593.500983
10.990000	-2579.127747
11.000000	-2564.939463
11.010000	-2544.090666
11.020000	-2519.667502
11.030000	-2497.319937
11.040000	-2483.654493
11.050000	-2470.762664
11.060000	-2454.568982
11.070000	-2430.785412
11.080000	-2407.093904
11.090000	-2386.035198
11.100000	-2364.173826
11.110000	-2336.849941
11.120000	-2300.822856
11.130000	-2262.252591
11.140000	-2226.027342
11.150000	-2190.526494
11.160000	-2155.454765
11.170000	-2125.363158
11.180000	-2113.786452
11.190000	-2122.711151
11.200000	-2141.289383
11.210000	-2161.938039
11.220000	-2178.663358
11.230000	-2191.712151
11.240000	-2198.222271
11.250000	-2197.682912
11.260000	-2190.637636
11.270000	-2180.177577
11.280000	-2167.895798
11.290000	-2155.181918
11.300000	-2141.990230
11.310000	-2130.362169
11.320000	-2119.577204
11.330000	-2110.042248
11.340000	-2098.647841
11.350000	-2084.886036
11.360000	-2067.870568
11.370000	-2047.882712
11.380000	-2027.245120
11.390000	-2004.344655
11.400000	-1980.433465
11.410000	-1953.934583
11.420000	-1926.763645
11.430000	-1900.318473
11.440000	-1871.874349
11.450000	-1843.838088
11.460000	-1817.767458
11.470000	-1797.144151
11.480000	-1776.413327
11.490000	-1750.559012
11.500000	-1716.835809
11.510000	-1680.094830
11.520000	-1641.678451
11.530000	-1600.383146
11.540000	-1558.285945
11.550000	-1523.774308
11.560000	-1507.314325
11.570000	-1502.864963
11.580000	-1503.414514
11.590000	-1501.023846
11.600000	-1496.271833
11.610000	-1487.907721
11.620000	-1474.855922
11.630000	-1458.520961
11.640000	-1440.158409
11.650000	-1420.514521
11.660000	-1397.497724
11.670000	-1371.555906
11.680000	-1348.221406
11.690000	-1329.286963
11.700000	-1312.296228
11.710000	-1291.033367
11.720000	-1267.749495
11.730000	-1243.126825
11.740000	-1216.880973
11.750000	-1187.560773
11.760000	-1157.362315
11.770000	-1129.333050
11.780000	-1100.826814
11.790000	-1069.434237
11.800000	-1034.286593
11.810000	-997.196620
11.820000	-959.060463
11.830000	-921.941587
11.840000	-884.801288
11.850000	-847.326781
11.860000	-806.168090
11.870000	-766.365419
11.880000	-727.479649
11.890000	-688.357972
11.900000	-650.416872
11.910000	-625.660941
11.920000	-619.613685
11.930000	-620.857488
11.940000	-616.743273
11.950000	-603.343524
11.960000	-585.826083
11.970000	-562.401396
11.980000	-532.164967
11.990000	-499.389826
12.000000	-480.783701
12.010000	-480.251479
12.020000	-480.916429
12.030000	-463.339851
12.040000	-430.005804
12.050000	-384.991709
12.060000	-326.300280
12.070000	-262.557201
12.080000	-220.859279
12.090000	-202.929460
12.100000	-173.856785
12.110000	-115.883953
12.120000	-47.150668
12.130000	0.262820
12.140000	30.799324
12.150000	63.931775
12.160000	108.204207
12.170000	153.705622
12.180000	191.772099
12.190000	226.344346
12.200000	261.507984
12.210000	294.803356
12.220000	327.095266
12.230000	362.785012
12.240000	400.516999
12.250000	432.603536
12.260000	456.143465
12.270000	476.974973
12.280000	498.964081
12.290000	522.206273
12.300000	544.987260
12.310000	566.986248
12.320000	586.889871
12.330000	606.995604
12.340000	626.340292
12.350000	647.241369
12.360000	671.353587
12.370000	698.049519
12.380000	721.926373
12.390000	741.444835
12.400000	763.435984
12.410000	790.746986
12.420000	820.518299
12.430000	851.980521
12.440000	884.864894
12.450000	919.148223
12.460000	954.147084
12.470000	988.923211
12.480000	1027.387818
12.490000	1066.294329
12.500000	1106.927346
12.510000	1146.611474
12.520000	1186.103751
12.530000	1228.232295
12.540000	1271.236072
12.550000	1313.492543
12.560000	1353.344528
12.570000	1397.088041
12.580000	1443.081757
12.590000	1478.975192
12.600000	1495.819881
12.610000	1498.896784
12.620000	1502.916396
12.630000	1513.462926
12.640000	1529.668586
12.650000	1548.700838
12.660000	1570.108244
12.670000	1592.621185
12.680000	1613.231553
12.690000	1634.916795
12.700000	1661.051832
12.710000	1693.908969
12.720000	1725.881607
12.730000	1753.619822
12.740000	1778.100602
12.750000	1806.060836
12.760000	1838.354774
12.770000	1872.882050
12.780000	1905.996653
12.790000	1938.778490
12.800000	1976.382253
12.810000	2017.058766
12.820000	2057.169049
12.830000	2093.750866
12.840000	2133.395616
12.850000	2178.515237
12.860000	2225.693465
12.870000	2273.709789
12.880000	2319.747929
12.890000	2366.015970
12.900000	2413.232949
12.910000	2459.085272
12.920000	2507.510043
12.930000	2557.251992
12.940000	2606.233316
12.950000	2639.167615
12.960000	2648.098631
12.970000	2646.935245
12.980000	2649.759735
12.990000	2658.802313
13.000000	2667.532095
13.010000	2677.496868
13.020000	2695.794960
13.030000	2719.642819
13.040000	2743.866391
13.050000	2766.950530
13.060000	2795.114003
13.070000	2828.733679
13.080000	2863.175863
13.090000	2893.681000
13.100000	2921.421692
13.110000	2953.816294
13.120000	2990.486715
13.130000	3029.123327
13.140000	3064.390224
13.150000	3098.634660
13.160000	3137.154749
13.170000	3180.990239
13.180000	3227.434603
13.190000	3273.540432
13.200000	3320.256738
13.210000	3371.299420
13.220000	3426.605954
13.230000	3482.254844
13.240000	3536.504415
13.250000	3591.767803
13.260000	3648.613443
13.270000	3703.487899
13.280000	3755.952285
13.290000	3810.779680
13.300000	3869.174785
13.310000	3929.292608
13.320000	3979.937165
13.330000	4015.723077
13.340000	4035.281484
13.350000	4045.081948
13.360000	4056.548895
13.370000	4071.326024
13.380000	4091.064286
13.390000	4110.468181
13.400000	4127.508317
13.410000	4138.862272
13.420000	4145.889816
13.430000	4159.208832
13.440000	4185.857597
13.450000	4218.781844
13.460000	4246.079576
13.470000	4265.985873
13.480000	4290.277557
13.490000	4324.112807
13.500000	4366.735960
13.510000	4416.181973
13.520000	4474.820685
13.530000	4542.193285
13.540000	4608.832724
13.550000	4666.495459
13.560000	4715.491172
13.570000	4764.445445
13.580000	4819.436287
13.590000	4878.335219
13.600000	4937.341103
13.610000	4994.863964
13.620000	5053.559049
13.630000	5115.026490
13.640000	5173.060747
13.650000	5227.846904
13.660000	5280.540560
13.670000	5332.311222
13.680000	5377.647605
13.690000	5413.763623
13.700000	5442.081791
13.710000	5469.882645
13.720000	5500.824810
13.730000	5540.661081
13.740000	5586.866938
13.750000	5633.754152
13.760000	5678.575247
13.770000	5722.517544
13.780000	5772.627204
13.790000	5829.592371
13.800000	5888.995339
13.810000	5943.657752
13.820000	5993.382016
13.830000	6040.731282
13.840000	6090.108805
13.850000	6141.127833
13.860000	6195.177735
13.870000	6252.860530
13.880000	6316.590957
13.890000	6384.588654
13.900000	6454.343389
13.910000	6523.325496
13.920000	6592.782482
13.930000	6664.407325
13.940000	6739.565208
13.950000	6819.500752
13.960000	6906.028783
13.970000	6999.937954
13.980000	7099.833557
13.990000	7203.721265
14.000000	7305.308129
14.010000	7401.528849
14.020000	7494.145128
14.030000	7584.685342
14.040000	7667.646030
14.050000	7735.519837
14.060000	7785.176033
14.070000	7825.070093
14.080000	7864.057886
14.090000	7909.299873
14.100000	7961.940778
14.110000	8017.531851
14.120000	8073.513033
14.130000	8128.116747
14.140000	8183.780763
14.150000	8246.060597
14.160000	8312.042037
14.170000	8380.692786
14.180000	8452.991651
14.190000	8530.341885
14.200000	8612.953273
14.210000	8694.654900
14.220000	8778.955693
14.230000	8866.974947
14.240000	8959.302915
14.250000	9054.301067
14.260000	9149.325455
14.270000	9243.643011
14.280000	9336.691480
14.290000	9430.333680
14.300000	9529.406728
14.310000	9637.694777
14.320000	9754.782638
14.330000	9877.051419
14.340000	10000.493913
14.350000	10122.079200
14.360000	10237.201285
14.370000	10352.135861
14.380000	10473.239713
14.390000	10609.863355
14.400000	10757.567922
14.410000	10903.894790
14.420000	11033.880131
14.430000	11138.598537
14.440000	11222.215468
14.450000	11292.296839
14.460000	11358.205597
14.470000	11424.295810
14.480000	11492.167087
14.490000	11559.928551
14.500000	11630.783616
14.510000	11706.529430
14.520000	11786.028300
14.530000	11868.097209
14.540000	11954.579055
14.550000	12045.622088
14.560000	12138.748272
14.570000	12231.770622
14.580000	12327.885570
14.590000	12429.534072
14.600000	12534.624362
14.610000	12640.907912
14.620000	12747.975825
14.630000	12856.221629
14.640000	12964.925211
14.650000	13071.460988
14.660000	13178.483124
14.670000	13286.618540
14.680000	13395.291146
14.690000	13502.689015
14.700000	13608.348678
14.710000	13714.675914
14.720000	13820.968872
14.730000	13927.231854
14.740000	14033.151109
14.750000	14140.686017
14.760000	14251.219387
14.770000	14366.023056
14.780000	14481.151986
14.790000	14595.909713
14.800000	14709.286375
14.810000	14817.653695
14.820000	14914.940347
14.830000	14998.929575
14.840000	15078.808541
14.850000	15163.716387
14.860000	15260.509603
14.870000	15366.310244
14.880000	15476.032932
14.890000	15584.727257
14.900000	15692.386983
14.910000	15802.966552
14.920000	15919.209947
14.930000	16038.992112
14.940000	16159.825520
14.950000	16285.154771
14.960000	16415.547769
14.970000	16549.754015
14.980000	16676.678123
14.990000	16802.830224
15.000000	16935.231853
15.010000	17074.972034
15.020000	17212.163818
15.030000	17334.508648
15.040000	17458.903673
15.050000	17594.076694
15.060000	17742.004915
15.070000	17882.957660
15.080000	18015.855767
15.090000	18149.556698
15.100000	18286.705956
15.110000	18421.808614
15.120000	18547.886031
15.130000	18675.768684
15.140000	18809.030580
15.150000	18947.026618
15.160000	19083.460659
15.170000	19216.255337
15.180000	19348.856468
15.190000	19472.392029
15.200000	19588.213284
15.210000	19701.463067
15.220000	19824.170495
15.230000	19956.406836
15.240000	20095.683553
15.250000	20226.535020
15.260000	20348.113875
15.270000	20466.215494
15.280000	20582.724304
15.290000	20719.799178
15.300000	20899.839469
15.310000	21114.793057
15.320000	21308.305425
15.330000	21433.953832
15.340000	21508.072731
15.350000	21560.603526
15.360000	21635.652919
15.370000	21738.910646
15.380000	21816.487907
15.390000	21789.222147
15.400000	21644.568222
15.410000	21462.839471
15.420000	21329.702306
15.430000	21258.953285
15.440000	21192.320354
15.450000	21078.422485
15.460000	20939.464724
15.470000	20833.635683
15.480000	20800.189747
15.490000	20782.873244
15.500000	20709.478195
15.510000	20677.170347
15.520000	20728.865623
15.530000	20833.164827
15.540000	20842.154570
15.550000	20751.762493
15.560000	20644.876930
15.570000	20484.210980
15.580000	20248.142734
15.590000	19952.916622
15.600000	19691.090560
15.610000	19474.191272
15.620000	19310.807573
15.630000	19159.758713
15.640000	19045.787245
15.650000	18964.981037
15.660000	18892.762278
15.670000	18785.521628
15.680000	18639.201448
15.690000	18414.639487
15.700000	18126.780978
15.710000	17782.377875
15.720000	17488.597171
15.730000	17237.411794
15.740000	17002.626329
15.750000	16709.225325
15.760000	16400.210722
15.770000	16101.540422
15.780000	15866.067884
15.790000	15528.104590
15.800000	15020.027348
15.810000	14236.715611
15.820000	13402.023662
15.830000	11879.747739
15.840000	9352.569536
15.850000	5409.391273
15.860000	3667.372361
15.870000	3498.605718
15.880000	4073.565675
15.890000	4802.581599
15.900000	5358.812513
15.910000	4988.031552
15.920000	3978.887858
15.930000	2833.013537
15.940000	2889.526671
15.950000	3482.735243
15.960000	2483.304990
15.970000	-1270.226470
15.980000	-9168.121315
15.990000	-15410.641745
16.000000	-18777.402005
16.010000	-20834.500135
16.020000	-22113.698795
16.030000	-23083.952556
16.040000	-23946.501581
16.050000	-24454.097825
16.060000	-24585.198824
16.070000	-24645.766888
16.080000	-24635.027455
16.090000	-24578.498128
16.100000	-24395.236261
16.110000	-24236.889900
16.120000	-24109.415592
16.130000	-24085.852083
16.140000	-24058.165764
16.150000	-24006.473067
16.160000	-23930.066999
16.170000	-23838.234780
16.180000	-23766.835899
16.190000	-23706.013534
16.200000	-23619.689825
16.210000	-23519.093553
16.220000	-23404.365440
16.230000	-23298.435638
16.240000	-23188.823787
16.250000	-23077.377435
16.260000	-22957.165273
16.270000	-22839.623679
16.280000	-22720.731572
16.290000	-22604.839980
16.300000	-22486.898763
16.310000	-22370.720177
16.320000	-22253.700590
16.330000	-22138.279043
16.340000	-22017.821404
16.350000	-21891.877752
16.360000	-21759.977164
16.370000	-21631.884920
16.380000	-21506.829534
16.390000	-21375.940463
16.400000	-21237.116048
16.410000	-21098.785284
16.420000	-20968.170938
16.430000	-20834.363191
16.440000	-20692.035121
16.450000	-20559.143281
16.460000	-20434.662879
16.470000	-20309.393972
16.480000	-20182.483837
16.490000	-20061.849449
16.500000	-19942.460231
16.510000	-19828.197238
16.520000	-19680.865609
16.530000	-19521.595774
16.540000	-19356.794821
16.550000	-19220.978795
16.560000	-19137.276260
16.570000	-19062.773364
16.580000	-19015.861664
16.590000	-18990.445458
16.600000	-18980.400848
16.610000	-18950.667555
16.620000	-18871.258952
16.630000	-18766.352124
16.640000	-18656.094965
16.650000	-18546.328190
16.660000	-18435.583398
16.670000	-18323.989391
16.680000	-18212.763705
16.690000	-18102.679609
16.700000	-17994.314953
16.710000	-17886.076469
16.720000	-17776.587080
16.730000	-17665.871700
16.740000	-17554.596280
16.750000	-17443.743793
16.760000	-17330.010264
16.770000	-17212.379188
16.780000	-17092.529021
16.790000	-16975.461324
16.800000	-16862.147793
16.810000	-16748.981997
16.820000	-16629.215637
16.830000	-16498.640502
16.840000	-16358.101261
16.850000	-16214.459042
16.860000	-16077.477877
16.870000	-15954.426486
16.880000	-15846.332412
16.890000	-15746.206177
16.900000	-15646.692648
16.910000	-15538.827156
16.920000	-15415.241886
16.930000	-15274.654945
16.940000	-15129.357210
16.950000	-14995.026127
16.960000	-14875.980617
16.970000	-14760.230221
16.980000	-14631.474895
16.990000	-14484.351971
17.000000	-14325.561403
17.010000	-14174.739743
17.020000	-14039.850976
17.030000	-13911.319010
17.040000	-13776.375909
17.050000	-13635.516534
17.060000	-13502.523451
17.070000	-13387.293695
17.080000	-13296.255887
17.090000	-13234.666084
17.100000	-13198.231154
17.110000	-13178.299422
17.120000	-13167.820852
17.130000	-13153.863665
17.140000	-13109.322295
17.150000	-13003.371899
17.160000	-12845.893193
17.170000	-12689.291286
17.180000	-12584.424154
17.190000	-12533.377569
17.200000	-12505.502519
17.210000	-12479.463127
17.220000	-12449.266359
17.230000	-12407.524414
17.240000	-12334.645721
17.250000	-12237.978138
17.260000	-12134.372291
17.270000	-12031.062475
17.280000	-11919.047133
17.290000	-11783.793584
17.300000	-11642.139121
17.310000	-11519.548324
17.320000	-11439.227052
17.330000	-11395.895776
17.340000	-11356.578592
17.350000	-11288.585687
17.360000	-11184.008458
17.370000	-11062.363036
17.380000	-10952.143544
17.390000	-10869.789548
17.400000	-10809.902565
17.410000	-10754.867997
17.420000	-10685.343837
17.430000	-10592.998454
17.440000	-10486.187414
17.450000	-10383.180587
17.460000	-10300.050641
17.470000	-10236.678438
17.480000	-10177.900514
17.490000	-10107.535840
17.500000	-10017.803451
17.510000	-9917.803852
17.520000	-9819.412441
17.530000	-9733.100565
17.540000	-9658.692142
17.550000	-9587.073353
17.560000	-9510.677324
17.570000	-9424.755663
17.580000	-9334.726029
17.590000	-9246.809544
17.600000	-9166.475738
17.610000	-9092.882803
17.620000	-9019.580345
17.630000	-8941.664142
17.640000	-8858.734630
17.650000	-8775.162641
17.660000	-8693.922499
17.670000	-8615.357974
17.680000	-8539.814350
17.690000	-8465.919099
17.700000	-8393.078662
17.710000	-8319.847964
17.720000	-8246.383824
17.730000	-8172.144345
17.740000	-8096.390815
17.750000	-8019.478985
17.760000	-7943.102899
17.770000	-7870.184530
17.780000	-7799.838121
17.790000	-7730.588065
17.800000	-7657.930603
17.810000	-7583.038687
17.820000	-7508.390701
17.830000	-7437.187812
17.840000	-7369.537929
17.850000	-7300.684930
17.860000	-7229.054263
17.870000	-7154.879684
17.880000	-7083.275593
17.890000	-7016.089267
17.900000	-6950.841007
17.910000	-6884.652514
17.920000	-6815.094491
17.930000	-6744.581268
17.940000	-6674.362307
17.950000	-6607.196983
17.960000	-6542.970282
17.970000	-6480.155409
17.980000	-6416.254002
17.990000	-6349.125012
18.000000	-6279.888618
18.010000	-6211.105549
18.020000	-6144.860569
18.030000	-6081.752271
18.040000	-6019.827364
18.050000	-5957.734045
18.060000	-5893.791499
18.070000	-5829.387297
18.080000	-5766.418185
18.090000	-5705.028285
18.100000	-5644.031797
18.110000	-5579.984978
18.120000	-5513.643473
18.130000	-5447.263578
18.140000	-5384.240617
18.150000	-5324.847126
18.160000	-5265.471773
18.170000	-5203.743212
18.180000	-5140.017301
18.190000	-5076.950217
18.200000	-5017.532705
18.210000	-4961.113832
18.220000	-4906.343757
18.230000	-4850.569027
18.240000	-4792.451143
18.250000	-4732.987556
18.260000	-4674.182378
18.270000	-4619.027353
18.280000	-4566.518637
18.290000	-4512.672374
18.300000	-4452.797076
18.310000	-4388.275559
18.320000	-4326.363786
18.330000	-4272.476457
18.340000	-4225.512644
18.350000	-4177.923600
18.360000	-4124.261776
18.370000	-4065.647143
18.380000	-4007.277637
18.390000	-3952.952847
18.400000	-3901.195453
18.410000	-3848.499850
18.420000	-3794.031207
18.430000	-3740.297010
18.440000	-3689.771527
18.450000	-3641.653490
18.460000	-3592.402947
18.470000	-3540.577967
18.480000	-3488.269895
18.490000	-3439.062601
18.500000	-3394.016181
18.510000	-3350.085755
18.520000	-3303.975075
18.530000	-3253.990089
18.540000	-3202.819579
18.550000	-3153.432204
18.560000	-3107.527697
18.570000	-3063.061199
18.580000	-3017.093904
18.590000	-2967.884055
18.600000	-2917.190307
18.610000	-2867.559646
18.620000	-2821.467053
18.630000	-2778.404204
18.640000	-2735.577953
18.650000	-2689.751222
18.660000	-2641.532995
18.670000	-2593.934969
18.680000	-2549.981400
18.690000	-2508.931552
18.700000	-2468.244539
18.710000	-2425.411051
18.720000	-2380.326914
18.730000	-2334.370372
18.740000	-2289.215625
18.750000	-2245.462019
18.760000	-2201.897715
18.770000	-2161.025284
18.780000	-2121.025731
18.790000	-2082.048116
18.800000	-2041.596999
18.810000	-2000.192754
18.820000	-1958.946405
18.830000	-1917.439354
18.840000	-1877.069933
18.850000	-1838.114961
18.860000	-1801.289698
18.870000	-1765.877935
18.880000	-1730.261204
18.890000	-1693.392942
18.900000	-1654.981479
18.910000	-1615.319136
18.920000	-1574.774423
18.930000	-1534.315639
18.940000	-1495.299953
18.950000	-1459.039718
18.960000	-1425.211527
18.970000	-1392.481051
18.980000	-1358.503177
18.990000	-1322.639401
19.000000	-1286.509492
19.010000	-1250.833201
19.020000	-1216.550453
19.030000	-1182.718650
19.040000	-1148.618282
19.050000	-1113.292464
19.060000	-1077.709837
19.070000	-1043.215161
19.080000	-1011.145294
19.090000	-979.468598
19.100000	-947.587409
19.110000	-915.054554
19.120000	-881.691749
19.130000	-848.969233
19.140000	-817.112903
19.150000	-787.202520
19.160000	-756.502532
19.170000	-725.085160
19.180000	-693.196964
19.190000	-662.605646
19.200000	-632.514026
19.210000	-602.419283
19.220000	-572.120257
19.230000	-542.854540
19.240000	-515.338714
19.250000	-489.229864
19.260000	-462.157229
19.270000	-433.210807
19.280000	-403.579091
19.290000	-375.454733
19.300000	-350.255020
19.310000	-325.272829
19.320000	-298.180121
19.330000	-267.002659
19.340000	-235.360645
19.350000	-206.300263
19.360000	-183.107137
19.370000	-163.142863
19.380000	-142.407111
19.390000	-116.871899
19.400000	-86.935039
19.410000	-57.825956
19.420000	-32.664876
19.430000	-11.976538
19.440000	8.752852
19.450000	33.342080
19.460000	61.634821
19.470000	89.462218
19.480000	113.335247
19.490000	134.081517
19.500000	155.535284
19.510000	180.526792
19.520000	207.556208
19.530000	232.802517
19.540000	254.423436
19.550000	273.932371
19.560000	295.145943
19.570000	320.244055
19.580000	346.712589
19.590000	370.412345
19.600000	389.149682
19.610000	404.794262
19.620000	422.134622
19.630000	444.048122
19.640000	470.994138
19.650000	498.172776
19.660000	520.742799
19.670000	536.865619
19.680000	550.738660
19.690000	565.790984
19.700000	583.969088
19.710000	604.952766
19.720000	626.106467
19.730000	645.701010
19.740000	662.834081
19.750000	679.382172
19.760000	697.157456
19.770000	716.659648
19.780000	736.746884
19.790000	756.545728
19.800000	773.610495
19.810000	787.386131
19.820000	799.433004
19.830000	815.194239
19.840000	836.205771
19.850000	858.284908
19.860000	876.278078
19.870000	888.691768
19.880000	900.678704
19.890000	915.741417
19.900000	935.391768
19.910000	956.433283
19.920000	973.758638
19.930000	986.800574
19.940000	997.131567
19.950000	1010.851034
19.960000	1029.165675
19.970000	1048.901287
19.980000	1065.545134
19.990000	1078.314676
20.000000	1091.294708
20.010000	1107.753083
20.020000	1126.061941
20.030000	1141.217158
20.040000	1151.878005
20.050000	1160.400645
20.060000	1171.413382
20.070000	1185.623577
20.080000	1203.000747
20.090000	1221.899881
20.100000	1238.644125
20.110000	1249.574939
20.120000	1255.368549
20.130000	1261.335631
20.140000	1272.167932
20.150000	1288.833167
20.160000	1308.039763
20.170000	1326.752619
20.180000	1341.000624
20.190000	1349.775524
20.200000	1354.734495
20.210000	1360.241918
20.220000	1369.571782
20.230000	1382.475398
20.240000	1399.190839
20.250000	1416.483436
20.260000	1431.264718
20.270000	1440.616678
20.280000	1446.146065
20.290000	1450.885839
20.300000	1456.826838
20.310000	1465.960905
20.320000	1477.977459
20.330000	1492.181345
20.340000	1504.936685
20.350000	1514.894991
20.360000	1522.056773
20.370000	1529.778568
20.380000	1538.666900
20.390000	1548.494317
20.400000	1556.441232
20.410000	1563.395092
20.420000	1571.397086
20.430000	1581.140684
20.440000	1593.204632
20.450000	1603.395321
20.460000	1610.880367
20.470000	1616.182763
20.480000	1622.763369
20.490000	1632.167583
20.500000	1643.178185
20.510000	1653.358542
20.520000	1660.807369
20.530000	1665.103195
20.540000	1669.666791
20.550000	1676.065822
20.560000	1685.418076
20.570000	1694.245615
20.580000	1701.408919
20.590000	1705.995838
20.600000	1709.980822
20.610000	1714.988215
20.620000	1721.462571
20.630000	1728.894351
20.640000	1735.527226
20.650000	1741.729258
20.660000	1746.514360
20.670000	1751.835018
20.680000	1757.093847
20.690000	1763.214209
20.700000	1769.608321
20.710000	1775.201072
20.720000	1780.071507
20.730000	1784.470468
20.740000	1790.157405
20.750000	1796.354628
20.760000	1802.535543
20.770000	1807.531716
20.780000	1811.214358
20.790000	1815.348280
20.800000	1820.527338
20.810000	1826.135329
20.820000	1829.812425
20.830000	1831.909794
20.840000	1834.752630
20.850000	1839.333346
20.860000	1845.679306
20.870000	1851.743348
20.880000	1855.601484
20.890000	1857.825040
20.900000	1860.529065
20.910000	1865.911102
20.920000	1872.453556
20.930000	1877.002744
20.940000	1879.399291
20.950000	1880.446318
20.960000	1882.367807
20.970000	1885.573365
20.980000	1889.357952
20.990000	1893.395699
21.000000	1896.375847
21.010000	1899.257587
21.020000	1901.759841
21.030000	1905.497029
21.040000	1909.846200
21.050000	1914.782775
21.060000	1918.642189
21.070000	1921.122524
21.080000	1923.829792
21.090000	1926.847235
21.100000	1930.075464
21.110000	1930.959851
21.120000	1931.731662
21.130000	1933.469405
21.140000	1937.123656
21.150000	1942.046748
21.160000	1944.916502
21.170000	1947.047697
21.180000	1946.781379
21.190000	1947.144365
21.200000	1948.056541
21.210000	1948.994592
21.220000	1948.753889
21.230000	1947.274620
21.240000	1945.550041
21.250000	1942.982101
21.260000	1939.448554
21.270000	1936.130099
21.280000	1936.125147
21.290000	1938.375354
21.300000	1940.241922
21.310000	1937.730581
21.320000	1932.156130
21.330000	1926.876751
21.340000	1925.191309
21.350000	1926.803301
21.360000	1928.678333
21.370000	1928.527027
21.380000	1927.639404
21.390000	1929.724021
21.400000	1935.728579
21.410000	1939.372563
21.420000	1934.959799
21.430000	1924.518455
21.440000	1915.684903
21.450000	1915.142546
21.460000	1920.200733
21.470000	1924.241300
21.480000	1920.537348
21.490000	1911.187664
21.500000	1901.708997
21.510000	1897.628634
21.520000	1895.686672
21.530000	1889.894510
21.540000	1875.168126
21.550000	1851.344078
21.560000	1822.834529
21.570000	1795.973499
21.580000	1777.345042
21.590000	1763.086486
21.600000	1750.038570
21.610000	1737.723403
21.620000	1726.252417
21.630000	1712.873280
21.640000	1695.992389
21.650000	1682.237449
21.660000	1672.577289
21.670000	1665.457242
21.680000	1659.026001
21.690000	1653.883788
21.700000	1652.013917
21.710000	1653.175005
21.720000	1660.216467
21.730000	1670.994004
21.740000	1684.966929
21.750000	1703.697620
21.760000	1725.589544
21.770000	1748.616197
21.780000	1768.423878
21.790000	1776.409837
21.800000	1764.147375
21.810000	1724.430780
21.820000	1670.151945
21.830000	1624.039861
21.840000	1599.360214
21.850000	1592.166584
21.860000	1589.777956
21.870000	1587.884970
21.880000	1588.115872
21.890000	1588.164935
21.900000	1587.031599
21.910000	1584.021801
21.920000	1582.536455
21.930000	1583.117174
21.940000	1582.278414
21.950000	1579.804820
21.960000	1578.279800
21.970000	1578.407484
21.980000	1577.527220
21.990000	1576.944738
22.000000	1574.022584
22.010000	1572.760730
22.020000	1572.099617
22.030000	1571.174536
22.040000	1569.108933
22.050000	1565.523719
22.060000	1564.065001
22.070000	1564.800445
22.080000	1562.612531
22.090000	1560.373140
22.100000	1558.094544
22.110000	1555.555835
22.120000	1554.861878
22.130000	1554.007791
22.140000	1555.924926
22.150000	1554.719262
22.160000	1552.294733
22.170000	1548.044088
22.180000	1546.968432
22.190000	1544.298792
22.200000	1544.626099
22.210000	1543.488432
22.220000	1541.592625
22.230000	1539.306658
22.240000	1536.187951
22.250000	1536.102578
22.260000	1535.396642
22.270000	1533.876835
22.280000	1531.576258
22.290000	1528.957372
22.300000	1527.732528
22.310000	1527.339658
22.320000	1525.192668
22.330000	1524.047471
22.340000	1522.620650
22.350000	1520.738673
22.360000	1517.361320
22.370000	1516.760921
22.380000	1517.069625
22.390000	1516.101495
22.400000	1513.436671
22.410000	1510.101280
22.420000	1509.466736
22.430000	1509.744800
22.440000	1508.821801
22.450000	1510.063908
22.460000	1506.476915
22.470000	1503.413391
22.480000	1499.778734
22.490000	1495.431176
22.500000	1494.425696
22.510000	1490.756198
22.520000	1492.781560
22.530000	1491.704784
22.540000	1490.508354
22.550000	1487.981647
22.560000	1483.912224
22.570000	1482.278887
22.580000	1480.307603
22.590000	1478.930877
22.600000	1477.377374
22.610000	1475.264167
22.620000	1473.465317
22.630000	1473.615408
22.640000	1470.885838
22.650000	1471.682292
22.660000	1469.289558
22.670000	1470.473212
22.680000	1468.678130
22.690000	1466.645524
22.700000	1465.753230
22.710000	1463.832772
22.720000	1463.199715
22.730000	1458.358687
22.740000	1456.040944
22.750000	1453.888500
22.760000	1452.587086
22.770000	1450.776929
22.780000	1449.839329
22.790000	1449.025746
22.800000	1446.455688
22.810000	1444.989118
22.820000	1443.095829
22.830000	1444.002356
22.840000	1438.740226
22.850000	1435.768821
22.860000	1434.064873
22.870000	1433.912763
22.880000	1435.430532
22.890000	1433.417806
22.900000	1433.870213
22.910000	1430.934467
22.920000	1430.052626
22.930000	1427.137534
22.940000	1426.638593
22.950000	1426.370004
22.960000	1425.276136
22.970000	1423.989751
22.980000	1420.623557
22.990000	1419.009492
23.000000	1418.009087
23.010000	1417.751941
23.020000	1415.774177
23.030000	1414.896370
23.040000	1413.582206
23.050000	1414.775442
23.060000	1412.087697
23.070000	1412.414839
23.080000	1409.949541
23.090000	1408.806795
23.100000	1406.853586
23.110000	1404.933665
23.120000	1404.820960
23.130000	1402.105019
23.140000	1403.213590
23.150000	1402.305507
23.160000	1402.360612
23.170000	1400.554209
23.180000	1398.584866
23.190000	1397.199079
23.200000	1396.205961
23.210000	1394.909268
23.220000	1393.229406
23.230000	1392.357542
23.240000	1390.646915
23.250000	1389.550112
23.260000	1388.461803
23.270000	1387.481553
23.280000	1388.017783
23.290000	1386.136373
23.300000	1388.006780
23.310000	1386.159537
23.320000	1386.104424
23.330000	1382.559913
23.340000	1381.974984
23.350000	1382.010686
23.360000	1381.590705
23.370000	1381.876450
23.380000	1380.272097
23.390000	1381.171203
23.400000	1379.003038
23.410000	1378.237568
23.420000	1376.793797
23.430000	1375.724118
23.440000	1375.996328
23.450000	1375.614949
23.460000	1374.617270
23.470000	1374.255678
23.480000	1374.648717
23.490000	1374.305990
23.500000	1371.427021
23.510000	1370.454858
23.520000	1371.608821
23.530000	1371.676411
23.540000	1371.216765
23.550000	1370.981276
23.560000	1371.574077
23.570000	1370.026413
23.580000	1370.367667
23.590000	1370.137747
23.600000	1370.254846
23.610000	1370.330081
23.620000	1370.896083
23.630000	1370.602366
23.640000	1370.629650
23.650000	1370.956973
23.660000	1372.785767
23.670000	1373.721125
23.680000	1371.027257
23.690000	1369.258486
23.700000	1366.671506
23.710000	1369.571537
23.720000	1368.024923
23.730000	1368.684090
23.740000	1366.767719
23.750000	1368.581369
23.760000	1369.568442
23.770000	1369.244403
23.780000	1369.797878
23.790000	1369.986177
23.800000	1371.456868
23.810000	1371.470961
23.820000	1371.883634
23.830000	1371.034672
23.840000	1371.410456
23.850000	1368.334117
23.860000	1369.058851
23.870000	1368.689059
23.880000	1371.153732
23.890000	1371.107483
23.900000	1372.697004
23.910000	1374.599897
23.920000	1374.326094
23.930000	1373.860299
23.940000	1372.704060
23.950000	1375.891583
23.960000	1376.805691
23.970000	1377.368626
23.980000	1377.323606
23.990000	1376.601743
24.000000	1376.601054
24.010000	1376.584436
24.020000	1378.307385
24.030000	1380.647851
24.040000	1381.432699
24.050000	1383.145831
24.060000	1382.630857
24.070000	1381.411552
24.080000	1381.919608
24.090000	1381.417711
24.100000	1383.647314
24.110000	1386.161220
24.120000	1387.465162
24.130000	1388.665897
24.140000	1387.360553
24.150000	1388.277161
24.160000	1386.984264
24.170000	1386.996860
24.180000	1389.019992
24.190000	1392.131607
24.200000	1394.806688
24.210000	1396.020117
24.220000	1397.686939
24.230000	1396.980831
24.240000	1397.336018
24.250000	1398.014785
24.260000	1402.079956
24.270000	1404.443819
24.280000	1407.929457
24.290000	1408.270246
24.300000	1407.880529
24.310000	1408.176831
24.320000	1409.243842
24.330000	1412.502646
24.340000	1413.339126
24.350000	1413.928632
24.360000	1414.175997
24.370000	1416.776398
24.380000	1420.081336
24.390000	1422.704891
24.400000	1424.737001
24.410000	1426.045302
24.420000	1428.811130
24.430000	1428.111216
24.440000	1427.319294
24.450000	1429.253070
24.460000	1432.559683
24.470000	1435.136079
24.480000	1434.876140
24.490000	1435.109615
24.500000	1437.596726
24.510000	1440.815409
24.520000	1442.054813
24.530000	1443.942782
24.540000	1443.905001
24.550000	1445.492835
24.560000	1447.146463
24.570000	1450.456298
24.580000	1452.446245
24.590000	1452.830776
24.600000	1454.491103
24.610000	1456.931770
24.620000	1459.604341
24.630000	1460.429810
24.640000	1463.468408
24.650000	1466.978593
24.660000	1468.730510
24.670000	1468.264301
24.680000	1469.402453
24.690000	1472.270607
24.700000	1475.466947
24.710000	1476.001951
24.720000	1476.274951
24.730000	1478.460690
24.740000	1479.796698
24.750000	1482.660131
24.760000	1484.697981
24.770000	1489.601298
24.780000	1492.968084
24.790000	1497.619264
24.800000	1498.940628
24.810000	1498.710211
24.820000	1499.971290
24.830000	1501.175731
24.840000	1504.732538
24.850000	1506.341733
24.860000	1509.566805
24.870000	1511.540666
24.880000	1513.127744
24.890000	1518.129908
24.900000	1522.381516
24.910000	1524.440481
24.920000	1524.686601
24.930000	1523.797296
24.940000	1526.380344
24.950000	1529.176127
24.960000	1532.794091
24.970000	1535.590558
24.980000	1536.918097
24.990000	1538.718680
25.000000	1541.410210
25.010000	1544.883353
25.020000	1548.604854
25.030000	1551.081437
25.040000	1552.171602
25.050000	1553.317930
25.060000	1553.096858
25.070000	1556.938608
25.080000	1561.027720
25.090000	1566.937381
25.100000	1569.970272
25.110000	1571.982007
25.120000	1574.939917
25.130000	1575.704982
25.140000	1581.629666
25.150000	1584.742728
25.160000	1589.041370
25.170000	1588.774999
25.180000	1587.833057
25.190000	1588.822786
25.200000	1589.963917
25.210000	1593.565202
25.220000	1596.428551
25.230000	1597.661676
25.240000	1599.916123
25.250000	1603.430195
25.260000	1608.080168
25.270000	1612.538325
25.280000	1614.917703
25.290000	1615.994226
25.300000	1616.761712
25.310000	1617.786906
25.320000	1621.280256
25.330000	1626.908009
25.340000	1629.452844
25.350000	1631.048797
25.360000	1631.617543
25.370000	1635.866266
25.380000	1641.090762
25.390000	1643.341185
25.400000	1645.241560
25.410000	1648.805928
25.420000	1652.372395
25.430000	1653.590869
25.440000	1653.165651
25.450000	1655.371583
25.460000	1658.593954
25.470000	1662.137961
25.480000	1665.337378
25.490000	1668.554097
25.500000	1672.727872
25.510000	1672.262974
25.520000	1673.460260
25.530000	1675.259368
25.540000	1677.501368
25.550000	1681.898979
25.560000	1684.162553
25.570000	1689.198888
25.580000	1690.091436
25.590000	1690.827372
25.600000	1694.314427
25.610000	1696.732885
25.620000	1699.178182
25.630000	1699.922990
25.640000	1702.680961
25.650000	1705.052109
25.660000	1707.144817
25.670000	1709.468220
25.680000	1712.559669
25.690000	1715.496256
25.700000	1717.589439
25.710000	1721.145119
25.720000	1722.547197
25.730000	1725.088853
25.740000	1726.764593
25.750000	1729.315353
25.760000	1731.578097
25.770000	1733.146278
25.780000	1735.330251
25.790000	1737.905164
25.800000	1741.682325
25.810000	1745.587500
25.820000	1748.293879
25.830000	1748.862607
25.840000	1748.835473
25.850000	1750.059958
25.860000	1752.959392
25.870000	1756.504377
25.880000	1758.663095
25.890000	1759.869574
25.900000	1761.615163
25.910000	1763.807325
25.920000	1765.473152
25.930000	1765.985790
25.940000	1767.576833
25.950000	1770.394442
25.960000	1772.575624
25.970000	1773.371499
25.980000	1774.812093
25.990000	1777.572907
26.000000	1779.600484
26.010000	1781.672842
26.020000	1783.274062
26.030000	1784.327371
26.040000	1786.169546
26.050000	1787.524036
26.060000	1790.287672
26.070000	1790.583370
26.080000	1791.635086
26.090000	1794.511147
26.100000	1796.511080
26.110000	1798.318375
26.120000	1797.914355
26.130000	1798.672983
26.140000	1799.836708
26.150000	1802.226865
26.160000	1803.944361
26.170000	1804.642274
26.180000	1804.241157
26.190000	1803.913996
26.200000	1805.724396
26.210000	1807.355462
26.220000	1810.732161
26.230000	1810.955484
26.240000	1812.273424
26.250000	1812.711189
26.260000	1814.998104
26.270000	1816.620701
26.280000	1816.559460
26.290000	1815.699038
26.300000	1815.951575
26.310000	1817.598497
26.320000	1817.825109
26.330000	1816.659998
26.340000	1817.192245
26.350000	1820.532214
26.360000	1822.358220
26.370000	1822.560688
26.380000	1822.002474
26.390000	1822.398015
26.400000	1821.774011
26.410000	1821.044905
26.420000	1820.676821
26.430000	1820.152461
26.440000	1819.040752
26.450000	1820.060391
26.460000	1821.515109
26.470000	1822.423655
26.480000	1821.439304
26.490000	1819.575036
26.500000	1819.814665
26.510000	1817.816152
26.520000	1816.985255
26.530000	1815.815143
26.540000	1814.596220
26.550000	1815.585698
26.560000	1814.619759
26.570000	1815.472303
26.580000	1814.380874
26.590000	1812.127011
26.600000	1811.567313
26.610000	1810.183906
26.620000	1811.517990
26.630000	1812.300329
26.640000	1810.881974
26.650000	1808.831726
26.660000	1806.312167
26.670000	1803.764551
26.680000	1801.807423
26.690000	1799.755604
26.700000	1798.031420
26.710000	1797.470706
26.720000	1795.633199
26.730000	1796.253403
26.740000	1792.253094
26.750000	1789.115584
26.760000	1787.234483
26.770000	1788.019839
26.780000	1788.573789
26.790000	1785.957523
26.800000	1783.627981
26.810000	1780.243110
26.820000	1777.047451
26.830000	1771.874583
26.840000	1769.504988
26.850000	1767.836527
26.860000	1764.976187
26.870000	1761.816243
26.880000	1758.786594
26.890000	1755.130188
26.900000	1751.602312
26.910000	1748.440860
26.920000	1745.746111
26.930000	1741.404211
26.940000	1737.223067
26.950000	1735.020253
26.960000	1733.340633
26.970000	1730.281591
26.980000	1725.104836
26.990000	1719.523335
27.000000	1714.504224
27.010000	1712.068757
27.020000	1708.184637
27.030000	1703.588456
27.040000	1699.156797
27.050000	1693.055577
27.060000	1689.096158
27.070000	1684.118730
27.080000	1679.994657
27.090000	1673.443183
27.100000	1665.844861
27.110000	1662.714669
27.120000	1659.934383
27.130000	1657.593575
27.140000	1650.936538
27.150000	1644.086210
27.160000	1638.183235
27.170000	1633.158301
27.180000	1627.004091
27.190000	1620.480834
27.200000	1612.726683
27.210000	1606.048267
27.220000	1597.668170
27.230000	1593.201596
27.240000	1588.475594
27.250000	1583.923697
27.260000	1576.158600
27.270000	1567.544282
27.280000	1560.387405
27.290000	1553.029861
27.300000	1547.833051
27.310000	1540.031573
27.320000	1533.167116
27.330000	1523.876477
27.340000	1517.717719
27.350000	1510.215729
27.360000	1504.474235
27.370000	1496.049195
27.380000	1488.764911
27.390000	1478.702676
27.400000	1469.581000
27.410000	1461.513839
27.420000	1454.895243
27.430000	1447.478259
27.440000	1438.035916
27.450000	1430.276304
27.460000	1421.642551
27.470000	1411.225135
27.480000	1398.726878
27.490000	1388.659589
27.500000	1379.931294
27.510000	1371.559546
27.520000	1361.928885
27.530000	1350.253066
27.540000	1338.722301
27.550000	1328.394146
27.560000	1317.956224
27.570000	1308.986518
27.580000	1298.617620
27.590000	1288.026001
27.600000	1275.369709
27.610000	1264.509770
27.620000	1254.199355
27.630000	1245.420869
27.640000	1233.096512
27.650000	1221.437911
27.660000	1208.052222
27.670000	1193.870366
27.680000	1180.077834
27.690000	1166.698409
27.700000	1156.171761
27.710000	1146.906621
27.720000	1134.645826
27.730000	1119.844784
27.740000	1104.169765
27.750000	1088.824423
27.760000	1076.403128
27.770000	1063.489342
27.780000	1053.018573
27.790000	1039.826154
27.800000	1025.008186
27.810000	1009.515699
27.820000	995.349966
27.830000	980.539761
27.840000	964.704349
27.850000	948.571235
27.860000	934.396759
27.870000	919.586000
27.880000	904.423141
27.890000	888.587945
27.900000	872.102072
27.910000	855.906790
27.920000	841.426129
27.930000	826.522407
27.940000	809.721311
27.950000	791.776189
27.960000	775.650681
27.970000	759.975586
27.980000	742.531292
27.990000	724.467203
28.000000	706.690257
28.010000	689.231481
28.020000	671.786074
28.030000	651.923734
28.040000	633.161406
28.050000	614.863792
28.060000	599.467076
28.070000	581.366356
28.080000	562.373726
28.090000	541.437676
28.100000	520.862224
28.110000	501.406728
28.120000	482.912846
28.130000	465.938389
28.140000	444.167897
28.150000	421.718005
28.160000	398.627039
28.170000	379.387803
28.180000	358.265358
28.190000	337.950661
28.200000	316.757552
28.210000	297.053196
28.220000	275.759310
28.230000	252.684154
28.240000	229.616309
28.250000	204.483613
28.260000	181.331853
28.270000	159.106775
28.280000	136.881424
28.290000	115.230371
28.300000	91.581293
28.310000	70.194303
28.320000	47.744530
28.330000	23.645922
28.340000	-3.284413
28.350000	-29.751406
28.360000	-54.517625
28.370000	-80.362422
28.380000	-104.609212
28.390000	-129.531097
28.400000	-153.571716
28.410000	-180.600145
28.420000	-207.738530
28.430000	-233.232487
28.440000	-260.818000
28.450000	-287.748634
28.460000	-313.810063
28.470000	-339.509765
28.480000	-365.382565
28.490000	-394.863249
28.500000	-423.856128
28.510000	-453.824434
28.520000	-481.245783
28.530000	-506.730772
28.540000	-533.914894
28.550000	-562.568317
28.560000	-593.867030
28.570000	-624.008691
28.580000	-653.117119
28.590000	-684.081159
28.600000	-714.982496
28.610000	-745.791292
28.620000	-774.478848
28.630000	-803.821735
28.640000	-834.614173
28.650000	-866.497400
28.660000	-899.736901
28.670000	-932.156006
28.680000	-964.528001
28.690000	-996.809922
28.700000	-1029.321593
28.710000	-1063.138011
28.720000	-1098.121217
28.730000	-1131.806331
28.740000	-1166.952396
28.750000	-1198.139973
28.760000	-1231.841258
28.770000	-1266.146177
28.780000	-1300.767384
28.790000	-1336.859699
28.800000	-1370.386482
28.810000	-1406.977532
28.820000	-1442.360001
28.830000	-1478.163714
28.840000	-1514.719261
28.850000	-1552.409846
28.860000	-1590.472333
28.870000	-1627.388010
28.880000	-1663.635468
28.890000	-1699.106264
28.900000	-1737.888950
28.910000	-1776.887377
28.920000	-1815.569158
28.930000	-1852.756821
28.940000	-1891.020169
28.950000	-1930.383512
28.960000	-1970.571646
28.970000	-2012.451667
28.980000	-2053.890235
28.990000	-2094.637363
29.000000	-2134.324535
29.010000	-2174.949248
29.020000	-2215.540682
29.030000	-2255.388813
29.040000	-2297.564458
29.050000	-2339.614050
29.060000	-2382.736032
29.070000	-2425.974712
29.080000	-2468.720122
29.090000	-2513.158163
29.100000	-2554.837956
29.110000	-2598.522406
29.120000	-2642.095880
29.130000	-2686.724794
29.140000	-2731.514072
29.150000	-2776.098015
29.160000	-2822.444819
29.170000	-2868.636791
29.180000	-2914.894397
29.190000	-2960.689850
29.200000	-3005.530439
29.210000	-3049.935401
29.220000	-3096.364850
29.230000	-3144.369305
29.240000	-3195.404126
29.250000	-3244.321307
29.260000	-3291.999439
29.270000	-3337.811890
29.280000	-3385.485966
29.290000	-3436.177855
29.300000	-3486.846578
29.310000	-3537.106538
29.320000	-3587.100525
29.330000	-3638.935605
29.340000	-3689.571737
29.350000	-3740.344484
29.360000	-3789.605585
29.370000	-3842.345441
29.380000	-3893.522046
29.390000	-3946.616274
29.400000	-3998.670232
29.410000	-4051.820092
29.420000	-4105.733526
29.430000	-4159.279808
29.440000	-4213.731020
29.450000	-4266.325530
29.460000	-4320.344989
29.470000	-4374.628358
29.480000	-4431.239864
29.490000	-4486.189316
29.500000	-4543.099759
29.510000	-4599.012298
29.520000	-4657.259666
29.530000	-4714.101184
29.540000	-4770.386752
29.550000	-4826.479179
29.560000	-4883.475481
29.570000	-4943.154491
29.580000	-5001.178642
29.590000	-5060.149182
29.600000	-5117.837920
29.610000	-5177.463911
29.620000	-5236.121114
29.630000	-5295.768372
29.640000	-5357.380241
29.650000	-5419.714279
29.660000	-5480.619943
29.670000	-5541.321357
29.680000	-5602.512223
29.690000	-5666.254996
29.700000	-5730.050172
29.710000	-5793.187109
29.720000	-5853.245647
29.730000	-5912.797110
29.740000	-5975.109135
29.750000	-6041.402811
29.760000	-6106.625228
29.770000	-6173.033571
29.780000	-6238.135028
29.790000	-6303.350235
29.800000	-6366.979780
29.810000	-6429.350979
29.820000	-6491.172377
29.830000	-6541.334306
29.840000	-6572.725873
29.850000	-6570.648209
29.860000	-6512.945094
29.870000	-6426.785210
29.880000	-6405.368007
29.890000	-6486.460298
29.900000	-6625.590012
29.910000	-6733.037331
29.920000	-6794.379595
29.930000	-6831.743359
29.940000	-6844.135420
29.950000	-6834.825260
29.960000	-6818.287232
29.970000	-6847.713050
29.980000	-6945.722252
29.990000	-7058.425466
30.000000	-7091.414958
30.010000	-6980.256679
30.020000	-6734.347710
30.030000	-6408.584201
30.040000	-6039.602353
30.050000	-5718.433828
30.060000	-5561.633757
30.070000	-5802.645072
30.080000	-6387.583785
30.090000	-7035.942177
30.100000	-7458.552134
30.110000	-7622.318479
30.120000	-7775.335720
30.130000	-7968.195598
30.140000	-8162.251110
30.150000	-8157.673839
30.160000	-7967.127477
30.170000	-7605.535788
30.180000	-7252.166158
30.190000	-6938.369121
30.200000	-6703.604764
30.210000	-6577.887452
30.220000	-6547.634482
30.230000	-6597.110597
30.240000	-6617.118054
30.250000	-6585.282553
30.260000	-6545.493717
30.270000	-6441.890335
30.280000	-6260.360177
30.290000	-6001.915413
30.300000	-5800.634121
30.310000	-5620.849160
30.320000	-5432.965806
30.330000	-5028.665899
30.340000	-4482.447573
30.350000	-3904.620374
30.360000	-3529.308157
30.370000	-3303.490951
30.380000	-3142.452437
30.390000	-2688.648904
30.400000	-1655.160017
30.410000	-505.904347
30.420000	696.533531
30.430000	1543.856952
30.440000	2623.261642
30.450000	3627.128373
30.460000	4789.780124
30.470000	6043.539619
30.480000	5749.954360
30.490000	4017.117838
30.500000	2037.028285
30.510000	796.068802
30.520000	-234.802800
30.530000	-2372.772515
30.540000	-4684.144601
30.550000	-6846.652182
30.560000	-8629.094936
30.570000	-10082.665245
30.580000	-11036.459047
30.590000	-11352.458358
30.600000	-11460.070577
30.610000	-11565.660293
30.620000	-11746.347634
30.630000	-11834.208713
30.640000	-11845.482296
30.650000	-11789.756185
30.660000	-11791.281332
30.670000	-11853.653763
30.680000	-12147.218496
30.690000	-12577.836960
30.700000	-12850.949057
30.710000	-12854.530460
30.720000	-12841.689780
30.730000	-13167.175347
30.740000	-13668.346530
30.750000	-14047.785233
30.760000	-14240.307655
30.770000	-14344.843662
30.780000	-14450.570967
30.790000	-14547.289205
30.800000	-14652.902536
30.810000	-14750.962372
30.820000	-14854.300656
30.830000	-14953.892368
30.840000	-15057.392087
30.850000	-15156.757294
30.860000	-15260.169908
30.870000	-15360.218245
30.880000	-15463.622327
30.890000	-15563.942337
30.900000	-15667.739813
30.910000	-15771.264107
30.920000	-15877.832592
30.930000	-15979.841543
30.940000	-16081.239111
30.950000	-16181.351213
30.960000	-16283.597955
30.970000	-16387.119592
30.980000	-16489.886668
30.990000	-16593.493521
31.000000	-16697.427604
31.010000	-16804.129214
31.020000	-16912.541462
31.030000	-17019.002381
31.040000	-17125.243428
31.050000	-17229.100034
31.060000	-17334.525838
31.070000	-17438.737838
31.080000	-17545.379457
31.090000	-17653.244011
31.100000	-17763.114920
31.110000	-17872.946704
31.120000	-17985.061139
31.130000	-18098.834427
31.140000	-18215.198998
31.150000	-18329.889374
31.160000	-18443.525800
31.170000	-18557.449066
31.180000	-18670.341861
31.190000	-18779.160923
31.200000	-18884.652133
31.210000	-18991.694717
31.220000	-19103.093955
31.230000	-19217.347138
31.240000	-19332.324276
31.250000	-19451.798970
31.260000	-19571.642275
31.270000	-19693.702672
31.280000	-19812.367849
31.290000	-19929.046213
31.300000	-20043.836083
31.310000	-20155.792059
31.320000	-20270.385901
31.330000	-20385.907467
31.340000	-20502.321477
31.350000	-20619.395234
31.360000	-20735.283810
31.370000	-20852.250291
31.380000	-20968.248342
31.390000	-21084.787046
31.400000	-21203.208782
31.410000	-21320.632873
31.420000	-21437.824078
31.430000	-21555.781560
31.440000	-21674.730037
31.450000	-21795.214357
31.460000	-21912.896121
31.470000	-22033.271205
31.480000	-22150.952722
31.490000	-22271.602038
31.500000	-22389.544924
31.510000	-22510.520575
31.520000	-22629.988065
31.530000	-22751.663644
31.540000	-22871.601216
31.550000	-22992.672223
31.560000	-23112.702884
31.570000	-23236.190276
31.580000	-23356.921590
31.590000	-23480.208259
31.600000	-23600.567273
31.610000	-23724.704545
31.620000	-23843.602649
31.630000	-23965.669476
31.640000	-24082.667519
31.650000	-24207.087495
31.660000	-24324.040806
31.670000	-24448.625468
31.680000	-24561.009577
31.690000	-24680.950607
31.700000	-24785.526411
31.710000	-24895.714975
31.720000	-24980.204832
31.730000	-25059.580144
31.740000	-25094.329367
31.750000	-25108.550611
31.760000	-25034.785618
31.770000	-24895.002314
31.780000	-24649.293161
31.790000	-24401.054307
31.800000	-24148.704374
31.810000	-24004.930633
31.820000	-23888.411546
31.830000	-23841.293070
31.840000	-23723.082115
31.850000	-23571.594826
31.860000	-23281.125804
31.870000	-23032.100694
31.880000	-22745.860237
31.890000	-22574.961249
31.900000	-22289.246968
31.910000	-22133.814251
31.920000	-21886.353930
31.930000	-21705.701486
31.940000	-21188.888504
31.950000	-20574.638281
31.960000	-19441.212496
31.970000	-17323.234945
31.980000	-13782.882918
31.990000	-4180.912133
32.000000	9544.492998
32.010000	5527.964110
32.020000	-2332.671473
32.030000	-6307.310098
32.040000	-8999.190177
32.050000	-10779.010004
32.060000	-12304.455717
32.070000	-14752.022704
32.080000	-18448.191621
32.090000	-20540.854288
32.100000	-21191.591834
32.110000	-20901.367330
32.120000	-20080.901964
32.130000	-18956.343362
32.140000	-17530.550366
32.150000	-16035.548529
32.160000	-14414.653560
32.170000	-12661.454131
32.180000	-10523.624857
32.190000	-8150.654617
32.200000	-5944.795994
32.210000	-4167.621924
32.220000	-2859.827902
32.230000	-1837.420380
32.240000	-928.655883
32.250000	-234.711660
32.260000	347.018496
32.270000	916.952923
32.280000	2074.043228
32.290000	3934.625611
32.300000	6756.913849
32.310000	10580.587100
32.320000	14730.696300
32.330000	18154.406607
32.340000	21464.142195
32.350000	25189.786881
32.360000	29852.441314
32.370000	32703.207168
32.380000	34081.594327
32.390000	34158.429857
32.400000	32293.249402
32.410000	28894.362646
32.420000	22456.448550
32.430000	21146.852416
32.440000	20699.148024
32.450000	20694.694660
32.460000	22081.824137
32.470000	28484.802816
32.480000	34180.210749
32.490000	35921.762802
32.500000	36294.274620
32.510000	35146.273408
32.520000	32596.926770
32.530000	26977.390061
32.540000	22918.280367
32.550000	19330.395988
32.560000	15654.728289
32.570000	12547.917175
32.580000	10572.757129
32.590000	9911.637905
32.600000	10414.960068
32.610000	11825.612504
32.620000	14469.102584
32.630000	20642.538455
32.640000	33574.800042
32.650000	36956.976470
32.660000	38339.887274
32.670000	37902.914502
32.680000	37584.407191
32.690000	36338.319143
32.700000	33948.305729
32.710000	30106.393316
32.720000	26422.330820
32.730000	21896.013536
32.740000	17246.160011
32.750000	13872.578737
32.760000	10900.463730
32.770000	8184.083180
32.780000	6150.356222
32.790000	5074.083968
32.800000	4987.717877
32.810000	5470.319538
32.820000	6386.689611
32.830000	7423.569855
32.840000	8297.926645
32.850000	8739.382331
32.860000	8782.206213
32.870000	9461.160218
32.880000	11403.610957
32.890000	24044.934562
32.900000	35124.673798
32.910000	36630.685046
32.920000	37003.188889
32.930000	36637.623235
32.940000	36126.937622
32.950000	34778.671617
32.960000	32235.155555
32.970000	25670.190006
32.980000	17244.719284
32.990000	9961.302837
33.000000	6581.753174
33.010000	4498.278640
33.020000	3829.391621
33.030000	4105.533290
33.040000	5285.267588
33.050000	6860.243162
33.060000	8606.672066
33.070000	10303.717337
33.080000	11975.849048
33.090000	13336.110735
33.100000	14373.567824
33.110000	14961.980143
33.120000	15300.314791
33.130000	15180.876465
33.140000	14509.526257
33.150000	12750.387467
33.160000	11151.139587
33.170000	10563.311302
33.180000	25030.677258
33.190000	40585.497263
33.200000	42076.168847
33.210000	41828.732426
33.220000	40409.035702
33.230000	39403.006294
33.240000	37575.388048
33.250000	34477.059413
33.260000	29008.781994
33.270000	25127.234737
33.280000	21561.472342
33.290000	16773.539906
33.300000	12135.102799
33.310000	8791.463748
33.320000	6344.860380
33.330000	4707.177448
33.340000	4145.953150
33.350000	4319.163771
33.360000	5095.265176
33.370000	5875.513638
33.380000	6508.792274
33.390000	6669.709336
33.400000	6368.237120
33.410000	5418.034604
33.420000	5858.056874
33.430000	11279.786304
33.440000	27123.737617
33.450000	31295.233971
33.460000	32634.958378
33.470000	32201.906358
33.480000	31827.202086
33.490000	31428.591264
33.500000	30019.342527
33.510000	27182.459922
33.520000	21517.268465
33.530000	17994.338287
33.540000	14825.707030
33.550000	11691.394615
33.560000	8856.468126
33.570000	6412.635121
33.580000	4285.775015
33.590000	2232.128465
33.600000	429.323057
33.610000	-1147.848328
33.620000	-2323.820668
33.630000	-3204.504923
33.640000	-3684.286962
33.650000	-3883.014455
33.660000	-3846.112672
33.670000	-3829.663173
33.680000	-3751.566900
33.690000	-3722.060911
33.700000	-3246.577450
33.710000	-1503.106787
33.720000	1894.233710
33.730000	12355.958652
33.740000	25687.344573
33.750000	26533.645476
33.760000	26205.882108
33.770000	25181.676654
33.780000	24602.598718
33.790000	23746.734236
33.800000	22426.597085
33.810000	20313.888131
33.820000	17640.024709
33.830000	14308.682759
33.840000	10061.832851
33.850000	6290.154413
33.860000	4012.647950
33.870000	2645.442696
33.880000	1475.085889
33.890000	312.478811
33.900000	-591.767818
33.910000	-973.612468
33.920000	-1087.875847
33.930000	-1057.836629
33.940000	-1049.259681
33.950000	-803.385515
33.960000	-186.475866
33.970000	1761.180302
33.980000	5147.946059
33.990000	13549.817157
34.000000	18162.226207
34.010000	19866.719768
34.020000	20021.636662
34.030000	19737.469226
34.040000	19259.912332
34.050000	17761.010624
34.060000	11700.940953
34.070000	5825.183888
34.080000	2933.274779
34.090000	1008.122340
34.100000	-399.239970
34.110000	-1353.157294
34.120000	-2287.237134
34.130000	-3200.711306
34.140000	-4267.514096
34.150000	-5265.643673
34.160000	-6410.457294
34.170000	-7559.724710
34.180000	-8713.588118
34.190000	-9589.491622
34.200000	-10246.451783
34.210000	-10654.474386
34.220000	-11075.910971
34.230000	-11385.851598
34.240000	-11694.472718
34.250000	-11683.507650
34.260000	-11538.539228
34.270000	-11051.535420
34.280000	-10341.622280
34.290000	-8625.534445
34.300000	-5718.165348
34.310000	1253.893878
34.320000	13109.789116
34.330000	20750.334718
34.340000	20145.032584
34.350000	18885.916899
34.360000	18372.018040
34.370000	18140.556432
34.380000	17748.957174
34.390000	16731.364765
34.400000	14529.336148
34.410000	11287.157753
34.420000	7766.157833
34.430000	3735.188540
34.440000	-1752.511348
34.450000	-5524.272057
34.460000	-8060.995002
34.470000	-9685.087248
34.480000	-10814.045485
34.490000	-11521.168810
34.500000	-11914.616650
34.510000	-12078.274415
34.520000	-11997.005598
34.530000	-11806.884052
34.540000	-11503.429452
34.550000	-11264.414026
34.560000	-10920.317954
34.570000	-10493.220762
34.580000	-8561.326152
34.590000	-4868.750749
34.600000	3899.097341
34.610000	6202.322247
34.620000	7289.980693
34.630000	7540.766174
34.640000	7989.532684
34.650000	8264.942857
34.660000	8664.852425
34.670000	8561.174208
34.680000	7267.189871
34.690000	1438.020402
34.700000	-2815.302145
34.710000	-5831.742029
34.720000	-8162.667199
34.730000	-10159.850391
34.740000	-11633.874852
34.750000	-12942.520295
34.760000	-13952.457554
34.770000	-14858.814800
34.780000	-15306.583539
34.790000	-15493.680619
34.800000	-15108.026406
34.810000	-13720.607765
34.820000	-10922.436527
34.830000	1756.638682
34.840000	12473.065068
34.850000	11632.909558
34.860000	10431.852642
34.870000	9770.897632
34.880000	9416.052124
34.890000	9001.824752
34.900000	8761.197439
34.910000	8449.410271
34.920000	8264.865566
34.930000	8025.925977
34.940000	7889.104751
34.950000	7696.889746
34.960000	7574.766640
34.970000	7400.486678
34.980000	7274.689067
34.990000	7098.518770
35.000000	6959.441004
35.010000	6789.777153
35.020000	6667.245948
35.030000	6532.313437
35.040000	6434.339360
35.050000	6318.888489
35.060000	6234.707774
35.070000	6140.542331
35.080000	6074.287243
35.090000	5994.639954
35.100000	5938.075906
35.110000	5877.225353
35.120000	5835.668496
35.130000	5787.339205
35.140000	5751.384196
35.150000	5713.360477
35.160000	5691.189173
35.170000	5665.948287
35.180000	5653.758770
35.190000	5644.131988
35.200000	5649.728158
35.210000	5645.549002
35.220000	5612.049770
35.230000	5517.269623
35.240000	5362.801677
35.250000	5165.704586
35.260000	4963.949914
35.270000	4777.429108
35.280000	4623.764765
35.290000	4498.766828
35.300000	4403.935252
35.310000	4329.747821
35.320000	4273.464756
35.330000	4229.394578
35.340000	4193.673273
35.350000	4163.050442
35.360000	4134.890970
35.370000	4108.051268
35.380000	4085.460736
35.390000	4068.722659
35.400000	4059.036898
35.410000	4057.400937
35.420000	4069.633660
35.430000	4093.731644
35.440000	4130.578797
35.450000	4176.389808
35.460000	4233.547635
35.470000	4296.365689
35.480000	4359.189536
35.490000	4415.344811
35.500000	4463.518579
35.510000	4508.345698
35.520000	4555.856537
35.530000	4608.675269
35.540000	4664.184401
35.550000	4722.014889
35.560000	4779.175141
35.570000	4836.033325
35.580000	4896.845629
35.590000	4970.065142
35.600000	5057.499140
35.610000	5146.056707
35.620000	5212.792276
35.630000	5237.388176
35.640000	5205.767870
35.650000	5116.084481
35.660000	4981.448357
35.670000	4832.826173
35.680000	4699.787182
35.690000	4596.854520
35.700000	4525.417020
35.710000	4479.187949
35.720000	4452.707674
35.730000	4441.180767
35.740000	4443.665469
35.750000	4457.825274
35.760000	4479.940587
35.770000	4504.451423
35.780000	4528.876405
35.790000	4551.731408
35.800000	4577.478476
35.810000	4607.986322
35.820000	4646.063948
35.830000	4691.880208
35.840000	4745.293503
35.850000	4804.078655
35.860000	4865.497250
35.870000	4927.921042
35.880000	4987.333923
35.890000	5042.743113
35.900000	5101.831000
35.910000	5168.857529
35.920000	5247.961291
35.930000	5333.577277
35.940000	5422.394831
35.950000	5512.930806
35.960000	5597.438266
35.970000	5671.251538
35.980000	5729.437978
35.990000	5780.564592
36.000000	5834.728673
36.010000	5898.486198
36.020000	5970.614410
36.030000	6037.989617
36.040000	6078.421131
36.050000	6080.466463
36.060000	6055.900175
36.070000	6034.933778
36.080000	6044.307420
36.090000	6085.266674
36.100000	6142.937157
36.110000	6199.188520
36.120000	6246.525084
36.130000	6287.063462
36.140000	6326.380219
36.150000	6373.870905
36.160000	6429.128040
36.170000	6485.912835
36.180000	6537.790011
36.190000	6584.550702
36.200000	6628.702385
36.210000	6673.096521
36.220000	6722.858703
36.230000	6776.860176
36.240000	6835.250821
36.250000	6896.849698
36.260000	6965.216004
36.270000	7041.055241
36.280000	7122.394796
36.290000	7208.147910
36.300000	7295.450415
36.310000	7385.463651
36.320000	7477.710479
36.330000	7572.320217
36.340000	7668.838268
36.350000	7770.051807
36.360000	7876.823633
36.370000	7990.644678
36.380000	8107.984744
36.390000	8225.089735
36.400000	8341.002885
36.410000	8458.390587
36.420000	8580.531665
36.430000	8699.165094
36.440000	8794.196301
36.450000	8846.774328
36.460000	8849.386288
36.470000	8813.593006
36.480000	8763.096134
36.490000	8720.892329
36.500000	8703.934644
36.510000	8714.626244
36.520000	8747.889733
36.530000	8795.484447
36.540000	8852.984070
36.550000	8920.813821
36.560000	8995.187037
36.570000	9072.258865
36.580000	9149.505038
36.590000	9223.474957
36.600000	9292.263003
36.610000	9356.462372
36.620000	9420.123604
36.630000	9489.544390
36.640000	9564.382968
36.650000	9644.706368
36.660000	9726.371385
36.670000	9809.616051
36.680000	9895.760106
36.690000	9988.925698
36.700000	10088.188773
36.710000	10191.614519
36.720000	10296.324880
36.730000	10396.667103
36.740000	10495.851336
36.750000	10595.074721
36.760000	10698.741658
36.770000	10804.814128
36.780000	10913.649069
36.790000	11023.218458
36.800000	11130.887181
36.810000	11235.954629
36.820000	11320.732586
36.830000	11370.012248
36.840000	11372.898428
36.850000	11331.742053
36.860000	11270.085423
36.870000	11208.420167
36.880000	11178.587278
36.890000	11185.301064
36.900000	11219.321625
36.910000	11265.429814
36.920000	11318.006671
36.930000	11377.827110
36.940000	11445.268191
36.950000	11519.792638
36.960000	11594.743419
36.970000	11666.657158
36.980000	11730.430662
36.990000	11791.092248
37.000000	11853.987671
37.010000	11924.388776
37.020000	12002.384760
37.030000	12087.865000
37.040000	12177.278501
37.050000	12269.847392
37.060000	12363.325802
37.070000	12457.318088
37.080000	12548.507190
37.090000	12640.274772
37.100000	12734.143127
37.110000	12834.357245
37.120000	12937.869254
37.130000	13044.884035
37.140000	13155.020906
37.150000	13267.160934
37.160000	13369.553749
37.170000	13442.818774
37.180000	13466.811147
37.190000	13443.923175
37.200000	13392.822498
37.210000	13350.110590
37.220000	13331.467901
37.230000	13337.940329
37.240000	13361.428294
37.250000	13397.110017
37.260000	13441.380397
37.270000	13490.591965
37.280000	13539.631440
37.290000	13597.740142
37.300000	13664.807353
37.310000	13744.506273
37.320000	13833.227745
37.330000	13924.519240
37.340000	14009.887257
37.350000	14090.794273
37.360000	14153.061772
37.370000	14221.390540
37.380000	14304.062040
37.390000	14417.536430
37.400000	14539.138200
37.410000	14654.210527
37.420000	14754.728133
37.430000	14831.365897
37.440000	14856.408261
37.450000	14860.477973
37.460000	14826.075035
37.470000	14757.089870
37.480000	14600.682557
37.490000	14408.741373
37.500000	14049.860585
37.510000	13106.001438
37.520000	11361.980054
37.530000	8919.838783
37.540000	6636.533909
37.550000	4763.361828
37.560000	3257.951884
37.570000	1741.619992
37.580000	95.396782
37.590000	-1552.140261
37.600000	-3193.534574
37.610000	-4498.068169
37.620000	-5423.993715
37.630000	-6013.305422
37.640000	-6535.168016
37.650000	-7086.171748
37.660000	-7673.545081
37.670000	-8269.401598
37.680000	-8805.616652
37.690000	-9228.487757
37.700000	-9526.632781
37.710000	-9689.750107
37.720000	-9696.804162
37.730000	-9541.916942
37.740000	-9342.187556
37.750000	-9215.972812
37.760000	-9336.284585
37.770000	-9833.820531
37.780000	-10827.267852
37.790000	-12186.916331
37.800000	-13482.032359
37.810000	-13535.581347
37.820000	-11835.179663
37.830000	-9345.086848
37.840000	-9022.308628
37.850000	-11623.999180
37.860000	-17866.437754
37.870000	-23326.463102
37.880000	-29867.283484
37.890000	-33837.756592
37.900000	-35969.858709
37.910000	-36907.531406
37.920000	-37600.910609
37.930000	-38019.979379
37.940000	-38259.725393
37.950000	-38389.452146
37.960000	-38470.288615
37.970000	-38502.871636
37.980000	-38497.332525
37.990000	-38450.049466
38.000000	-38377.903456
38.010000	-38273.973652
38.020000	-38179.759891
38.030000	-38110.986767
38.040000	-38099.159696
38.050000	-38131.718947
38.060000	-38183.371116
38.070000	-38214.598239
38.080000	-38202.487009
38.090000	-38151.751393
38.100000	-38083.852424
38.110000	-38002.397676
38.120000	-37914.441205
38.130000	-37822.918042
38.140000	-37729.917654
38.150000	-37632.652696
38.160000	-37523.278683
38.170000	-37396.296147
38.180000	-37252.228931
38.190000	-37121.932331
38.200000	-37018.041748
38.210000	-36940.783330
38.220000	-36859.688545
38.230000	-36769.290440
38.240000	-36665.930009
38.250000	-36562.100312
38.260000	-36455.390740
38.270000	-36353.533147
38.280000	-36246.064614
38.290000	-36141.615992
38.300000	-36028.614790
38.310000	-35911.675753
38.320000	-35778.718675
38.330000	-35649.088268
38.340000	-35509.666499
38.350000	-35376.513794
38.360000	-35227.775937
38.370000	-35087.998500
38.380000	-34928.670494
38.390000	-34777.901780
38.400000	-34596.308067
38.410000	-34401.555260
38.420000	-34128.309412
38.430000	-33779.318821
38.440000	-33270.994515
38.450000	-32701.165804
38.460000	-32068.656882
38.470000	-31408.692460
38.480000	-30577.738271
38.490000	-29491.622258
38.500000	-27971.128622
38.510000	-26155.994473
38.520000	-23588.774692
38.530000	-20192.139988
38.540000	-13779.082195
38.550000	-3919.547959
38.560000	8891.380268
38.570000	29780.218461
38.580000	44980.254509
38.590000	43735.131077
38.600000	44363.356997
38.610000	47460.455945
38.620000	50394.950655
38.630000	52523.047668
38.640000	54211.472563
38.650000	55369.064742
38.660000	56258.123281
38.670000	56797.966656
38.680000	57011.554029
38.690000	56645.606730
38.700000	55863.961763
38.710000	54877.541596
38.720000	54084.716910
38.730000	53559.752279
38.740000	53350.565440
38.750000	53252.099972
38.760000	53193.948024
38.770000	53080.875786
38.780000	53000.661314
38.790000	52874.018873
38.800000	52672.003409
38.810000	52274.064986
38.820000	51753.028335
38.830000	51283.204979
38.840000	51108.723259
38.850000	51275.608553
38.860000	51720.922381
38.870000	52243.096985
38.880000	52765.592331
38.890000	53155.218747
38.900000	53460.210667
38.910000	53663.271454
38.920000	53813.115079
38.930000	53875.193757
38.940000	53984.911065
38.950000	54086.007272
38.960000	54095.042531
38.970000	53834.631725
38.980000	53486.554600
38.990000	53122.338988
39.000000	52805.421228
39.010000	52224.718547
39.020000	51087.696904
39.030000	49994.230776
39.040000	49137.861335
39.050000	48554.638080
39.060000	47389.896201
39.070000	45768.374476
39.080000	45207.383561
39.090000	45580.211440
39.100000	46358.371438
39.110000	46183.694710
39.120000	45584.118854
39.130000	44840.398776
39.140000	44047.241857
39.150000	42786.567606
39.160000	41656.014097
39.170000	40602.795530
39.180000	40104.741687
39.190000	39470.295133
39.200000	39143.055821
39.210000	38954.233184
39.220000	39873.936550
39.230000	41050.590880
39.240000	43105.269328
39.250000	44251.728028
39.260000	44048.671197
39.270000	41526.064167
39.280000	24665.164501
39.290000	-14979.309388
39.300000	-23388.814109
39.310000	-24568.144957
39.320000	-24576.389905
39.330000	-24783.505856
39.340000	-24468.908053
39.350000	-24548.138663
39.360000	-24268.305314
39.370000	-24308.516107
39.380000	-24059.324796
39.390000	-24071.591394
39.400000	-23848.995249
39.410000	-23836.127437
39.420000	-23631.901981
39.430000	-23600.005355
39.440000	-23415.841890
39.450000	-23369.176334
39.460000	-23197.886941
39.470000	-23137.684037
39.480000	-22978.692522
39.490000	-22910.621757
39.500000	-22761.518649
39.510000	-22685.149174
39.520000	-22541.915179
39.530000	-22458.464931
39.540000	-22320.721729
39.550000	-22231.461453
39.560000	-22098.759184
39.570000	-22005.718064
39.580000	-21877.823313
39.590000	-21780.832946
39.600000	-21656.031850
39.610000	-21557.423514
39.620000	-21436.471193
39.630000	-21336.458254
39.640000	-21218.222145
39.650000	-21118.919939
39.660000	-21003.337459
39.670000	-20901.135282
39.680000	-20786.220659
39.690000	-20684.092087
39.700000	-20568.239392
39.710000	-20457.797791
39.720000	-20339.470937
39.730000	-20231.236173
39.740000	-20119.941865
39.750000	-20016.409923
39.760000	-19910.703149
39.770000	-19810.323331
39.780000	-19705.452887
39.790000	-19604.333169
39.800000	-19499.884726
39.810000	-19397.445186
39.820000	-19291.364900
39.830000	-19186.675369
39.840000	-19078.249531
39.850000	-18971.710846
39.860000	-18864.230002
39.870000	-18759.559961
39.880000	-18653.995266
39.890000	-18549.907312
39.900000	-18445.239398
39.910000	-18341.431330
39.920000	-18235.982356
39.930000	-18131.488133
39.940000	-18026.241304
39.950000	-17923.094178
39.960000	-17818.695395
39.970000	-17715.269736
39.980000	-17610.031828
39.990000	-17505.698303
40.000000	-17401.605224
40.010000	-17298.719170
40.020000	-17197.439683
40.030000	-17096.004742
40.040000	-16994.223681
40.050000	-16891.910025
40.060000	-16789.971419
40.070000	-16689.450676
40.080000	-16587.684797
40.090000	-16486.653950
40.100000	-16385.046285
40.110000	-16284.863990
40.120000	-16184.402332
40.130000	-16084.425857
40.140000	-15984.774421
40.150000	-15885.012321
40.160000	-15785.514094
40.170000	-15683.629070
40.180000	-15581.645732
40.190000	-15480.292976
40.200000	-15382.173564
40.210000	-15284.338861
40.220000	-15186.445193
40.230000	-15088.461565
40.240000	-14991.468393
40.250000	-14895.001007
40.260000	-14798.250664
40.270000	-14701.308544
40.280000	-14603.468551
40.290000	-14504.727909
40.300000	-14404.800888
40.310000	-14306.609887
40.320000	-14210.251082
40.330000	-14115.956250
40.340000	-14020.494081
40.350000	-13925.790644
40.360000	-13831.208699
40.370000	-13737.445404
40.380000	-13643.740637
40.390000	-13549.259145
40.400000	-13455.776716
40.410000	-13361.898847
40.420000	-13268.992659
40.430000	-13175.373307
40.440000	-13083.734548
40.450000	-12992.353584
40.460000	-12901.670940
40.470000	-12811.190383
40.480000	-12720.804612
40.490000	-12631.229357
40.500000	-12540.801957
40.510000	-12451.151122
40.520000	-12362.338882
40.530000	-12273.283683
40.540000	-12185.099083
40.550000	-12096.296244
40.560000	-12008.090349
40.570000	-11920.198073
40.580000	-11832.979772
40.590000	-11746.665531
40.600000	-11659.766650
40.610000	-11572.709875
40.620000	-11485.459926
40.630000	-11399.334905
40.640000	-11313.727447
40.650000	-11228.877623
40.660000	-11144.243937
40.670000	-11060.343380
40.680000	-10976.345806
40.690000	-10893.071628
40.700000	-10809.369025
40.710000	-10726.401744
40.720000	-10642.649051
40.730000	-10560.007364
40.740000	-10477.856824
40.750000	-10397.220627
40.760000	-10314.991455
40.770000	-10232.385642
40.780000	-10149.397550
40.790000	-10067.831996
40.800000	-9988.077601
40.810000	-9908.217950
40.820000	-9828.377212
40.830000	-9746.546626
40.840000	-9665.640154
40.850000	-9584.481716
40.860000	-9505.866093
40.870000	-9426.687073
40.880000	-9348.726254
40.890000	-9269.502447
40.900000	-9192.558891
40.910000	-9116.928845
40.920000	-9042.016713
40.930000	-8966.979426
40.940000	-8890.766135
40.950000	-8814.996765
40.960000	-8738.802005
40.970000	-8663.981860
40.980000	-8588.454724
40.990000	-8514.272849
41.000000	-8440.059541
41.010000	-8366.531360
41.020000	-8292.621436
41.030000	-8221.095859
41.040000	-8150.132956
41.050000	-8079.293092
41.060000	-8006.936781
41.070000	-7935.129380
41.080000	-7862.693808
41.090000	-7786.254916
41.100000	-7708.429036
41.110000	-7631.340592
41.120000	-7558.796743
41.130000	-7489.372738
41.140000	-7424.800226
41.150000	-7362.352634
41.160000	-7300.432981
41.170000	-7235.285565
41.180000	-7167.703276
41.190000	-7098.175414
41.200000	-7027.932684
41.210000	-6958.355363
41.220000	-6890.449991
41.230000	-6823.151072
41.240000	-6756.925441
41.250000	-6690.896131
41.260000	-6625.021956
41.270000	-6559.258973
41.280000	-6494.069968
41.290000	-6429.904154
41.300000	-6364.725761
41.310000	-6299.838639
41.320000	-6235.992312
41.330000	-6174.051163
41.340000	-6112.528869
41.350000	-6049.537747
41.360000	-5986.682173
41.370000	-5924.961780
41.380000	-5863.100256
41.390000	-5801.994694
41.400000	-5739.778836
41.410000	-5679.641385
41.420000	-5619.040007
41.430000	-5558.894319
41.440000	-5499.227149
41.450000	-5439.405551
41.460000	-5381.012105
41.470000	-5322.163923
41.480000	-5264.060414
41.490000	-5205.836373
41.500000	-5147.696238
41.510000	-5089.757959
41.520000	-5031.912241
41.530000	-4974.593238
41.540000	-4918.037936
41.550000	-4862.670600
41.560000	-4807.733256
41.570000	-4753.321117
41.580000	-4698.995833
41.590000	-4644.873090
41.600000	-4591.490686
41.610000	-4538.317733
41.620000	-4486.550346
41.630000	-4434.980265
41.640000	-4383.167677
41.650000	-4330.863254
41.660000	-4278.337382
41.670000	-4226.630290
41.680000	-4174.380045
41.690000	-4121.945873
41.700000	-4068.962110
41.710000	-4015.802425
41.720000	-3962.078541
41.730000	-3907.192354
41.740000	-3850.392640
41.750000	-3791.780157
41.760000	-3732.235168
41.770000	-3674.229348
41.780000	-3619.931254
41.790000	-3569.190578
41.800000	-3520.806856
41.810000	-3473.999331
41.820000	-3429.196099
41.830000	-3385.980009
41.840000	-3343.422086
41.850000	-3301.130865
41.860000	-3259.816998
41.870000	-3218.439984
41.880000	-3175.704770
41.890000	-3131.910842
41.900000	-3088.082340
41.910000	-3044.197061
41.920000	-2999.941086
41.930000	-2954.962207
41.940000	-2909.945415
41.950000	-2864.196651
41.960000	-2818.757930
41.970000	-2772.224775
41.980000	-2726.376553
41.990000	-2680.373347
42.000000	-2635.124551
42.010000	-2591.309435
42.020000	-2547.986473
42.030000	-2506.366690
42.040000	-2464.284571
42.050000	-2422.541055
42.060000	-2380.016522
42.070000	-2338.492664
42.080000	-2297.508388
42.090000	-2257.877302
42.100000	-2218.086830
42.110000	-2177.019413
42.120000	-2136.092030
42.130000	-2096.243403
42.140000	-2057.507987
42.150000	-2017.871708
42.160000	-1977.001859
42.170000	-1937.244008
42.180000	-1900.227065
42.190000	-1865.674361
42.200000	-1832.844253
42.210000	-1799.490468
42.220000	-1766.189027
42.230000	-1733.355906
42.240000	-1701.914892
42.250000	-1670.257334
42.260000	-1636.680014
42.270000	-1601.199561
42.280000	-1564.145287
42.290000	-1526.171848
42.300000	-1486.966933
42.310000	-1447.503212
42.320000	-1407.470446
42.330000	-1367.519107
42.340000	-1326.982059
42.350000	-1286.881176
42.360000	-1248.833316
42.370000	-1212.238298
42.380000	-1176.682686
42.390000	-1141.254770
42.400000	-1107.863632
42.410000	-1073.912463
42.420000	-1039.702562
42.430000	-1005.884228
42.440000	-974.187320
42.450000	-944.490179
42.460000	-914.635493
42.470000	-888.411194
42.480000	-864.030147
42.490000	-840.291998
42.500000	-814.374903
42.510000	-785.128322
42.520000	-755.344452
42.530000	-724.900301
42.540000	-694.255622
42.550000	-662.270927
42.560000	-630.440081
42.570000	-599.902982
42.580000	-571.215009
42.590000	-543.452720
42.600000	-515.240105
42.610000	-487.255842
42.620000	-458.838923
42.630000	-431.973286
42.640000	-404.329269
42.650000	-377.267224
42.660000	-349.374674
42.670000	-323.465089
42.680000	-298.297572
42.690000	-272.881912
42.700000	-247.772620
42.710000	-222.172568
42.720000	-197.795077
42.730000	-171.988046
42.740000	-146.362354
42.750000	-120.995389
42.760000	-96.122438
42.770000	-72.191985
42.780000	-48.063118
42.790000	-24.241026
42.800000	-0.178459
42.810000	23.532962
42.820000	46.202458
42.830000	69.814533
42.840000	92.744070
42.850000	115.944168
42.860000	138.458459
42.870000	160.592329
42.880000	182.691724
42.890000	204.093521
42.900000	225.789038
42.910000	248.122809
42.920000	270.082867
42.930000	291.357960
42.940000	311.584187
42.950000	331.808318
42.960000	352.298394
42.970000	372.475067
42.980000	392.236320
42.990000	412.036104
43.000000	431.735732
43.010000	451.832351
43.020000	471.134316
43.030000	490.207581
43.040000	508.775081
43.050000	527.500228
43.060000	545.998137
43.070000	564.383082
43.080000	582.145311
43.090000	599.530836
43.100000	616.892591
43.110000	634.281225
43.120000	651.914109
43.130000	668.304356
43.140000	685.225646
43.150000	701.938618
43.160000	719.162855
43.170000	736.194263
43.180000	752.730084
43.190000	769.084138
43.200000	784.597457
43.210000	799.950785
43.220000	816.108976
43.230000	832.460066
43.240000	848.939223
43.250000	864.621133
43.260000	879.429536
43.270000	893.778192
43.280000	908.586124
43.290000	923.266237
43.300000	937.749488
43.310000	951.094129
43.320000	965.935136
43.330000	979.924340
43.340000	994.484020
43.350000	1007.768657
43.360000	1022.070878
43.370000	1035.631976
43.380000	1049.031135
43.390000	1063.200084
43.400000	1076.357931
43.410000	1088.818095
43.420000	1098.726414
43.430000	1109.501712
43.440000	1120.137341
43.450000	1132.250604
43.460000	1144.267700
43.470000	1156.736975
43.480000	1169.130201
43.490000	1180.962004
43.500000	1192.737396
43.510000	1203.929599
43.520000	1215.096388
43.530000	1225.980518
43.540000	1237.547706
43.550000	1249.453536
43.560000	1260.091309
43.570000	1269.028914
43.580000	1278.076912
43.590000	1294.057260
43.600000	1309.465730
43.610000	1321.878807
43.620000	1328.636484
43.630000	1335.509429
43.640000	1346.926131
43.650000	1358.909526
43.660000	1371.355619
43.670000	1379.094881
43.680000	1385.611336
43.690000	1393.082392
43.700000	1402.339041
43.710000	1410.538765
43.720000	1417.890669
43.730000	1426.485763
43.740000	1434.587147
43.750000	1442.262980
43.760000	1447.439558
43.770000	1453.219442
43.780000	1457.780007
43.790000	1462.355728
43.800000	1468.629634
43.810000	1474.994099
43.820000	1480.996725
43.830000	1485.481319
43.840000	1491.228561
43.850000	1497.482564
43.860000	1503.654391
43.870000	1509.013410
43.880000	1515.620992
43.890000	1521.736687
43.900000	1528.802298
43.910000	1534.993375
43.920000	1539.866187
43.930000	1544.469350
43.940000	1548.812132
43.950000	1554.504345
43.960000	1558.636657
43.970000	1564.784502
43.980000	1572.346746
43.990000	1579.962615
44.000000	1586.293268
44.010000	1587.707125
44.020000	1585.495650
44.030000	1579.693488
44.040000	1577.298754
44.050000	1578.913495
44.060000	1582.682593
44.070000	1587.392343
44.080000	1593.330552
44.090000	1601.135056
44.100000	1611.912268
44.110000	1625.810496
44.120000	1636.748444
44.130000	1643.440214
44.140000	1645.865395
44.150000	1649.699055
44.160000	1653.245084
44.170000	1656.247663
44.180000	1658.914677
44.190000	1662.423705
44.200000	1665.204289
44.210000	1666.231600
44.220000	1666.800068
44.230000	1668.342437
44.240000	1671.031036
44.250000	1672.420815
44.260000	1673.248208
44.270000	1673.477261
44.280000	1673.783569
44.290000	1674.184170
44.300000	1675.977415
44.310000	1677.874956
44.320000	1679.500753
44.330000	1681.565040
44.340000	1683.352476
44.350000	1684.591283
44.360000	1684.874732
44.370000	1685.629419
44.380000	1687.404042
44.390000	1688.005422
44.400000	1687.955463
44.410000	1687.397615
44.420000	1687.863829
44.430000	1688.806452
44.440000	1690.131675
44.450000	1690.572837
44.460000	1691.102299
44.470000	1691.702312
44.480000	1692.441473
44.490000	1693.870584
44.500000	1694.147364
44.510000	1694.422840
44.520000	1693.224273
44.530000	1692.699047
44.540000	1693.012185
44.550000	1694.026637
44.560000	1694.852663
44.570000	1694.744998
44.580000	1694.423270
44.590000	1694.190709
44.600000	1694.391527
44.610000	1694.366903
44.620000	1693.762883
44.630000	1693.283945
44.640000	1693.206671
44.650000	1693.275457
44.660000	1692.727313
44.670000	1692.351784
44.680000	1691.660622
44.690000	1690.848445
44.700000	1689.345896
44.710000	1687.102857
44.720000	1685.794484
44.730000	1683.775631
44.740000	1682.347544
44.750000	1681.543521
44.760000	1680.331817
44.770000	1680.087693
44.780000	1678.410913
44.790000	1677.418308
44.800000	1675.589556
44.810000	1673.533128
44.820000	1672.216355
44.830000	1671.093097
44.840000	1669.962199
44.850000	1667.770941
44.860000	1665.168368
44.870000	1663.241062
44.880000	1661.162442
44.890000	1658.173268
44.900000	1656.629032
44.910000	1656.899368
44.920000	1658.561503
44.930000	1658.087025
44.940000	1656.979903
44.950000	1655.077557
44.960000	1651.873479
44.970000	1646.211080
44.980000	1640.924772
44.990000	1636.486841
45.000000	1633.794585
45.010000	1630.573191
45.020000	1627.159477
45.030000	1624.150089
45.040000	1622.684279
45.050000	1621.213266
45.060000	1619.708817
45.070000	1617.772875
45.080000	1615.567553
45.090000	1612.832518
45.100000	1609.262551
45.110000	1606.067889
45.120000	1602.793044
45.130000	1599.814108
45.140000	1597.500567
45.150000	1595.737854
45.160000	1592.717426
45.170000	1589.184389
45.180000	1585.450647
45.190000	1582.819635
45.200000	1580.365491
45.210000	1577.311450
45.220000	1573.473193
45.230000	1568.997134
45.240000	1564.777627
45.250000	1560.876918
45.260000	1557.614187
45.270000	1554.955508
45.280000	1551.648855
45.290000	1548.576417
45.300000	1543.880782
45.310000	1540.082451
45.320000	1535.977221
45.330000	1532.804903
45.340000	1529.278046
45.350000	1525.744787
45.360000	1522.125570
45.370000	1518.902348
45.380000	1515.187050
45.390000	1511.616721
45.400000	1507.799894
45.410000	1504.222582
45.420000	1499.966168
45.430000	1495.390781
45.440000	1491.360847
45.450000	1487.450638
45.460000	1483.987638
45.470000	1479.069247
45.480000	1475.192879
45.490000	1470.577282
45.500000	1466.977148
45.510000	1462.646480
45.520000	1459.009021
45.530000	1454.280542
45.540000	1450.292599
45.550000	1446.484567
45.560000	1442.487989
45.570000	1438.268867
45.580000	1432.928425
45.590000	1428.978011
45.600000	1424.272930
45.610000	1420.616226
45.620000	1417.196512
45.630000	1412.841060
45.640000	1408.381221
45.650000	1402.984949
45.660000	1398.498237
45.670000	1394.047640
45.680000	1389.879240
45.690000	1385.370156
45.700000	1380.525472
45.710000	1375.959134
45.720000	1370.766932
45.730000	1365.486066
45.740000	1361.278694
45.750000	1357.611510
45.760000	1353.059082
45.770000	1347.680004
45.780000	1342.783101
45.790000	1339.021444
45.800000	1334.108333
45.810000	1328.647975
45.820000	1323.713193
45.830000	1319.217511
45.840000	1315.600193
45.850000	1310.728511
45.860000	1305.445050
45.870000	1300.857740
45.880000	1296.571085
45.890000	1292.942142
45.900000	1286.641223
45.910000	1281.000187
45.920000	1275.991925
45.930000	1272.016961
45.940000	1267.629535
45.950000	1262.663647
45.960000	1258.565714
45.970000	1253.931045
45.980000	1249.136388
45.990000	1243.492837
46.000000	1237.675843
46.010000	1231.685511
46.020000	1226.184216
46.030000	1220.843584
46.040000	1215.996874
46.050000	1210.969029
46.060000	1206.785341
46.070000	1202.059982
46.080000	1197.552815
46.090000	1192.788297
46.100000	1187.295359
46.110000	1182.497836
46.120000	1177.675654
46.130000	1173.522510
46.140000	1168.361629
46.150000	1162.532510
46.160000	1156.361614
46.170000	1151.193603
46.180000	1147.007053
46.190000	1143.169794
46.200000	1138.301439
46.210000	1132.468516
46.220000	1128.924017
46.230000	1126.074239
46.240000	1123.872021
46.250000	1119.661502
46.260000	1114.820663
46.270000	1110.906328
46.280000	1105.416065
46.290000	1098.818053
46.300000	1090.334277
46.310000	1082.733236
46.320000	1076.574283
46.330000	1070.638869
46.340000	1064.813453
46.350000	1059.542956
46.360000	1055.383969
46.370000	1051.775789
46.380000	1047.618925
46.390000	1042.677680
46.400000	1037.189288
46.410000	1032.250124
46.420000	1027.758632
46.430000	1023.491910
46.440000	1017.995000
46.450000	1013.080471
46.460000	1008.564404
46.470000	1004.676065
46.480000	999.133516
46.490000	992.620443
46.500000	986.713077
46.510000	981.569612
46.520000	977.636130
46.530000	972.186778
46.540000	966.915368
46.550000	961.476386
46.560000	957.211271
46.570000	952.771287
46.580000	947.856716
46.590000	942.748417
46.600000	937.181930
46.610000	931.743109
46.620000	926.187378
46.630000	921.424101
46.640000	916.872474
46.650000	912.123242
46.660000	906.575318
46.670000	901.178844
46.680000	896.630253
46.690000	892.584955
46.700000	888.037316
46.710000	883.015085
46.720000	878.134407
46.730000	873.131770
46.740000	867.921509
46.750000	862.939959
46.760000	858.398608
46.770000	853.436353
46.780000	848.236925
46.790000	842.958217
46.800000	837.767998
46.810000	833.174260
46.820000	828.322416
46.830000	822.752313
46.840000	817.575913
46.850000	813.023198
46.860000	809.191455
46.870000	804.652789
46.880000	800.176406
46.890000	795.978042
46.900000	790.855114
46.910000	785.339508
46.920000	779.564635
46.930000	774.402032
46.940000	769.971572
46.950000	765.829598
46.960000	761.746126
46.970000	756.622244
46.980000	751.561292
46.990000	745.778024
47.000000	740.751419
47.010000	735.964146
47.020000	731.312251
47.030000	726.854025
47.040000	722.242349
47.050000	717.783141
47.060000	712.540207
47.070000	707.422216
47.080000	702.541153
47.090000	698.769035
47.100000	694.574863
47.110000	690.160350
47.120000	685.314209
47.130000	680.259990
47.140000	676.096783
47.150000	671.393860
47.160000	666.926944
47.170000	662.232865
47.180000	657.133434
47.190000	652.450499
47.200000	647.044084
47.210000	643.053686
47.220000	638.319796
47.230000	634.377543
47.240000	629.631082
47.250000	625.086366
47.260000	620.316561
47.270000	616.177143
47.280000	612.043374
47.290000	606.979430
47.300000	602.823797
47.310000	598.486620
47.320000	595.658422
47.330000	591.026916
47.340000	586.888911
47.350000	581.938048
47.360000	577.841904
47.370000	574.224839
47.380000	569.840707
47.390000	564.897417
47.400000	558.886258
47.410000	554.293858
47.420000	549.302539
47.430000	545.081298
47.440000	541.431435
47.450000	537.583783
47.460000	533.278577
47.470000	528.804854
47.480000	524.175601
47.490000	520.412896
47.500000	516.451314
47.510000	512.743079
47.520000	508.107396
47.530000	503.129848
47.540000	499.485079
47.550000	494.556982
47.560000	490.929397
47.570000	487.693742
47.580000	488.104564
47.590000	486.525691
47.600000	484.017924
47.610000	480.741821
47.620000	475.648131
47.630000	468.681031
47.640000	460.333711
47.650000	454.015624
47.660000	449.396564
47.670000	445.736806
47.680000	442.180312
47.690000	439.851474
47.700000	436.676818
47.710000	433.696392
47.720000	429.221015
47.730000	424.939260
47.740000	421.150220
47.750000	417.569498
47.760000	413.801570
47.770000	409.589376
47.780000	405.845531
47.790000	401.660451
47.800000	396.948091
47.810000	392.791205
47.820000	390.775298
47.830000	391.977289
47.840000	396.657111
47.850000	401.543982
47.860000	405.936407
47.870000	405.156964
47.880000	396.946336
47.890000	386.848816
47.900000	377.004461
47.910000	369.264194
47.920000	361.108341
47.930000	353.747680
47.940000	349.941101
47.950000	346.272264
47.960000	341.838921
47.970000	337.860925
47.980000	333.455974
47.990000	329.847131
48.000000	326.459939
48.010000	324.229418
48.020000	321.849768
48.030000	318.672275
48.040000	314.967633
48.050000	310.506013
48.060000	307.484494
48.070000	304.722877
48.080000	303.066057
48.090000	299.655445
48.100000	295.383868
48.110000	291.982993
48.120000	287.751655
48.130000	284.713573
48.140000	280.165988
48.150000	276.517777
48.160000	273.632973
48.170000	270.378939
48.180000	267.163939
48.190000	262.628380
48.200000	259.432462
48.210000	256.260129
48.220000	253.432090
48.230000	250.282490
48.240000	247.495456
48.250000	244.695346
48.260000	240.950741
48.270000	237.507665
48.280000	234.128804
48.290000	232.050921
48.300000	231.029722
48.310000	228.648497
48.320000	225.332096
48.330000	220.637371
48.340000	217.370437
48.350000	214.008090
48.360000	211.475931
48.370000	210.104291
48.380000	208.637542
48.390000	206.930704
48.400000	203.856971
48.410000	201.493115
48.420000	198.460793
48.430000	195.455121
48.440000	193.125070
48.450000	191.810204
48.460000	191.181451
48.470000	189.555519
48.480000	188.306856
48.490000	186.688978
48.500000	183.825883
48.510000	179.885956
48.520000	174.738076
48.530000	171.151558
48.540000	167.365154
48.550000	164.819953
48.560000	164.384657
48.570000	165.545214
48.580000	165.458426
48.590000	162.334027
48.600000	157.267444
48.610000	152.854280
48.620000	149.130077
48.630000	145.433258
48.640000	141.053209
48.650000	136.743550
48.660000	133.036348
48.670000	129.444982
48.680000	126.415977
48.690000	124.874980
48.700000	127.861984
48.710000	143.044912
48.720000	149.623677
48.730000	146.997517
48.740000	145.475847
48.750000	143.979337
48.760000	138.714373
48.770000	116.328695
48.780000	101.116737
48.790000	96.013138
48.800000	93.885182
48.810000	92.772163
48.820000	90.379730
48.830000	87.934523
48.840000	84.929825
48.850000	82.494993
48.860000	80.202569
48.870000	77.782796
48.880000	75.202838
48.890000	72.798459
48.900000	70.595745
48.910000	66.869441
48.920000	63.057440
48.930000	58.996095
48.940000	56.250593
48.950000	53.173943
48.960000	49.507547
48.970000	46.749906
48.980000	43.483083
48.990000	40.391540
49.000000	35.511211
49.010000	31.438870
49.020000	27.256155
49.030000	23.884358
49.040000	20.723329
49.050000	18.058657
49.060000	15.916134
49.070000	14.626773
49.080000	13.499079
49.090000	12.255609
49.100000	10.808763
49.110000	8.609362
49.120000	6.515129
49.130000	4.018820
49.140000	2.285511
49.150000	0.482179
49.160000	-1.215315
49.170000	-3.330393
49.180000	-4.986336
49.190000	-7.088601
49.200000	-9.027303
49.210000	-11.457757
49.220000	-13.003529
49.230000	-14.106111
49.240000	-14.919869
49.250000	-16.029916
49.260000	-18.445007
49.270000	-20.554193
49.280000	-22.917139
49.290000	-23.679570
49.300000	-24.339573
49.310000	-24.407280
49.320000	-24.706774
49.330000	-24.739213
49.340000	-24.683724
49.350000	-24.010449
49.360000	-22.603093
49.370000	-20.556913
49.380000	-18.799423
49.390000	-18.044162
49.400000	-17.934218
49.410000	-18.139587
49.420000	-17.675344
49.430000	-17.515217
49.440000	-17.020231
49.450000	-17.504432
49.460000	-17.967009
49.470000	-18.438090
49.480000	-18.855174
49.490000	-19.313853
49.500000	-20.018672
49.510000	-20.128473
49.520000	-20.127568
49.530000	-20.217436
49.540000	-21.848375
49.550000	-23.573618
49.560000	-25.849615
49.570000	-26.865472
49.580000	-28.469499
49.590000	-29.424141
49.600000	-30.369859
49.610000	-31.256256
49.620000	-31.544248
49.630000	-33.036870
49.640000	-33.984305
49.650000	-35.099702
49.660000	-35.361744
49.670000	-35.442691
49.680000	-35.680464
49.690000	-35.391766
49.700000	-35.278572
49.710000	-35.949527
49.720000	-37.149944
49.730000	-38.114880
49.740000	-37.963347
49.750000	-37.560738
49.760000	-37.719004
49.770000	-37.945437
49.780000	-37.750451
49.790000	-37.608589
49.800000	-38.392152
49.810000	-40.546420
49.820000	-41.300895
49.830000	-42.105072
49.840000	-42.146011
49.850000	-43.614583
49.860000	-44.589128
49.870000	-45.406282
49.880000	-46.307992
49.890000	-47.473837
49.900000	-48.969259
49.910000	-49.480340
49.920000	-50.915465
49.930000	-52.087785
49.940000	-53.809959
49.950000	-53.629076
49.960000	-53.325581
49.970000	-53.443157
49.980000	-54.116284
49.990000	-54.865106
50.000000	-55.183154
50.010000	-54.897562
50.020000	-54.193949
50.030000	-54.208921
50.040000	-55.145154
50.050000	-57.129730
50.060000	-59.035922
50.070000	-59.994266
50.080000	-60.540250
50.090000	-60.800731
50.100000	-60.653626
50.110000	-60.551853
50.120000	-61.377941
50.130000	-62.575462
50.140000	-63.378131
50.150000	-62.206634
50.160000	-62.000540
50.170000	-62.104419
50.180000	-62.902303
50.190000	-63.608834
50.200000	-64.082352
50.210000	-64.724603
50.220000	-64.869340
50.230000	-65.120409
50.240000	-64.595469
50.250000	-64.799336
50.260000	-65.593657
50.270000	-66.420357
50.280000	-66.868838
50.290000	-67.320146
50.300000	-67.418595
50.310000	-67.832688
50.320000	-67.573746
50.330000	-67.961520
50.340000	-68.333407
50.350000	-68.367915
50.360000	-68.705673
50.370000	-68.714112
50.380000	-69.024714
50.390000	-69.668632
50.400000	-69.951736
50.410000	-70.236027
50.420000	-70.487647
50.430000	-71.081189
50.440000	-71.965700
50.450000	-71.532048
50.460000	-71.395921
50.470000	-71.922783
50.480000	-72.767498
50.490000	-73.255920
50.500000	-72.749142
50.510000	-72.537657
50.520000	-72.336423
50.530000	-71.762419
50.540000	-71.202441
50.550000	-70.930156
50.560000	-71.011168
50.570000	-71.039873
50.580000	-71.097835
50.590000	-70.758122
50.600000	-70.797731
50.610000	-70.081033
50.620000	-68.443535
50.630000	-67.351656
50.640000	-67.029149
50.650000	-68.902129
50.660000	-70.213145
50.670000	-70.401832
50.680000	-70.344272
50.690000	-71.178764
50.700000	-71.411333
50.710000	-71.236819
50.720000	-70.420353
50.730000	-70.576414
50.740000	-71.701376
50.750000	-71.853788
50.760000	-72.267541
50.770000	-71.734193
50.780000	-72.118539
50.790000	-71.881626
50.800000	-71.250749
50.810000	-69.970746
50.820000	-68.661692
50.830000	-67.000253
50.840000	-65.350817
50.850000	-63.972413
50.860000	-61.979724
50.870000	-59.222832
50.880000	-56.888522
50.890000	-55.079809
50.900000	-53.071227
50.910000	-51.550162
50.920000	-50.193964
50.930000	-49.298332
50.940000	-48.256990
50.950000	-47.659197
50.960000	-46.926197
50.970000	-46.632596
50.980000	-46.201585
50.990000	-45.884258
51.000000	-44.415442
51.010000	-42.417045
51.020000	-40.906303
51.030000	-39.221115
51.040000	-37.675717
51.050000	-36.634503
51.060000	-36.387415
51.070000	-35.986956
51.080000	-35.043084
51.090000	-32.947892
51.100000	-31.313906
51.110000	-29.845950
51.120000	-28.527831
51.130000	-26.684510
51.140000	-25.021166
51.150000	-24.800192
51.160000	-24.448945
51.170000	-23.527857
51.180000	-22.153763
51.190000	-21.534002
51.200000	-20.126487
51.210000	-18.488007
51.220000	-17.375162
51.230000	-16.715109
51.240000	-15.897708
51.250000	-14.551519
51.260000	-13.365123
51.270000	-12.327938
51.280000	-10.772635
51.290000	-9.383275
51.300000	-7.785753
51.310000	-6.382562
51.320000	-4.404107
51.330000	-2.661283
51.340000	-0.627184
51.350000	1.115245
51.360000	3.211439
51.370000	4.946391
51.380000	6.109830
51.390000	7.505400
51.400000	9.064266
51.410000	10.789742
51.420000	12.409775
51.430000	14.133932
51.440000	16.147103
51.450000	18.202183
51.460000	19.274238
51.470000	20.668807
51.480000	21.788145
51.490000	23.865820
51.500000	25.353130
51.510000	27.128248
51.520000	28.639632
51.530000	30.452547
51.540000	31.647553
51.550000	33.508420
51.560000	35.375686
51.570000	37.291798
51.580000	38.493878
51.590000	39.805162
51.600000	41.335766
51.610000	43.043789
51.620000	45.237656
51.630000	47.004793
51.640000	48.869248
51.650000	50.021248
51.660000	51.899486
51.670000	53.757529
51.680000	55.323546
51.690000	57.222148
51.700000	59.471840
51.710000	61.076568
51.720000	63.018176
51.730000	64.652488
51.740000	66.627381
51.750000	68.284159
51.760000	69.965364
51.770000	71.975107
51.780000	73.693545
51.790000	75.394597
51.800000	77.815772
51.810000	80.871286
51.820000	83.327658
51.830000	85.077227
51.840000	85.564491
51.850000	87.685509
51.860000	90.851296
51.870000	93.350268
51.880000	95.536684
51.890000	96.738463
51.900000	99.289930
51.910000	101.508574
51.920000	103.775139
51.930000	106.337962
51.940000	108.316899
51.950000	110.899357
51.960000	112.243345
51.970000	114.531488
51.980000	116.553495
51.990000	119.897670
52.000000	123.248709
52.010000	124.989401
52.020000	126.679032
52.030000	127.467571
52.040000	130.179173
52.050000	132.658461
52.060000	135.078776
52.070000	137.575649
52.080000	140.705939
52.090000	144.551267
52.100000	147.053627
52.110000	149.261819
52.120000	151.793194
52.130000	155.031456
52.140000	157.587616
52.150000	159.865736
52.160000	163.110725
52.170000	166.420490
52.180000	169.361484
52.190000	171.033650
52.200000	172.009298
52.210000	174.377308
52.220000	177.375600
52.230000	180.782088
52.240000	183.465698
52.250000	185.917600
52.260000	189.618105
52.270000	191.767598
52.280000	194.844564
52.290000	197.332826
52.300000	200.471437
52.310000	202.950544
52.320000	205.496705
52.330000	208.961380
52.340000	212.911191
52.350000	217.366183
52.360000	219.711132
52.370000	221.174204
52.380000	222.569232
52.390000	225.710904
52.400000	228.809996
52.410000	231.978686
52.420000	235.109311
52.430000	238.640419
52.440000	241.463455
52.450000	244.366397
52.460000	247.207371
52.470000	250.152167
52.480000	252.674956
52.490000	255.333100
52.500000	258.534267
52.510000	261.569722
52.520000	264.788520
52.530000	268.197384
52.540000	271.767935
52.550000	275.884715
52.560000	278.465718
52.570000	281.642033
52.580000	284.212702
52.590000	287.464473
52.600000	291.013320
52.610000	294.010458
52.620000	297.878263
52.630000	300.270775
52.640000	304.149057
52.650000	307.241253
52.660000	310.820711
52.670000	313.929982
52.680000	317.555335
52.690000	321.004984
52.700000	323.681014
52.710000	326.809038
52.720000	330.527662
52.730000	335.003702
52.740000	338.425984
52.750000	342.264388
52.760000	345.708291
52.770000	348.917890
52.780000	352.047295
52.790000	355.294791
52.800000	358.775912
52.810000	362.394176
52.820000	366.562216
52.830000	370.212340
52.840000	373.407690
52.850000	376.420357
52.860000	380.645410
52.870000	384.007884
52.880000	387.279866
52.890000	389.980762
52.900000	393.641845
52.910000	398.003921
52.920000	402.056826
52.930000	405.751317
52.940000	408.525192
52.950000	412.560903
52.960000	416.371321
52.970000	420.764490
52.980000	424.265395
52.990000	428.029366
53.000000	432.210630
53.010000	436.680553
53.020000	440.874932
53.030000	444.051353
53.040000	447.264108
53.050000	451.475003
53.060000	455.032373
53.070000	458.958761
53.080000	462.849304
53.090000	467.163970
53.100000	471.716690
53.110000	475.084492
53.120000	479.312124
53.130000	482.378850
53.140000	486.637713
53.150000	490.379999
53.160000	494.354467
53.170000	498.095358
53.180000	501.456106
53.190000	505.531260
53.200000	509.937275
53.210000	514.684954
53.220000	518.130390
53.230000	521.897228
53.240000	526.035232
53.250000	530.825959
53.260000	533.981941
53.270000	537.147514
53.280000	540.974379
53.290000	546.852645
53.300000	551.669086
53.310000	555.948827
53.320000	560.077552
53.330000	564.091270
53.340000	568.200127
53.350000	570.608241
53.360000	573.713995
53.370000	577.163825
53.380000	581.609859
53.390000	586.093946
53.400000	590.219280
53.410000	594.404707
53.420000	598.538692
53.430000	602.426397
53.440000	606.905138
53.450000	611.488354
53.460000	616.651159
53.470000	620.921593
53.480000	625.447365
53.490000	630.394815
53.500000	635.284158
53.510000	639.242331
53.520000	642.833284
53.530000	646.798393
53.540000	651.422214
53.550000	656.059292
53.560000	659.717243
53.570000	663.365619
53.580000	667.383677
53.590000	672.712833
53.600000	678.417274
53.610000	682.763146
53.620000	686.495942
53.630000	690.184200
53.640000	694.278472
53.650000	698.306528
53.660000	702.432846
53.670000	705.795747
53.680000	709.628960
53.690000	712.981223
53.700000	715.862909
53.710000	718.535511
53.720000	720.462380
53.730000	723.129324
53.740000	725.755845
53.750000	728.759558
53.760000	732.080706
53.770000	735.755666
53.780000	739.436352
53.790000	743.451702
53.800000	747.153606
53.810000	750.179031
53.820000	753.905697
53.830000	757.262566
53.840000	762.362336
53.850000	767.029659
53.860000	771.186265
53.870000	775.493171
53.880000	779.367350
53.890000	784.991030
53.900000	789.226752
53.910000	794.195766
53.920000	798.769160
53.930000	804.098191
53.940000	808.996063
53.950000	813.026410
53.960000	817.918793
53.970000	822.970637
53.980000	828.198990
53.990000	832.934599
54.000000	837.837250
54.010000	843.251562
54.020000	848.158413
54.030000	853.593594
54.040000	858.492671
54.050000	863.625628
54.060000	868.173622
54.070000	873.347049
54.080000	879.201298
54.090000	885.082495
54.100000	891.246854
54.110000	895.492639
54.120000	899.985247
54.130000	903.908158
54.140000	909.077152
54.150000	914.996321
54.160000	920.512285
54.170000	926.434275
54.180000	931.284899
54.190000	936.222586
54.200000	940.394455
54.210000	944.690828
54.220000	949.844728
54.230000	954.828048
54.240000	960.306126
54.250000	966.971135
54.260000	975.773341
54.270000	984.108877
54.280000	990.915175
54.290000	997.255474
54.300000	1004.058948
54.310000	1008.727305
54.320000	1010.542084
54.330000	1011.874429
54.340000	1014.021675
54.350000	1018.019497
54.360000	1022.158310
54.370000	1027.502680
54.380000	1033.620569
54.390000	1039.646977
54.400000	1046.081440
54.410000	1050.778092
54.420000	1054.877969
54.430000	1057.228747
54.440000	1059.674436
54.450000	1062.666480
54.460000	1065.791952
54.470000	1066.754978
54.480000	1065.570929
54.490000	1065.172437
54.500000	1066.664996
54.510000	1070.239983
54.520000	1078.082953
54.530000	1091.623005
54.540000	1107.136781
54.550000	1119.317495
54.560000	1126.849843
54.570000	1129.662788
