Time(s)	IR_denoised_median
0.000000	1159.528081
0.010000	1159.528081
0.020000	1159.528081
0.030000	1154.427777
0.040000	1154.427777
0.050000	1154.427777
0.060000	1178.211684
0.070000	1217.762389
0.080000	1265.016374
0.090000	1289.670383
0.100000	1292.880927
0.110000	1294.928056
0.120000	1294.928056
0.130000	1308.259829
0.140000	1316.857363
0.150000	1326.870922
0.160000	1333.169584
0.170000	1348.297854
0.180000	1374.646498
0.190000	1413.776365
0.200000	1458.165439
0.210000	1525.389945
0.220000	1584.616706
0.230000	1624.120435
0.240000	1670.236071
0.250000	1737.882256
0.260000	1790.776608
0.270000	1830.809825
0.280000	1901.491449
0.290000	1947.525093
0.300000	2021.560920
0.310000	2063.989234
0.320000	2131.004706
0.330000	2201.295781
0.340000	2261.524695
0.350000	2261.524695
0.360000	2261.524695
0.370000	2207.351424
0.380000	2099.413656
0.390000	1953.961964
0.400000	1806.067082
0.410000	1703.654872
0.420000	1616.551974
0.430000	1589.598683
0.440000	1587.105249
0.450000	1587.105249
0.460000	1587.105249
0.470000	1597.968024
0.480000	1597.968024
0.490000	1597.968024
0.500000	1564.015227
0.510000	1490.008303
0.520000	1404.712209
0.530000	1312.013577
0.540000	1189.368714
0.550000	1106.302624
0.560000	1002.698824
0.570000	885.805135
0.580000	764.059404
0.590000	590.180566
0.600000	420.729901
0.610000	265.450857
0.620000	124.395971
0.630000	-27.326434
0.640000	-163.778688
0.650000	-289.168121
0.660000	-406.934102
0.670000	-506.956694
0.680000	-569.047251
0.690000	-577.744902
0.700000	-670.568477
0.710000	-770.934219
0.720000	-878.288933
0.730000	-936.963809
0.740000	-959.188771
0.750000	-967.014499
0.760000	-1105.421601
0.770000	-1351.600921
0.780000	-1577.362790
0.790000	-1781.535212
0.800000	-1927.206022
0.810000	-2017.796301
0.820000	-2017.796301
0.830000	-2017.796301
0.840000	-1986.963616
0.850000	-1986.782283
0.860000	-1963.368727
0.870000	-1894.230423
0.880000	-1832.168882
0.890000	-1820.482121
0.900000	-1813.056645
0.910000	-1813.056645
0.920000	-1813.056645
0.930000	-1831.389234
0.940000	-1831.389234
0.950000	-1831.389234
0.960000	-1800.634615
0.970000	-1777.242449
0.980000	-1767.874418
0.990000	-1732.989571
1.000000	-1726.651936
1.010000	-1725.772618
1.020000	-1717.367589
1.030000	-1699.393118
1.040000	-1668.302412
1.050000	-1609.039220
1.060000	-1528.944166
1.070000	-1448.750362
1.080000	-1391.621738
1.090000	-1360.435801
1.100000	-1358.330907
1.110000	-1349.044759
1.120000	-1328.160125
1.130000	-1268.624975
1.140000	-1268.624975
1.150000	-1268.624975
1.160000	-1327.092821
1.170000	-1497.945832
1.180000	-1694.130101
1.190000	-1855.444669
1.200000	-1986.384146
1.210000	-2098.001366
1.220000	-2168.588818
1.230000	-2180.574506
1.240000	-2180.574506
1.250000	-2180.574506
1.260000	-2143.807093
1.270000	-2129.892091
1.280000	-2129.892091
1.290000	-2129.892091
1.300000	-2146.708166
1.310000	-2156.094649
1.320000	-2183.167874
1.330000	-2183.167874
1.340000	-2183.167874
1.350000	-2146.194966
1.360000	-2090.631235
1.370000	-2050.336887
1.380000	-1987.949936
1.390000	-1928.702218
1.400000	-1869.242143
1.410000	-1785.061962
1.420000	-1705.735907
1.430000	-1635.405354
1.440000	-1585.303122
1.450000	-1535.718193
1.460000	-1465.922433
1.470000	-1388.176972
1.480000	-1304.569568
1.490000	-1218.696083
1.500000	-1160.345247
1.510000	-1105.123389
1.520000	-1039.207371
1.530000	-1039.207371
1.540000	-1039.207371
1.550000	-1045.231003
1.560000	-1158.172817
1.570000	-1311.875732
1.580000	-1423.981756
1.590000	-1557.981061
1.600000	-1680.585248
1.610000	-1712.425546
1.620000	-1712.425546
1.630000	-1712.425546
1.640000	-1639.070557
1.650000	-1550.871052
1.660000	-1481.887706
1.670000	-1444.319005
1.680000	-1444.319005
1.690000	-1444.319005
1.700000	-1445.158799
1.710000	-1450.027010
1.720000	-1450.027010
1.730000	-1445.158799
1.740000	-1427.391193
1.750000	-1377.877814
1.760000	-1321.650892
1.770000	-1299.599921
1.780000	-1269.747881
1.790000	-1216.459432
1.800000	-1173.044515
1.810000	-1115.226137
1.820000	-1080.576524
1.830000	-1056.921847
1.840000	-1034.180042
1.850000	-974.607466
1.860000	-930.095748
1.870000	-868.127355
1.880000	-796.187531
1.890000	-762.826334
1.900000	-725.094397
1.910000	-695.744782
1.920000	-695.744782
1.930000	-695.744782
1.940000	-778.002985
1.950000	-930.867007
1.960000	-1110.023366
1.970000	-1273.923194
1.980000	-1404.174293
1.990000	-1485.053702
2.000000	-1520.446100
2.010000	-1520.446100
2.020000	-1520.446100
2.030000	-1518.617804
2.040000	-1466.056926
2.050000	-1381.998845
2.060000	-1330.646291
2.070000	-1307.257555
2.080000	-1279.226116
2.090000	-1277.758478
2.100000	-1250.643723
2.110000	-1234.570405
2.120000	-1204.959819
2.130000	-1169.537747
2.140000	-1155.395710
2.150000	-1107.345615
2.160000	-1057.136794
2.170000	-1012.152867
2.180000	-978.941778
2.190000	-931.937992
2.200000	-862.860182
2.210000	-800.891834
2.220000	-763.812945
2.230000	-716.766641
2.240000	-664.941082
2.250000	-631.756758
2.260000	-585.984196
2.270000	-532.912090
2.280000	-477.090029
2.290000	-440.179001
2.300000	-385.098934
2.310000	-329.660907
2.320000	-310.680124
2.330000	-310.680124
2.340000	-310.680124
2.350000	-422.251534
2.360000	-577.141176
2.370000	-721.465955
2.380000	-837.765203
2.390000	-929.801412
2.400000	-958.333663
2.410000	-977.455558
2.420000	-987.817465
2.430000	-987.817465
2.440000	-987.817465
2.450000	-950.072555
2.460000	-925.813776
2.470000	-923.940924
2.480000	-923.235953
2.490000	-923.235953
2.500000	-923.235953
2.510000	-923.235953
2.520000	-923.235953
2.530000	-912.895278
2.540000	-888.726489
2.550000	-867.062099
2.560000	-851.550210
2.570000	-814.200282
2.580000	-760.523905
2.590000	-704.419146
2.600000	-659.554302
2.610000	-603.596145
2.620000	-555.755495
2.630000	-507.754008
2.640000	-450.009139
2.650000	-406.058537
2.660000	-346.171842
2.670000	-300.582784
2.680000	-272.314487
2.690000	-209.009257
2.700000	-155.778825
2.710000	-65.235311
2.720000	17.449325
2.730000	83.585900
2.740000	83.585900
2.750000	83.585900
2.760000	24.176606
2.770000	-109.382987
2.780000	-258.574525
2.790000	-379.749005
2.800000	-474.500405
2.810000	-529.123134
2.820000	-557.551981
2.830000	-609.645354
2.840000	-662.466139
2.850000	-662.466139
2.860000	-662.466139
2.870000	-615.871280
2.880000	-597.694266
2.890000	-597.694266
2.900000	-597.694266
2.910000	-600.773354
2.920000	-607.195580
2.930000	-607.195580
2.940000	-600.773354
2.950000	-594.132540
2.960000	-557.763222
2.970000	-530.269612
2.980000	-489.698695
2.990000	-421.470135
3.000000	-373.849562
3.010000	-332.541187
3.020000	-275.019759
3.030000	-216.758109
3.040000	-155.181462
3.050000	-115.090864
3.060000	-110.353343
3.070000	-83.266825
3.080000	-25.700717
3.090000	42.441311
3.100000	130.995122
3.110000	220.029658
3.120000	295.669998
3.130000	357.618132
3.140000	423.356982
3.150000	492.120188
3.160000	492.120188
3.170000	492.120188
3.180000	440.609801
3.190000	307.997421
3.200000	157.215662
3.210000	38.511862
3.220000	-51.358745
3.230000	-111.996622
3.240000	-111.996622
3.250000	-111.996622
3.260000	-100.569041
3.270000	-76.228125
3.280000	-17.061121
3.290000	33.127416
3.300000	33.127416
3.310000	33.127416
3.320000	-3.189571
3.330000	-11.514328
3.340000	-35.085556
3.350000	-35.085556
3.360000	-35.085556
3.370000	-33.735785
3.380000	-12.814571
3.390000	16.620398
3.400000	59.261612
3.410000	81.846865
3.420000	93.428962
3.430000	136.139548
3.440000	185.388833
3.450000	214.402422
3.460000	263.509614
3.470000	314.481478
3.480000	360.639548
3.490000	411.583080
3.500000	458.697701
3.510000	499.680667
3.520000	524.714268
3.530000	555.845226
3.540000	608.693031
3.550000	660.885681
3.560000	684.637558
3.570000	708.060682
3.580000	751.542270
3.590000	751.542270
3.600000	751.542270
3.610000	642.449050
3.620000	478.947589
3.630000	301.716841
3.640000	179.789303
3.650000	97.736608
3.660000	86.530521
3.670000	86.530521
3.680000	86.530521
3.690000	110.679632
3.700000	148.360743
3.710000	192.645292
3.720000	238.374145
3.730000	238.374145
3.740000	238.374145
3.750000	238.053905
3.760000	234.414525
3.770000	228.755510
3.780000	228.755510
3.790000	228.755510
3.800000	251.205205
3.810000	271.469258
3.820000	317.095381
3.830000	352.154495
3.840000	396.128188
3.850000	431.729514
3.860000	475.244298
3.870000	523.241795
3.880000	550.291721
3.890000	596.927303
3.900000	643.165297
3.910000	691.667684
3.920000	758.067482
3.930000	820.297804
3.940000	867.995395
3.950000	923.010277
3.960000	966.806550
3.970000	1005.785690
3.980000	1081.709548
3.990000	1141.295050
4.000000	1193.779525
4.010000	1254.817554
4.020000	1257.536621
4.030000	1257.536621
4.040000	1257.536621
4.050000	1086.251938
4.060000	906.272485
4.070000	749.130269
4.080000	613.916361
4.090000	520.061778
4.100000	458.479416
4.110000	435.032046
4.120000	423.953486
4.130000	423.953486
4.140000	423.953486
4.150000	425.358846
4.160000	425.358846
4.170000	425.358846
4.180000	389.124256
4.190000	345.396774
4.200000	326.680205
4.210000	326.680205
4.220000	326.680205
4.230000	330.060879
4.240000	330.060879
4.250000	333.028107
4.260000	338.056041
4.270000	340.943746
4.280000	342.206686
4.290000	349.874288
4.300000	394.447797
4.310000	449.984741
4.320000	495.140338
4.330000	516.765492
4.340000	565.008108
4.350000	634.394985
4.360000	679.768521
4.370000	755.299054
4.380000	810.242663
4.390000	865.401631
4.400000	940.716552
4.410000	999.350485
4.420000	1052.324208
4.430000	1096.262215
4.440000	1143.978837
4.450000	1175.085341
4.460000	1225.791585
4.470000	1286.405140
4.480000	1286.405140
4.490000	1286.405140
4.500000	1144.502097
4.510000	974.123973
4.520000	851.546359
4.530000	750.564324
4.540000	654.620124
4.550000	617.200074
4.560000	604.457045
4.570000	594.872712
4.580000	581.336564
4.590000	581.336564
4.600000	581.336564
4.610000	596.851101
4.620000	596.851101
4.630000	596.851101
4.640000	575.684996
4.650000	569.968995
4.660000	541.545580
4.670000	515.776323
4.680000	483.313644
4.690000	459.654659
4.700000	459.654659
4.710000	459.654659
4.720000	473.948008
4.730000	488.715177
4.740000	491.056828
4.750000	491.118860
4.760000	504.898143
4.770000	519.025971
4.780000	522.982897
4.790000	526.219923
4.800000	526.841907
4.810000	540.784242
4.820000	585.786870
4.830000	653.452844
4.840000	700.638188
4.850000	728.244119
4.860000	762.560841
4.870000	815.998774
4.880000	902.489070
4.890000	902.489070
4.900000	902.489070
4.910000	875.382430
4.920000	719.279516
4.930000	541.194918
4.940000	379.222184
4.950000	258.973647
4.960000	153.019544
4.970000	93.917363
4.980000	93.917363
4.990000	93.917363
5.000000	127.623465
5.010000	178.430451
5.020000	229.574443
5.030000	270.903897
5.040000	270.903897
5.050000	270.903897
5.060000	257.365098
5.070000	242.660105
5.080000	242.660105
5.090000	242.660105
5.100000	244.789762
5.110000	288.634330
5.120000	344.474851
5.130000	359.438421
5.140000	382.437047
5.150000	424.134836
5.160000	476.344669
5.170000	544.866694
5.180000	618.201622
5.190000	702.644089
5.200000	791.018057
5.210000	851.349665
5.220000	911.996293
5.230000	960.940245
5.240000	1011.038543
5.250000	1077.532860
5.260000	1161.035883
5.270000	1249.084610
5.280000	1324.013753
5.290000	1383.673557
5.300000	1446.041244
5.310000	1526.248778
5.320000	1542.070947
5.330000	1542.070947
5.340000	1542.070947
5.350000	1413.264682
5.360000	1231.918841
5.370000	1098.211817
5.380000	969.366165
5.390000	901.422105
5.400000	901.422105
5.410000	901.422105
5.420000	914.960788
5.430000	931.576236
5.440000	952.480310
5.450000	1003.574844
5.460000	1023.671383
5.470000	1023.671383
5.480000	1025.215600
5.490000	1023.671383
5.500000	1025.215600
5.510000	1028.753357
5.520000	1029.441465
5.530000	1056.018470
5.540000	1090.066383
5.550000	1112.664085
5.560000	1136.764139
5.570000	1183.316524
5.580000	1236.344889
5.590000	1269.925607
5.600000	1303.032460
5.610000	1349.503626
5.620000	1402.646208
5.630000	1464.086580
5.640000	1512.177629
5.650000	1562.753577
5.660000	1606.620899
5.670000	1655.457971
5.680000	1712.019203
5.690000	1774.127828
5.700000	1816.332040
5.710000	1858.901164
5.720000	1915.604356
5.730000	1960.542298
5.740000	2019.996150
5.750000	2076.037564
5.760000	2148.466506
5.770000	2148.466506
5.780000	2148.466506
5.790000	2053.999408
5.800000	1913.074721
5.810000	1794.563301
5.820000	1723.326318
5.830000	1646.885036
5.840000	1593.769958
5.850000	1585.155381
5.860000	1585.155381
5.870000	1585.155381
5.880000	1589.086146
5.890000	1589.086146
5.900000	1589.086146
5.910000	1545.225407
5.920000	1480.617724
5.930000	1434.080085
5.940000	1397.080327
5.950000	1367.914496
5.960000	1313.416660
5.970000	1278.923819
5.980000	1234.504707
5.990000	1226.837478
6.000000	1226.837478
6.010000	1226.837478
6.020000	1226.837478
6.030000	1226.837478
6.040000	1212.686256
6.050000	1178.726418
6.060000	1158.530528
6.070000	1141.619224
6.080000	1118.326514
6.090000	1115.561027
6.100000	1100.420924
6.110000	1100.420924
6.120000	1100.420924
6.130000	1103.595552
6.140000	1122.074801
6.150000	1122.074801
6.160000	1104.712705
6.170000	1104.712705
6.180000	1122.074801
6.190000	1131.746015
6.200000	1131.746015
6.210000	1131.746015
6.220000	1123.487966
6.230000	979.672136
6.240000	798.967471
6.250000	624.017070
6.260000	470.303913
6.270000	377.358527
6.280000	331.423405
6.290000	299.575688
6.300000	280.557141
6.310000	270.712467
6.320000	264.611128
6.330000	249.753884
6.340000	239.659551
6.350000	233.678281
6.360000	207.563981
6.370000	171.617298
6.380000	137.390499
6.390000	92.407886
6.400000	77.279300
6.410000	52.894911
6.420000	52.894911
6.430000	52.894911
6.440000	77.259126
6.450000	108.243276
6.460000	133.233736
6.470000	145.202121
6.480000	160.179454
6.490000	213.119623
6.500000	264.827107
6.510000	323.070615
6.520000	375.322419
6.530000	429.981392
6.540000	484.689397
6.550000	542.807990
6.560000	583.889991
6.570000	640.678581
6.580000	689.833340
6.590000	731.509385
6.600000	763.665220
6.610000	797.269364
6.620000	797.269364
6.630000	797.269364
6.640000	783.938716
6.650000	634.509482
6.660000	471.280357
6.670000	320.137515
6.680000	210.517209
6.690000	171.836158
6.700000	171.836158
6.710000	171.836158
6.720000	189.075317
6.730000	191.573763
6.740000	207.525654
6.750000	250.081865
6.760000	275.231017
6.770000	275.231017
6.780000	275.231017
6.790000	267.847914
6.800000	257.875791
6.810000	257.875791
6.820000	257.875791
6.830000	275.963996
6.840000	286.151550
6.850000	297.371419
6.860000	307.146264
6.870000	307.146264
6.880000	307.146264
6.890000	306.004153
6.900000	293.686095
6.910000	272.297414
6.920000	271.365949
6.930000	258.433021
6.940000	257.119390
6.950000	232.260856
6.960000	216.057365
6.970000	216.057365
6.980000	216.057365
6.990000	272.135251
7.000000	329.253038
7.010000	381.268781
7.020000	445.358003
7.030000	514.179011
7.040000	558.244969
7.050000	558.244969
7.060000	558.244969
7.070000	447.902743
7.080000	297.353826
7.090000	104.292404
7.100000	-55.919384
7.110000	-159.625709
7.120000	-261.574930
7.130000	-330.475737
7.140000	-335.400940
7.150000	-341.761058
7.160000	-341.761058
7.170000	-341.761058
7.180000	-336.440808
7.190000	-302.477375
7.200000	-228.139564
7.210000	-228.139564
7.220000	-228.139564
7.230000	-228.139564
7.240000	-228.139564
7.250000	-180.098136
7.260000	-101.885955
7.270000	-25.108813
7.280000	0.776639
7.290000	11.757075
7.300000	23.456801
7.310000	72.227261
7.320000	136.958115
7.330000	230.548544
7.340000	298.079361
7.350000	357.875988
7.360000	415.970620
7.370000	454.941577
7.380000	522.843059
7.390000	606.639507
7.400000	677.470942
7.410000	762.288406
7.420000	835.751655
7.430000	876.744126
7.440000	906.943888
7.450000	938.967697
7.460000	970.887664
7.470000	970.887664
7.480000	970.887664
7.490000	915.582002
7.500000	769.425097
7.510000	618.012082
7.520000	485.957671
7.530000	401.233975
7.540000	318.069000
7.550000	263.435671
7.560000	262.559496
7.570000	259.927675
7.580000	259.927675
7.590000	262.559496
7.600000	264.832668
7.610000	264.832668
7.620000	264.832668
7.630000	252.919771
7.640000	244.101522
7.650000	232.602373
7.660000	220.156637
7.670000	195.012251
7.680000	195.012251
7.690000	195.012251
7.700000	196.500047
7.710000	255.319723
7.720000	313.727120
7.730000	349.085946
7.740000	381.827550
7.750000	407.537670
7.760000	433.713107
7.770000	489.800763
7.780000	537.161408
7.790000	584.943518
7.800000	619.129249
7.810000	619.129249
7.820000	619.129249
7.830000	618.168282
7.840000	618.168282
7.850000	618.168282
7.860000	646.955051
7.870000	647.149390
7.880000	647.149390
7.890000	647.149390
7.900000	502.744657
7.910000	323.005838
7.920000	132.126619
7.930000	-8.305704
7.940000	-89.909638
7.950000	-130.144890
7.960000	-132.969454
7.970000	-151.121020
7.980000	-190.451438
7.990000	-190.451438
8.000000	-190.451438
8.010000	-170.458513
8.020000	-150.692438
8.030000	-115.480897
8.040000	-78.876786
8.050000	-42.757198
8.060000	-36.425204
8.070000	-20.447255
8.080000	-20.133973
8.090000	-20.133973
8.100000	-20.328825
8.110000	4.383990
8.120000	6.471215
8.130000	6.471215
8.140000	85.552092
8.150000	166.776390
8.160000	261.570646
8.170000	339.663097
8.180000	398.359620
8.190000	462.318218
8.200000	516.732105
8.210000	592.790185
8.220000	656.615002
8.230000	715.061753
8.240000	774.182018
8.250000	804.921825
8.260000	858.653447
8.270000	911.256654
8.280000	970.894230
8.290000	1021.799810
8.300000	1021.799810
8.310000	1021.799810
8.320000	904.573598
8.330000	739.890551
8.340000	603.297567
8.350000	508.481989
8.360000	431.587554
8.370000	391.859475
8.380000	365.425311
8.390000	363.999426
8.400000	349.790343
8.410000	349.790343
8.420000	349.435775
8.430000	345.843812
8.440000	345.843812
8.450000	336.889730
8.460000	322.527281
8.470000	296.536759
8.480000	296.536759
8.490000	296.536759
8.500000	307.005215
8.510000	326.774338
8.520000	356.220448
8.530000	388.636320
8.540000	405.044332
8.550000	408.198834
8.560000	408.198834
8.570000	408.198834
8.580000	396.701449
8.590000	396.701449
8.600000	396.701449
8.610000	413.502356
8.620000	413.502356
8.630000	413.502356
8.640000	396.854305
8.650000	396.854305
8.660000	395.329932
8.670000	396.854305
8.680000	397.160623
8.690000	440.009557
8.700000	487.168941
8.710000	487.168941
8.720000	487.168941
8.730000	429.534302
8.740000	234.884069
8.750000	15.399550
8.760000	-191.394276
8.770000	-339.103810
8.780000	-438.223398
8.790000	-504.016359
8.800000	-555.460373
8.810000	-589.266962
8.820000	-609.117255
8.830000	-654.016902
8.840000	-676.087135
8.850000	-695.994042
8.860000	-708.754086
8.870000	-751.133763
8.880000	-760.925685
8.890000	-777.817118
8.900000	-805.411240
8.910000	-845.911209
8.920000	-851.596780
8.930000	-851.596780
8.940000	-851.596780
8.950000	-844.409238
8.960000	-801.140472
8.970000	-777.110156
8.980000	-744.881930
8.990000	-682.251982
9.000000	-570.059754
9.010000	-506.144633
9.020000	-480.371958
9.030000	-472.441760
9.040000	-457.520372
9.050000	-457.520372
9.060000	-457.520372
9.070000	-463.384898
9.080000	-463.384898
9.090000	-463.384898
9.100000	-463.384898
9.110000	-463.384898
9.120000	-471.570679
9.130000	-471.570679
9.140000	-471.570679
9.150000	-471.570679
9.160000	-471.570679
9.170000	-514.726451
9.180000	-669.414941
9.190000	-810.313375
9.200000	-973.162351
9.210000	-1109.126152
9.220000	-1221.512524
9.230000	-1221.512524
9.240000	-1221.512524
9.250000	-1208.217531
9.260000	-1185.538107
9.270000	-1180.457555
9.280000	-1180.457555
9.290000	-1180.457555
9.300000	-1225.241448
9.310000	-1251.416569
9.320000	-1269.010304
9.330000	-1284.128135
9.340000	-1290.982493
9.350000	-1293.239716
9.360000	-1311.582812
9.370000	-1334.983628
9.380000	-1351.279508
9.390000	-1351.279508
9.400000	-1351.279508
9.410000	-1339.406407
9.420000	-1310.525588
9.430000	-1260.262855
9.440000	-1199.301455
9.450000	-1167.689606
9.460000	-1131.364633
9.470000	-1115.771868
9.480000	-1065.699547
9.490000	-1042.669204
9.500000	-1015.274869
9.510000	-968.107294
9.520000	-913.424169
9.530000	-845.996507
9.540000	-781.130180
9.550000	-715.335561
9.560000	-657.372445
9.570000	-583.087972
9.580000	-522.267749
9.590000	-522.267749
9.600000	-522.267749
9.610000	-527.802262
9.620000	-674.854782
9.630000	-822.712012
9.640000	-936.468111
9.650000	-1005.200391
9.660000	-1005.200391
9.670000	-1005.200391
9.680000	-1019.646676
9.690000	-1003.423993
9.700000	-1002.669400
9.710000	-993.510916
9.720000	-993.510916
9.730000	-993.510916
9.740000	-998.806292
9.750000	-1029.204314
9.760000	-1034.291207
9.770000	-1065.229401
9.780000	-1065.229401
9.790000	-1065.229401
9.800000	-1053.529256
9.810000	-1034.806012
9.820000	-1015.570512
9.830000	-998.316452
9.840000	-976.118644
9.850000	-961.413804
9.860000	-950.112341
9.870000	-947.147960
9.880000	-931.561400
9.890000	-913.515400
9.900000	-887.429473
9.910000	-840.446148
9.920000	-817.998126
9.930000	-805.754172
9.940000	-800.138677
9.950000	-790.719917
9.960000	-790.719917
9.970000	-788.984258
9.980000	-788.984258
9.990000	-771.280396
10.000000	-734.737031
10.010000	-734.737031
10.020000	-734.737031
10.030000	-781.097506
10.040000	-937.814069
10.050000	-1102.022359
10.060000	-1260.891821
10.070000	-1392.476246
10.080000	-1494.578749
10.090000	-1526.724764
10.100000	-1530.577991
10.110000	-1530.651609
10.120000	-1530.651609
10.130000	-1554.619004
10.140000	-1573.944574
10.150000	-1588.222913
10.160000	-1593.738817
10.170000	-1641.590837
10.180000	-1696.777402
10.190000	-1769.886939
10.200000	-1839.292094
10.210000	-1901.798999
10.220000	-1985.458660
10.230000	-2072.151024
10.240000	-2121.130567
10.250000	-2149.229364
10.260000	-2149.229364
10.270000	-2149.229364
10.280000	-2151.640827
10.290000	-2151.640827
10.300000	-2151.640827
10.310000	-2156.661782
10.320000	-2166.640606
10.330000	-2181.935784
10.340000	-2201.209546
10.350000	-2214.761196
10.360000	-2252.462099
10.370000	-2317.087646
10.380000	-2382.210420
10.390000	-2440.041769
10.400000	-2468.496447
10.410000	-2513.760852
10.420000	-2592.278690
10.430000	-2638.834003
10.440000	-2638.834003
10.450000	-2648.516248
10.460000	-2653.819914
10.470000	-2709.064108
10.480000	-2860.242984
10.490000	-3042.149699
10.500000	-3242.216950
10.510000	-3399.684245
10.520000	-3530.984548
10.530000	-3608.680186
10.540000	-3657.477502
10.550000	-3698.247961
10.560000	-3728.488833
10.570000	-3779.491315
10.580000	-3811.889020
10.590000	-3819.408622
10.600000	-3847.013107
10.610000	-3900.802455
10.620000	-3928.560357
10.630000	-3981.062540
10.640000	-3996.013965
10.650000	-4007.411750
10.660000	-4035.120736
10.670000	-4093.219753
10.680000	-4126.378834
10.690000	-4126.378834
10.700000	-4126.378834
10.710000	-4105.367301
10.720000	-4085.117462
10.730000	-4068.080696
10.740000	-4046.463445
10.750000	-4026.414333
10.760000	-4003.361648
10.770000	-3995.391556
10.780000	-3977.723132
10.790000	-3958.038601
10.800000	-3931.630864
10.810000	-3906.299864
10.820000	-3882.096745
10.830000	-3863.151303
10.840000	-3852.137117
10.850000	-3820.494942
10.860000	-3801.925944
10.870000	-3790.306095
10.880000	-3750.210613
10.890000	-3750.210613
10.900000	-3750.210613
10.910000	-3825.306502
10.920000	-4025.966096
10.930000	-4211.134166
10.940000	-4413.866771
10.950000	-4546.201045
10.960000	-4626.630668
10.970000	-4664.813689
10.980000	-4668.959790
10.990000	-4673.065505
11.000000	-4689.797792
11.010000	-4732.886789
11.020000	-4744.003482
11.030000	-4749.505303
11.040000	-4778.781128
11.050000	-4828.596813
11.060000	-4871.052565
11.070000	-4938.414018
11.080000	-5006.728919
11.090000	-5048.780428
11.100000	-5074.063093
11.110000	-5074.063093
11.120000	-5074.063093
11.130000	-5056.184512
11.140000	-5039.359030
11.150000	-5031.361501
11.160000	-5029.678237
11.170000	-5028.195698
11.180000	-5014.940506
11.190000	-5001.768399
11.200000	-4979.994866
11.210000	-4954.441635
11.220000	-4918.558338
11.230000	-4875.680781
11.240000	-4821.638328
11.250000	-4772.511030
11.260000	-4745.254525
11.270000	-4716.763337
11.280000	-4698.496000
11.290000	-4674.468847
11.300000	-4658.345679
11.310000	-4652.668754
11.320000	-4646.681916
11.330000	-4591.410599
11.340000	-4591.410599
11.350000	-4591.410599
11.360000	-4727.357939
11.370000	-4913.986248
11.380000	-5108.327793
11.390000	-5252.028894
11.400000	-5351.984019
11.410000	-5422.597204
11.420000	-5470.120737
11.430000	-5494.649293
11.440000	-5511.798550
11.450000	-5532.183855
11.460000	-5540.257287
11.470000	-5540.900185
11.480000	-5592.656092
11.490000	-5638.482426
11.500000	-5680.066534
11.510000	-5735.232054
11.520000	-5762.743877
11.530000	-5762.743877
11.540000	-5762.743877
11.550000	-5737.895840
11.560000	-5709.962048
11.570000	-5627.485303
11.580000	-5517.860472
11.590000	-5431.599189
11.600000	-5365.068329
11.610000	-5300.128556
11.620000	-5269.869360
11.630000	-5236.913966
11.640000	-5209.241627
11.650000	-5187.121910
11.660000	-5141.975382
11.670000	-5091.895750
11.680000	-5038.097430
11.690000	-5012.184628
11.700000	-4991.498897
11.710000	-4977.966340
11.720000	-4969.310956
11.730000	-4958.152958
11.740000	-4934.531610
11.750000	-4875.716918
11.760000	-4844.752709
11.770000	-4844.752709
11.780000	-4844.752709
11.790000	-4898.558923
11.800000	-4945.445001
11.810000	-5000.158264
11.820000	-5060.479358
11.830000	-5100.076528
11.840000	-5109.942901
11.850000	-5140.536142
11.860000	-5172.589359
11.870000	-5235.500194
11.880000	-5280.387921
11.890000	-5307.963850
11.900000	-5318.108336
11.910000	-5318.108336
11.920000	-5318.108336
11.930000	-5166.687061
11.940000	-4961.276995
11.950000	-4840.259473
11.960000	-4733.208689
11.970000	-4678.463187
11.980000	-4674.359088
11.990000	-4661.833800
12.000000	-4617.929146
12.010000	-4591.426117
12.020000	-4591.426117
12.030000	-4560.979224
12.040000	-4560.979224
12.050000	-4546.525930
12.060000	-4536.877782
12.070000	-4536.877782
12.080000	-4536.877782
12.090000	-4536.877782
12.100000	-4536.877782
12.110000	-4492.173397
12.120000	-4474.633278
12.130000	-4471.958601
12.140000	-4442.783181
12.150000	-4421.207305
12.160000	-4412.104527
12.170000	-4352.516883
12.180000	-4316.981696
12.190000	-4316.981696
12.200000	-4316.981696
12.210000	-4380.757172
12.220000	-4496.284141
12.230000	-4610.499069
12.240000	-4688.852085
12.250000	-4796.725329
12.260000	-4894.336295
12.270000	-4969.226932
12.280000	-5050.129085
12.290000	-5128.817605
12.300000	-5195.102145
12.310000	-5244.604973
12.320000	-5306.342689
12.330000	-5442.654626
12.340000	-5600.431871
12.350000	-5699.791401
12.360000	-5773.987351
12.370000	-5869.113863
12.380000	-5910.355995
12.390000	-5910.355995
12.400000	-5910.355995
12.410000	-5799.734025
12.420000	-5575.192751
12.430000	-5282.891576
12.440000	-4900.631674
12.450000	-4474.344283
12.460000	-4119.363792
12.470000	-3739.312594
12.480000	-3470.827474
12.490000	-3223.744009
12.500000	-2991.601520
12.510000	-2793.320014
12.520000	-2556.193181
12.530000	-2266.120632
12.540000	-1983.046216
12.550000	-1809.006957
12.560000	-1803.072911
12.570000	-1803.072911
12.580000	-1809.006957
12.590000	-2067.514155
12.600000	-2447.640704
12.610000	-2869.350371
12.620000	-3347.593831
12.630000	-3522.162811
12.640000	-3574.034210
12.650000	-3611.771410
12.660000	-3845.743434
12.670000	-4191.553799
12.680000	-4474.181271
12.690000	-4645.656777
12.700000	-4787.941686
12.710000	-4987.732533
12.720000	-4987.732533
12.730000	-4987.732533
12.740000	-4834.309237
12.750000	-4370.396613
12.760000	-4304.207393
12.770000	-4304.207393
12.780000	-4304.207393
12.790000	-4815.749491
12.800000	-5151.502301
12.810000	-5243.538069
12.820000	-5255.108767
12.830000	-5263.184296
12.840000	-5374.677296
12.850000	-5529.035552
12.860000	-5534.637295
12.870000	-5534.637295
12.880000	-5534.637295
12.890000	-5500.138701
12.900000	-5483.847788
12.910000	-5431.278103
12.920000	-5308.943959
12.930000	-5229.640641
12.940000	-5227.639154
12.950000	-5209.460303
12.960000	-5194.936283
12.970000	-5178.294158
12.980000	-5177.398666
12.990000	-5178.294158
13.000000	-5192.484155
13.010000	-5178.294158
13.020000	-5151.375283
13.030000	-5151.375283
13.040000	-5133.398792
13.050000	-5133.398792
13.060000	-5133.398792
13.070000	-5175.893580
13.080000	-5220.695368
13.090000	-5307.066805
13.100000	-5401.495683
13.110000	-5462.915686
13.120000	-5531.207478
13.130000	-5619.372612
13.140000	-5714.522718
13.150000	-5753.358281
13.160000	-5797.841812
13.170000	-5874.900112
13.180000	-5972.699381
13.190000	-6075.067467
13.200000	-6209.306261
13.210000	-6358.736361
13.220000	-6515.552246
13.230000	-6718.139209
13.240000	-6873.035504
13.250000	-7036.545074
13.260000	-7137.753255
13.270000	-7178.727488
13.280000	-7252.288509
13.290000	-7317.101779
13.300000	-7356.443761
13.310000	-7467.332884
13.320000	-7687.973856
13.330000	-7917.710898
13.340000	-8298.691000
13.350000	-8985.635445
13.360000	-9959.434475
13.370000	-10677.618037
13.380000	-10921.554556
13.390000	-11136.903918
13.400000	-11287.783287
13.410000	-11287.783287
13.420000	-11287.783287
13.430000	-11129.817255
13.440000	-11074.365855
13.450000	-11046.904401
13.460000	-10980.387044
13.470000	-10980.387044
13.480000	-10980.387044
13.490000	-11009.913787
13.500000	-11210.907913
13.510000	-11408.347657
13.520000	-11525.874995
13.530000	-11565.350369
13.540000	-11621.441560
13.550000	-11643.288457
13.560000	-11694.648435
13.570000	-11806.452243
13.580000	-11926.934318
13.590000	-12025.971820
13.600000	-12027.380171
13.610000	-12080.387050
13.620000	-12244.847082
13.630000	-12386.525637
13.640000	-12473.842212
13.650000	-12575.174799
13.660000	-12661.796348
13.670000	-12750.163375
13.680000	-12755.702945
13.690000	-12755.702945
13.700000	-12755.702945
13.710000	-12736.115165
13.720000	-12683.230563
13.730000	-12085.166970
13.740000	-11505.834567
13.750000	-11104.235966
13.760000	-10839.006442
13.770000	-10567.132798
13.780000	-10445.929714
13.790000	-10445.929714
13.800000	-10445.929714
13.810000	-10519.758047
13.820000	-10519.758047
13.830000	-10519.758047
13.840000	-10371.265954
13.850000	-9629.680004
13.860000	-8858.785534
13.870000	-7909.653680
13.880000	-6869.934599
13.890000	-5694.229680
13.900000	-4370.130028
13.910000	-3086.301661
13.920000	-2145.570644
13.930000	-1055.107851
13.940000	254.919538
13.950000	1710.796420
13.960000	3125.214594
13.970000	4477.286784
13.980000	6091.599657
13.990000	7518.804724
14.000000	9867.428869
14.010000	13979.768812
14.020000	18697.953832
14.030000	23052.451471
14.040000	26740.523315
14.050000	29585.705792
14.060000	32277.708223
14.070000	34884.500287
14.080000	36692.004239
14.090000	38109.650675
14.100000	39352.046064
14.110000	40508.749106
14.120000	41569.114521
14.130000	42497.089712
14.140000	43170.267611
14.150000	43897.947441
14.160000	44353.013483
14.170000	44353.013483
14.180000	44353.013483
14.190000	44079.845103
14.200000	43126.091548
14.210000	41738.634383
14.220000	38554.285423
14.230000	33840.300234
14.240000	27741.548764
14.250000	22704.700699
14.260000	20200.551070
14.270000	16402.978619
14.280000	14742.917668
14.290000	13740.206365
14.300000	12609.637706
14.310000	11677.938894
14.320000	10683.197765
14.330000	10077.094031
14.340000	9397.717093
14.350000	8804.429829
14.360000	8303.295365
14.370000	8303.295365
14.380000	8303.295365
14.390000	9619.935093
14.400000	11257.113261
14.410000	12174.362883
14.420000	12374.587569
14.430000	12464.968753
14.440000	12990.414456
14.450000	13393.074590
14.460000	14695.114830
14.470000	17166.653723
14.480000	20410.526219
14.490000	23190.476805
14.500000	25446.722154
14.510000	27578.117425
14.520000	29546.279469
14.530000	31388.532546
14.540000	33034.110577
14.550000	34911.894579
14.560000	36463.809255
14.570000	38096.488098
14.580000	39462.020666
14.590000	40370.102716
14.600000	40370.102716
14.610000	40370.102716
14.620000	39814.990378
14.630000	38086.967780
14.640000	33489.739837
14.650000	28420.732083
14.660000	25699.250958
14.670000	22479.770044
14.680000	22445.447330
14.690000	21163.534847
14.700000	16816.019989
14.710000	15123.463406
14.720000	14110.835233
14.730000	13669.327197
14.740000	13669.327197
14.750000	13669.327197
14.760000	14096.564974
14.770000	15407.847929
14.780000	17389.273550
14.790000	20351.416945
14.800000	23895.641656
14.810000	26437.335576
14.820000	29237.431677
14.830000	31996.574448
14.840000	33952.555241
14.850000	35662.039441
14.860000	36676.520494
14.870000	37961.990456
14.880000	39101.286106
14.890000	40350.387686
14.900000	41328.899078
14.910000	42552.839799
14.920000	43546.378010
14.930000	44637.085764
14.940000	45283.052909
14.950000	45933.634930
14.960000	46266.184331
14.970000	46626.196220
14.980000	46626.196220
14.990000	46626.196220
15.000000	45747.347031
15.010000	44944.034604
15.020000	40924.401169
15.030000	29139.964361
15.040000	23850.650809
15.050000	20169.837232
15.060000	18576.160668
15.070000	18450.211777
15.080000	17443.432106
15.090000	16930.315939
15.100000	15957.807768
15.110000	15509.228453
15.120000	14717.584177
15.130000	14132.507339
15.140000	13419.400113
15.150000	13021.382959
15.160000	12470.165915
15.170000	12038.740052
15.180000	11522.056519
15.190000	11156.740218
15.200000	10567.689083
15.210000	10177.345073
15.220000	9789.027346
15.230000	9502.161296
15.240000	9154.035582
15.250000	8851.098539
15.260000	8473.796579
15.270000	8196.207439
15.280000	7930.194189
15.290000	7652.843862
15.300000	7264.721530
15.310000	6945.578470
15.320000	6685.049510
15.330000	6494.687467
15.340000	6135.996238
15.350000	5750.136043
15.360000	5447.145570
15.370000	5321.822056
15.380000	5222.889526
15.390000	5032.862508
15.400000	4733.157868
15.410000	4545.807653
15.420000	4438.963787
15.430000	4312.791968
15.440000	4108.098219
15.450000	3860.243843
15.460000	3631.505371
15.470000	3556.082970
15.480000	3514.396092
15.490000	3366.036354
15.500000	3194.062890
15.510000	2984.877389
15.520000	2731.892873
15.530000	2420.832012
15.540000	2089.992731
15.550000	1765.870437
15.560000	1469.183672
15.570000	1163.850523
15.580000	837.528189
15.590000	552.113586
15.600000	280.698559
15.610000	140.833865
15.620000	27.308226
15.630000	-165.404913
15.640000	-372.582015
15.650000	-613.852207
15.660000	-830.242523
15.670000	-998.392785
15.680000	-1121.982084
15.690000	-1218.986729
15.700000	-1244.572530
15.710000	-1272.940306
15.720000	-1342.105576
15.730000	-1420.754732
15.740000	-1559.925344
15.750000	-1683.289142
15.760000	-1793.039839
15.770000	-1908.960168
15.780000	-1924.906007
15.790000	-1926.264012
15.800000	-2074.096001
15.810000	-2227.864672
15.820000	-2363.740912
15.830000	-2504.737530
15.840000	-2660.501817
15.850000	-2835.758719
15.860000	-2972.260747
15.870000	-3166.384693
15.880000	-3334.715058
15.890000	-3377.462646
15.900000	-3424.292590
15.910000	-3433.517763
15.920000	-3452.042553
15.930000	-3677.384266
15.940000	-4044.731370
15.950000	-4454.308204
15.960000	-4886.902697
15.970000	-5259.326567
15.980000	-5474.314377
15.990000	-5659.249806
16.000000	-5746.487066
16.010000	-5832.930446
16.020000	-5911.688870
16.030000	-5996.992001
16.040000	-6223.553169
16.050000	-6447.628966
16.060000	-6553.844193
16.070000	-6559.989048
16.080000	-6594.805841
16.090000	-6701.488529
16.100000	-6946.213414
16.110000	-7179.787680
16.120000	-7315.191300
16.130000	-7411.897046
16.140000	-7411.897046
16.150000	-7411.897046
16.160000	-7407.900536
16.170000	-7315.713266
16.180000	-7315.713266
16.190000	-7315.713266
16.200000	-7286.210973
16.210000	-7286.210973
16.220000	-7263.441635
16.230000	-7163.557711
16.240000	-7051.997522
16.250000	-6976.583027
16.260000	-6922.894201
16.270000	-6903.201066
16.280000	-6864.137654
16.290000	-6796.474967
16.300000	-6745.071843
16.310000	-6672.071365
16.320000	-6672.071365
16.330000	-6672.071365
16.340000	-6710.035665
16.350000	-6808.681853
16.360000	-6918.057090
16.370000	-7038.749880
16.380000	-7108.506934
16.390000	-7172.721751
16.400000	-7178.301583
16.410000	-7217.715801
16.420000	-7219.168415
16.430000	-7219.168415
16.440000	-7219.168415
16.450000	-7162.524834
16.460000	-7108.992158
16.470000	-7057.112207
16.480000	-7011.503256
16.490000	-7007.461223
16.500000	-6991.454441
16.510000	-6965.653919
16.520000	-6935.110813
16.530000	-6927.612884
16.540000	-6910.310962
16.550000	-6890.398607
16.560000	-6878.243020
16.570000	-6846.811170
16.580000	-6823.059252
16.590000	-6780.820000
16.600000	-6715.683661
16.610000	-6638.625704
16.620000	-6561.070076
16.630000	-6487.178351
16.640000	-6434.265583
16.650000	-6357.338863
16.660000	-6275.421907
16.670000	-6192.248324
16.680000	-6088.311257
16.690000	-5987.078550
16.700000	-5884.934789
16.710000	-5804.796012
16.720000	-5714.226418
16.730000	-5610.420705
16.740000	-5524.442608
16.750000	-5524.442608
16.760000	-5524.442608
16.770000	-5566.030170
16.780000	-5722.576930
16.790000	-5878.723815
16.800000	-5982.603084
16.810000	-6065.516262
16.820000	-6088.979720
16.830000	-6088.979720
16.840000	-6088.979720
16.850000	-6067.022422
16.860000	-6035.359199
16.870000	-5997.720249
16.880000	-5994.747481
16.890000	-5989.116500
16.900000	-5967.118292
16.910000	-5926.466861
16.920000	-5899.511999
16.930000	-5871.620939
16.940000	-5852.911399
16.950000	-5818.621851
16.960000	-5784.369217
16.970000	-5724.461668
16.980000	-5652.893206
16.990000	-5563.207259
17.000000	-5466.431901
17.010000	-5404.007767
17.020000	-5337.727891
17.030000	-5274.914011
17.040000	-5195.935142
17.050000	-5119.916557
17.060000	-5063.128942
17.070000	-5001.808035
17.080000	-4941.406349
17.090000	-4896.733012
17.100000	-4834.564037
17.110000	-4756.770964
17.120000	-4672.763357
17.130000	-4600.858627
17.140000	-4600.858627
17.150000	-4600.858627
17.160000	-4614.205267
17.170000	-4728.095650
17.180000	-4855.474572
17.190000	-4950.176682
17.200000	-4990.866716
17.210000	-5008.859073
17.220000	-5008.859073
17.230000	-5008.859073
17.240000	-4981.684165
17.250000	-4930.169021
17.260000	-4851.310227
17.270000	-4794.706009
17.280000	-4758.882447
17.290000	-4728.294615
17.300000	-4724.651056
17.310000	-4713.827718
17.320000	-4705.641946
17.330000	-4698.434608
17.340000	-4681.717580
17.350000	-4663.204141
17.360000	-4627.846981
17.370000	-4573.127967
17.380000	-4515.150979
17.390000	-4444.107614
17.400000	-4379.666442
17.410000	-4330.190197
17.420000	-4263.207196
17.430000	-4198.557334
17.440000	-4122.800823
17.450000	-4054.159086
17.460000	-3995.503294
17.470000	-3934.874435
17.480000	-3837.300186
17.490000	-3745.965350
17.500000	-3679.192946
17.510000	-3613.107743
17.520000	-3534.284988
17.530000	-3439.451778
17.540000	-3419.980453
17.550000	-3419.980453
17.560000	-3419.980453
17.570000	-3550.907601
17.580000	-3716.414252
17.590000	-3853.854905
17.600000	-3960.207215
17.610000	-4054.059973
17.620000	-4123.116737
17.630000	-4163.492488
17.640000	-4182.263641
17.650000	-4188.039706
17.660000	-4188.039706
17.670000	-4201.175471
17.680000	-4204.088463
17.690000	-4204.088463
17.700000	-4235.924440
17.710000	-4265.445268
17.720000	-4278.181449
17.730000	-4278.181449
17.740000	-4278.181449
17.750000	-4247.728385
17.760000	-4212.692295
17.770000	-4190.600023
17.780000	-4174.731465
17.790000	-4174.591358
17.800000	-4142.035859
17.810000	-4115.724830
17.820000	-4088.645380
17.830000	-4032.056601
17.840000	-3992.722665
17.850000	-3985.563675
17.860000	-3955.873838
17.870000	-3914.518295
17.880000	-3873.297337
17.890000	-3839.733205
17.900000	-3773.864716
17.910000	-3712.435320
17.920000	-3651.599352
17.930000	-3569.368529
17.940000	-3471.693813
17.950000	-3409.348872
17.960000	-3409.348872
17.970000	-3409.348872
17.980000	-3525.529134
17.990000	-3675.134366
18.000000	-3849.473791
18.010000	-3988.075247
18.020000	-4094.895001
18.030000	-4161.283063
18.040000	-4172.603266
18.050000	-4172.603266
18.060000	-4172.603266
18.070000	-4170.221275
18.080000	-4137.281568
18.090000	-4137.281568
18.100000	-4137.281568
18.110000	-4159.637646
18.120000	-4222.220238
18.130000	-4274.680576
18.140000	-4308.245365
18.150000	-4339.102039
18.160000	-4339.102039
18.170000	-4339.102039
18.180000	-4324.921361
18.190000	-4305.945742
18.200000	-4300.244584
18.210000	-4284.449193
18.220000	-4275.571545
18.230000	-4263.837302
18.240000	-4232.530718
18.250000	-4195.647925
18.260000	-4160.811905
18.270000	-4153.849397
18.280000	-4129.239287
18.290000	-4103.564878
18.300000	-4086.993735
18.310000	-4060.546221
18.320000	-4024.147226
18.330000	-3986.901072
18.340000	-3971.688001
18.350000	-3927.403292
18.360000	-3864.750211
18.370000	-3825.343163
18.380000	-3781.977209
18.390000	-3781.977209
18.400000	-3781.977209
18.410000	-3819.959767
18.420000	-3938.177494
18.430000	-4105.795727
18.440000	-4258.550211
18.450000	-4380.123883
18.460000	-4405.273465
18.470000	-4405.273465
18.480000	-4405.273465
18.490000	-4364.124157
18.500000	-4283.641021
18.510000	-4171.704072
18.520000	-4014.314439
18.530000	-3883.887957
18.540000	-3784.166508
18.550000	-3712.421961
18.560000	-3695.154489
18.570000	-3687.446168
18.580000	-3684.257164
18.590000	-3683.201893
18.600000	-3647.331958
18.610000	-3583.690381
18.620000	-3551.041384
18.630000	-3504.213026
18.640000	-3419.181304
18.650000	-3349.321052
18.660000	-3269.478706
18.670000	-3176.864012
18.680000	-3076.170500
18.690000	-2969.774750
18.700000	-2876.281290
18.710000	-2780.968648
18.720000	-2692.832161
18.730000	-2588.448674
18.740000	-2508.935677
18.750000	-2429.122209
18.760000	-2357.507425
18.770000	-2305.178771
18.780000	-2232.315416
18.790000	-2143.734134
18.800000	-2032.467359
18.810000	-1928.768149
18.820000	-1913.624858
18.830000	-1913.624858
18.840000	-1913.624858
18.850000	-2014.088543
18.860000	-2130.822425
18.870000	-2230.161419
18.880000	-2306.473799
18.890000	-2308.178922
18.900000	-2308.178922
18.910000	-2308.178922
18.920000	-2262.316219
18.930000	-2213.212507
18.940000	-2137.217886
18.950000	-2078.809762
18.960000	-2034.363897
18.970000	-2006.801347
18.980000	-1975.822364
18.990000	-1956.265542
19.000000	-1932.573301
19.010000	-1919.187933
19.020000	-1893.598372
19.030000	-1845.519350
19.040000	-1770.013384
19.050000	-1721.388538
19.060000	-1679.599010
19.070000	-1665.745341
19.080000	-1620.337655
19.090000	-1542.637627
19.100000	-1484.594868
19.110000	-1414.674204
19.120000	-1363.395829
19.130000	-1289.887718
19.140000	-1198.694254
19.150000	-1111.520783
19.160000	-1033.318768
19.170000	-988.579299
19.180000	-931.120630
19.190000	-860.133556
19.200000	-773.289098
19.210000	-702.151337
19.220000	-651.754783
19.230000	-584.421531
19.240000	-557.167881
19.250000	-557.167881
19.260000	-557.167881
19.270000	-652.933810
19.280000	-805.980721
19.290000	-946.980563
19.300000	-1063.316443
19.310000	-1109.219190
19.320000	-1116.204292
19.330000	-1116.204292
19.340000	-1109.219190
19.350000	-1102.219289
19.360000	-1052.775869
19.370000	-988.680593
19.380000	-955.780048
19.390000	-949.453089
19.400000	-949.453089
19.410000	-949.453089
19.420000	-955.421349
19.430000	-955.421349
19.440000	-955.421349
19.450000	-936.380086
19.460000	-920.418443
19.470000	-874.886744
19.480000	-828.944444
19.490000	-780.666669
19.500000	-732.841525
19.510000	-679.780938
19.520000	-636.151619
19.530000	-583.159892
19.540000	-544.935668
19.550000	-509.796015
19.560000	-464.069254
19.570000	-436.904212
19.580000	-396.389056
19.590000	-359.500065
19.600000	-304.956619
19.610000	-238.522485
19.620000	-156.850898
19.630000	-72.940989
19.640000	7.925384
19.650000	77.281679
19.660000	121.201089
19.670000	121.201089
19.680000	121.201089
19.690000	11.989685
19.700000	-119.138374
19.710000	-237.642631
19.720000	-340.911740
19.730000	-384.505716
19.740000	-393.176237
19.750000	-393.176237
19.760000	-393.176237
19.770000	-371.872803
19.780000	-335.129365
19.790000	-321.022467
19.800000	-321.022467
19.810000	-321.022467
19.820000	-367.901749
19.830000	-446.870919
19.840000	-563.592473
19.850000	-692.973753
19.860000	-760.485687
19.870000	-775.748633
19.880000	-775.748633
19.890000	-775.748633
19.900000	-747.299284
19.910000	-704.867174
19.920000	-674.470134
19.930000	-643.212916
19.940000	-613.015136
19.950000	-586.894513
19.960000	-567.892415
19.970000	-525.816415
19.980000	-464.193257
19.990000	-403.114125
20.000000	-366.835212
20.010000	-327.598003
20.020000	-293.905145
20.030000	-261.374229
20.040000	-223.295774
20.050000	-179.494837
20.060000	-103.941171
20.070000	-37.123271
20.080000	3.151255
20.090000	3.151255
20.100000	3.151255
20.110000	-24.426334
20.120000	-156.318101
20.130000	-320.268653
20.140000	-455.729619
20.150000	-549.561056
20.160000	-618.936400
20.170000	-622.553542
20.180000	-622.553542
20.190000	-618.936400
20.200000	-610.359947
20.210000	-578.024067
20.220000	-539.057672
20.230000	-496.302596
20.240000	-496.302596
20.250000	-496.302596
20.260000	-499.390615
20.270000	-500.640670
20.280000	-501.580708
20.290000	-501.580708
20.300000	-501.580708
20.310000	-482.298372
20.320000	-453.066455
20.330000	-407.175728
20.340000	-360.922137
20.350000	-282.226243
20.360000	-218.300903
20.370000	-162.433222
20.380000	-100.964436
20.390000	-55.038904
20.400000	-9.831559
20.410000	23.983729
20.420000	61.069989
20.430000	101.666560
20.440000	149.682163
20.450000	220.081034
20.460000	250.784743
20.470000	287.494274
20.480000	342.499025
20.490000	398.530528
20.500000	413.331135
20.510000	413.331135
20.520000	413.331135
20.530000	300.369240
20.540000	186.526102
20.550000	97.282565
20.560000	3.279674
20.570000	-76.962671
20.580000	-76.962671
20.590000	-76.962671
20.600000	-68.955365
20.610000	-48.604062
20.620000	-18.005668
20.630000	0.115831
20.640000	0.115831
20.650000	0.115831
20.660000	-2.816208
20.670000	-11.263753
20.680000	-25.740237
20.690000	-46.307755
20.700000	-46.307755
20.710000	-46.307755
20.720000	-33.420185
20.730000	2.797814
20.740000	40.756739
20.750000	58.919645
20.760000	83.789063
20.770000	109.677231
20.780000	152.605895
20.790000	201.084846
20.800000	240.139460
20.810000	294.328055
20.820000	340.269078
20.830000	365.329214
20.840000	383.200134
20.850000	433.130407
20.860000	486.675806
20.870000	532.710403
20.880000	599.992959
20.890000	667.887361
20.900000	762.170907
20.910000	846.317713
20.920000	846.317713
20.930000	846.317713
20.940000	730.573080
20.950000	587.772055
20.960000	433.860783
20.970000	319.058548
20.980000	264.808121
20.990000	263.003204
21.000000	263.003204
21.010000	263.003204
21.020000	264.664655
21.030000	276.344675
21.040000	312.932101
21.050000	346.363895
21.060000	392.062808
21.070000	392.062808
21.080000	392.062808
21.090000	376.360035
21.100000	359.624909
21.110000	343.777236
21.120000	332.572265
21.130000	332.572265
21.140000	332.572265
21.150000	370.091931
21.160000	396.025899
21.170000	416.987580
21.180000	435.218835
21.190000	445.614968
21.200000	468.813244
21.210000	469.221960
21.220000	471.241665
21.230000	502.764210
21.240000	544.806306
21.250000	610.580183
21.260000	686.066414
21.270000	763.169114
21.280000	797.985444
21.290000	800.664349
21.300000	841.828991
21.310000	870.584813
21.320000	880.971516
21.330000	880.971516
21.340000	880.971516
21.350000	755.672185
21.360000	573.392136
21.370000	385.863000
21.380000	211.484022
21.390000	46.757015
21.400000	-65.533104
21.410000	-119.686433
21.420000	-119.686433
21.430000	-119.686433
21.440000	-89.374803
21.450000	-64.523704
21.460000	-64.523704
21.470000	-64.523704
21.480000	-78.891275
21.490000	-92.074549
21.500000	-112.937844
21.510000	-115.760753
21.520000	-134.377804
21.530000	-148.527667
21.540000	-148.527667
21.550000	-148.527667
21.560000	-139.148379
21.570000	-113.663746
21.580000	-95.333452
21.590000	-69.064315
21.600000	-36.790853
21.610000	1.314934
21.620000	29.484422
21.630000	42.499209
21.640000	65.619996
21.650000	106.412005
21.660000	139.442597
21.670000	179.212676
21.680000	179.212676
21.690000	179.212676
21.700000	169.259045
21.710000	129.226141
21.720000	112.201472
21.730000	112.201472
21.740000	112.201472
21.750000	112.201472
21.760000	112.201472
21.770000	-15.641979
21.780000	-147.858487
21.790000	-297.302730
21.800000	-418.324040
21.810000	-497.265747
21.820000	-523.155336
21.830000	-523.155336
21.840000	-523.155336
21.850000	-507.659450
21.860000	-481.355905
21.870000	-432.166945
21.880000	-399.909638
21.890000	-399.909638
21.900000	-399.909638
21.910000	-440.456345
21.920000	-470.651829
21.930000	-470.651829
21.940000	-470.651829
21.950000	-444.958729
21.960000	-394.109594
21.970000	-361.378314
21.980000	-324.656771
21.990000	-308.398144
22.000000	-302.112955
22.010000	-273.819211
22.020000	-234.633207
22.030000	-230.004164
22.040000	-218.704521
22.050000	-218.642829
22.060000	-174.685198
22.070000	-129.895418
22.080000	-82.473202
22.090000	-38.367856
22.100000	-16.494788
22.110000	13.096546
22.120000	66.248096
22.130000	101.206573
22.140000	132.951209
22.150000	152.054569
22.160000	183.554584
22.170000	183.554584
22.180000	183.554584
22.190000	76.023268
22.200000	-81.803197
22.210000	-232.799514
22.220000	-353.687865
22.230000	-443.874869
22.240000	-511.406298
22.250000	-511.406298
22.260000	-511.406298
22.270000	-498.132200
22.280000	-450.009548
22.290000	-374.640596
22.300000	-287.821380
22.310000	-239.428062
22.320000	-220.400178
22.330000	-220.400178
22.340000	-220.400178
22.350000	-222.412535
22.360000	-225.578892
22.370000	-233.333471
22.380000	-225.578892
22.390000	-225.578892
22.400000	-220.884179
22.410000	-193.150228
22.420000	-171.588013
22.430000	-157.088517
22.440000	-153.477293
22.450000	-130.108882
22.460000	-94.647917
22.470000	-66.336536
22.480000	-19.871048
22.490000	25.138229
22.500000	87.838685
22.510000	148.332803
22.520000	179.355865
22.530000	218.533920
22.540000	256.573126
22.550000	295.595974
22.560000	339.625820
22.570000	394.493834
22.580000	462.500284
22.590000	525.166718
22.600000	525.166718
22.610000	525.166718
22.620000	525.042378
22.630000	416.677238
22.640000	276.685649
22.650000	162.796146
22.660000	82.026022
22.670000	36.739261
22.680000	23.187195
22.690000	20.107388
22.700000	20.107388
22.710000	20.107388
22.720000	21.986907
22.730000	21.986907
22.740000	21.986907
22.750000	11.248819
22.760000	-0.222685
22.770000	-11.010326
22.780000	-14.384527
22.790000	-14.384527
22.800000	-11.010326
22.810000	2.665260
22.820000	34.996451
22.830000	70.592616
22.840000	96.631428
22.850000	120.423047
22.860000	145.103318
22.870000	169.680194
22.880000	169.680194
22.890000	175.106019
22.900000	186.346453
22.910000	205.112983
22.920000	247.394967
22.930000	275.497199
22.940000	322.202976
22.950000	362.576609
22.960000	419.998001
22.970000	455.339235
22.980000	512.877585
22.990000	566.765319
23.000000	606.656384
23.010000	660.152843
23.020000	660.152843
23.030000	660.152843
23.040000	598.453723
23.050000	463.674233
23.060000	310.671939
23.070000	203.878633
23.080000	125.525513
23.090000	91.920257
23.100000	91.920257
23.110000	90.825609
23.120000	91.920257
23.130000	91.920257
23.140000	90.825609
23.150000	68.346257
23.160000	49.909734
23.170000	39.534730
23.180000	-0.634719
23.190000	-53.258096
23.200000	-111.339945
23.210000	-154.145003
23.220000	-178.223928
23.230000	-178.223928
23.240000	-178.223928
23.250000	-171.479624
23.260000	-162.307533
23.270000	-129.598017
23.280000	-69.735854
23.290000	17.145825
23.300000	119.678044
23.310000	218.742008
23.320000	266.888303
23.330000	294.426484
23.340000	315.930612
23.350000	329.942740
23.360000	375.961768
23.370000	438.184000
23.380000	510.898079
23.390000	570.253412
23.400000	661.903795
23.410000	733.933879
23.420000	744.662586
23.430000	744.662586
23.440000	744.662586
23.450000	612.103893
23.460000	437.410365
23.470000	297.681775
23.480000	221.908641
23.490000	140.873050
23.500000	140.873050
23.510000	140.873050
23.520000	151.208124
23.530000	184.605502
23.540000	216.626239
23.550000	276.456369
23.560000	290.649045
23.570000	302.514987
23.580000	302.514987
23.590000	309.361090
23.600000	314.447020
23.610000	315.424803
23.620000	331.120907
23.630000	332.578203
23.640000	352.133330
23.650000	379.598153
23.660000	397.580061
23.670000	436.093450
23.680000	476.786264
23.690000	519.531582
23.700000	562.882079
23.710000	600.850943
23.720000	656.953075
23.730000	709.941967
23.740000	758.975163
23.750000	798.916693
23.760000	844.948990
23.770000	892.734174
23.780000	943.835825
23.790000	988.417565
23.800000	1006.592696
23.810000	1041.171211
23.820000	1086.113859
23.830000	1118.189733
23.840000	1118.189733
23.850000	1118.189733
23.860000	1017.048588
23.870000	877.575984
23.880000	753.500235
23.890000	662.765071
23.900000	605.805270
23.910000	576.838910
23.920000	560.988861
23.930000	560.988861
23.940000	560.988861
23.950000	576.855850
23.960000	604.983883
23.970000	612.473841
23.980000	612.473841
23.990000	612.473841
24.000000	598.532416
24.010000	572.187119
24.020000	542.180003
24.030000	542.180003
24.040000	542.180003
24.050000	550.251278
24.060000	562.241254
24.070000	594.695379
24.080000	610.470843
24.090000	623.186392
24.100000	646.608610
24.110000	686.563644
24.120000	721.579723
24.130000	754.917416
24.140000	786.450388
24.150000	810.164130
24.160000	856.330086
24.170000	883.122446
24.180000	936.360374
24.190000	978.762626
24.200000	1005.389833
24.210000	1050.420818
24.220000	1081.146372
24.230000	1110.114321
24.240000	1151.819477
24.250000	1206.680585
24.260000	1206.680585
24.270000	1206.680585
24.280000	1170.055399
24.290000	1040.305864
24.300000	897.563958
24.310000	787.633725
24.320000	712.865808
24.330000	672.866837
24.340000	655.115693
24.350000	655.115693
24.360000	655.115693
24.370000	659.133315
24.380000	679.175223
24.390000	684.258128
24.400000	684.258128
24.410000	684.258128
24.420000	666.516505
24.430000	648.437481
24.440000	637.944049
24.450000	620.469273
24.460000	620.469273
24.470000	620.469273
24.480000	647.713351
24.490000	656.087491
24.500000	690.209354
24.510000	718.491116
24.520000	743.714522
24.530000	777.834767
24.540000	828.121709
24.550000	848.948073
24.560000	876.669058
24.570000	908.869930
24.580000	934.106681
24.590000	951.736561
24.600000	982.518220
24.610000	1034.483392
24.620000	1066.710476
24.630000	1119.368126
24.640000	1159.617397
24.650000	1210.321029
24.660000	1241.293788
24.670000	1274.331858
24.680000	1313.837534
24.690000	1313.837534
24.700000	1313.837534
24.710000	1301.959611
24.720000	1169.749625
24.730000	1003.663268
24.740000	869.258304
24.750000	781.141712
24.760000	700.534997
24.770000	606.583936
24.780000	509.812324
24.790000	432.974100
24.800000	389.979605
24.810000	385.252344
24.820000	358.884219
24.830000	299.578010
24.840000	276.924791
24.850000	225.446373
24.860000	179.152166
24.870000	131.115733
24.880000	93.344854
24.890000	73.686849
24.900000	66.304492
24.910000	64.119131
24.920000	54.380262
24.930000	46.956960
24.940000	46.956960
24.950000	46.956960
24.960000	44.836641
24.970000	44.836641
24.980000	44.836641
24.990000	20.345860
25.000000	-0.400230
25.010000	-0.677775
25.020000	-3.397155
25.030000	-10.168808
25.040000	-10.168808
25.050000	-10.168808
25.060000	-4.097581
25.070000	27.987082
25.080000	60.003602
25.090000	81.837135
25.100000	101.063855
25.110000	101.063855
25.120000	101.063855
25.130000	11.389419
25.140000	-147.323479
25.150000	-315.920605
25.160000	-441.518579
25.170000	-502.406685
25.180000	-546.996844
25.190000	-550.783186
25.200000	-564.773331
25.210000	-575.650673
25.220000	-575.650673
25.230000	-593.121941
25.240000	-597.524256
25.250000	-598.197079
25.260000	-623.407613
25.270000	-662.978492
25.280000	-706.340649
25.290000	-737.837704
25.300000	-757.735883
25.310000	-758.708952
25.320000	-760.416642
25.330000	-765.812909
25.340000	-767.000205
25.350000	-770.666878
25.360000	-767.000205
25.370000	-765.812909
25.380000	-743.860867
25.390000	-707.293507
25.400000	-686.391656
25.410000	-685.001871
25.420000	-684.852482
25.430000	-680.703479
25.440000	-676.156849
25.450000	-658.474042
25.460000	-631.033644
25.470000	-613.821461
25.480000	-586.219807
25.490000	-554.334919
25.500000	-514.471688
25.510000	-490.015388
25.520000	-454.679766
25.530000	-444.178618
25.540000	-444.178618
25.550000	-444.178618
25.560000	-590.024734
25.570000	-726.149860
25.580000	-840.536608
25.590000	-947.285311
25.600000	-1021.032531
25.610000	-1081.637368
25.620000	-1105.501448
25.630000	-1117.214077
25.640000	-1122.009447
25.650000	-1122.009447
25.660000	-1122.009447
25.670000	-1130.365917
25.680000	-1130.365917
25.690000	-1147.050675
25.700000	-1193.449595
25.710000	-1214.235867
25.720000	-1214.235867
25.730000	-1214.235867
25.740000	-1193.962603
25.750000	-1169.623588
25.760000	-1147.762942
25.770000	-1129.086104
25.780000	-1084.572307
25.790000	-1018.731219
25.800000	-948.506154
25.810000	-882.443421
25.820000	-830.533931
25.830000	-763.136541
25.840000	-716.833167
25.850000	-669.758500
25.860000	-628.299160
25.870000	-592.451856
25.880000	-565.863910
25.890000	-546.217338
25.900000	-512.465505
25.910000	-475.157657
25.920000	-458.191588
25.930000	-457.107680
25.940000	-442.937709
25.950000	-365.085412
25.960000	-293.100689
25.970000	-200.887066
25.980000	-142.570379
25.990000	-116.621985
26.000000	-98.029342
26.010000	-81.849824
26.020000	-79.247804
26.030000	-79.247804
26.040000	-53.343460
26.050000	18.452554
26.060000	119.104802
26.070000	211.012334
26.080000	262.485461
26.090000	328.727187
26.100000	410.633632
26.110000	410.633632
26.120000	410.633632
26.130000	389.432662
26.140000	333.282595
26.150000	277.595450
26.160000	251.717007
26.170000	251.717007
26.180000	251.717007
26.190000	309.682669
26.200000	404.626329
26.210000	488.601692
26.220000	600.694234
26.230000	712.254444
26.240000	773.624431
26.250000	804.016565
26.260000	818.463574
26.270000	843.731550
26.280000	898.200526
26.290000	959.254980
26.300000	1052.992510
26.310000	1112.755674
26.320000	1118.460747
26.330000	1125.953540
26.340000	1149.168990
26.350000	1184.398340
26.360000	1252.556541
26.370000	1256.344767
26.380000	1256.344767
26.390000	1256.344767
26.400000	1113.729069
26.410000	987.387160
26.420000	838.892546
26.430000	724.613068
26.440000	659.866528
26.450000	605.613022
26.460000	605.613022
26.470000	605.613022
26.480000	606.035805
26.490000	614.077142
26.500000	623.036367
26.510000	623.036367
26.520000	623.036367
26.530000	601.198739
26.540000	554.722805
26.550000	531.963853
26.560000	530.587048
26.570000	530.587048
26.580000	530.587048
26.590000	534.220206
26.600000	544.301167
26.610000	545.993802
26.620000	555.649139
26.630000	557.178494
26.640000	588.392486
26.650000	613.581481
26.660000	633.477109
26.670000	654.925655
26.680000	701.532161
26.690000	734.021528
26.700000	792.730275
26.710000	853.865661
26.720000	895.858882
26.730000	962.814542
26.740000	1040.752305
26.750000	1040.752305
26.760000	1040.752305
26.770000	1016.285556
26.780000	881.665752
26.790000	754.882197
26.800000	641.510458
26.810000	583.502783
26.820000	548.461257
26.830000	548.461257
26.840000	548.461257
26.850000	563.816986
26.860000	579.768574
26.870000	634.507273
26.880000	675.120498
26.890000	675.120498
26.900000	675.120498
26.910000	657.347917
26.920000	634.375194
26.930000	632.460288
26.940000	626.589786
26.950000	626.589786
26.960000	626.589786
26.970000	637.649646
26.980000	665.659095
26.990000	689.489675
27.000000	702.690804
27.010000	736.354762
27.020000	748.443453
27.030000	769.340408
27.040000	819.089194
27.050000	855.075290
27.060000	873.763435
27.070000	892.789316
27.080000	922.338034
27.090000	954.373937
27.100000	978.827500
27.110000	1027.995182
27.120000	1093.499247
27.130000	1093.499247
27.140000	1093.499247
27.150000	971.626053
27.160000	843.093409
27.170000	711.581194
27.180000	594.644420
27.190000	527.503353
27.200000	500.059282
27.210000	500.059282
27.220000	500.059282
27.230000	544.322606
27.240000	570.132347
27.250000	616.238100
27.260000	621.517118
27.270000	621.517118
27.280000	621.517118
27.290000	577.095524
27.300000	531.213209
27.310000	491.799432
27.320000	488.885029
27.330000	488.885029
27.340000	488.885029
27.350000	494.525576
27.360000	495.231825
27.370000	513.838077
27.380000	534.653385
27.390000	567.132559
27.400000	603.941436
27.410000	644.357484
27.420000	679.117994
27.430000	696.487257
27.440000	705.262257
27.450000	734.583883
27.460000	763.178694
27.470000	788.642635
27.480000	816.025557
27.490000	859.636420
27.500000	895.677002
27.510000	895.677002
27.520000	895.677002
27.530000	798.624339
27.540000	639.551590
27.550000	479.444667
27.560000	388.081211
27.570000	333.893249
27.580000	308.580953
27.590000	308.580953
27.600000	308.580953
27.610000	322.340632
27.620000	369.568407
27.630000	416.325427
27.640000	416.325427
27.650000	416.325427
27.660000	407.048688
27.670000	363.321683
27.680000	315.129486
27.690000	281.205107
27.700000	275.938947
27.710000	275.938947
27.720000	275.938947
27.730000	277.645555
27.740000	295.661674
27.750000	300.129491
27.760000	315.457684
27.770000	351.471667
27.780000	381.050075
27.790000	398.770860
27.800000	422.603689
27.810000	440.885198
27.820000	446.064689
27.830000	451.953850
27.840000	482.448574
27.850000	546.877226
27.860000	561.471038
27.870000	561.471038
27.880000	561.471038
27.890000	448.519961
27.900000	302.455880
27.910000	168.690540
27.920000	64.865564
27.930000	-24.338420
27.940000	-52.306061
27.950000	-52.306061
27.960000	-52.306061
27.970000	-51.211687
27.980000	-37.731381
27.990000	-14.033649
28.000000	-14.033649
28.010000	-14.033649
28.020000	-36.273334
28.030000	-76.437659
28.040000	-109.469576
28.050000	-128.144256
28.060000	-129.793564
28.070000	-153.080078
28.080000	-157.420564
28.090000	-157.524846
28.100000	-157.524846
28.110000	-157.420564
28.120000	-138.750272
28.130000	-108.072124
28.140000	-73.201020
28.150000	-61.793674
28.160000	-28.571401
28.170000	-8.857027
28.180000	1.044490
28.190000	27.019208
28.200000	47.407966
28.210000	65.842612
28.220000	81.636819
28.230000	111.590813
28.240000	111.590813
28.250000	111.590813
28.260000	-17.470825
28.270000	-189.113133
28.280000	-365.859083
28.290000	-478.352716
28.300000	-568.679942
28.310000	-635.600285
28.320000	-680.635839
28.330000	-683.917010
28.340000	-685.885753
28.350000	-693.133811
28.360000	-700.289236
28.370000	-710.009758
28.380000	-735.344033
28.390000	-777.927787
28.400000	-819.611278
28.410000	-875.067411
28.420000	-923.914110
28.430000	-946.340888
28.440000	-974.492335
28.450000	-996.626929
28.460000	-1006.218383
28.470000	-1022.116560
28.480000	-1026.979306
28.490000	-1026.979306
28.500000	-1026.979306
28.510000	-1026.724374
28.520000	-1008.743332
28.530000	-986.757317
28.540000	-975.863496
28.550000	-957.835546
28.560000	-942.197025
28.570000	-927.019801
28.580000	-908.663656
28.590000	-900.388596
28.600000	-859.113977
28.610000	-859.113977
28.620000	-859.113977
28.630000	-882.128805
28.640000	-1030.178146
28.650000	-1206.010955
28.660000	-1374.975129
28.670000	-1515.068317
28.680000	-1628.980666
28.690000	-1687.178165
28.700000	-1739.345022
28.710000	-1789.303526
28.720000	-1802.746356
28.730000	-1846.849540
28.740000	-1860.938665
28.750000	-1877.794556
28.760000	-1917.237882
28.770000	-1949.746724
28.780000	-1998.825574
28.790000	-2061.769888
28.800000	-2099.456355
28.810000	-2105.024905
28.820000	-2120.364379
28.830000	-2128.261038
28.840000	-2139.492814
28.850000	-2140.574131
28.860000	-2144.952129
28.870000	-2146.844077
28.880000	-2147.133931
28.890000	-2147.133931
28.900000	-2147.133931
28.910000	-2106.983857
28.920000	-2069.127270
28.930000	-2055.679579
28.940000	-2036.119677
28.950000	-2029.655461
28.960000	-2028.180563
28.970000	-2016.755988
28.980000	-2002.445192
28.990000	-1977.960296
29.000000	-1977.960296
29.010000	-1977.960296
29.020000	-2041.673578
29.030000	-2227.654054
29.040000	-2411.234256
29.050000	-2584.416483
29.060000	-2731.916979
29.070000	-2813.251536
29.080000	-2862.947332
29.090000	-2903.194058
29.100000	-2930.046992
29.110000	-2956.323420
29.120000	-2956.323420
29.130000	-2956.323420
29.140000	-2956.528531
29.150000	-2956.528531
29.160000	-2975.607813
29.170000	-3049.931465
29.180000	-3099.345299
29.190000	-3142.553127
29.200000	-3142.553127
29.210000	-3142.553127
29.220000	-3137.171014
29.230000	-3083.132115
29.240000	-2996.257129
29.250000	-2912.268898
29.260000	-2859.457120
29.270000	-2789.328497
29.280000	-2691.895972
29.290000	-2611.670256
29.300000	-2519.263695
29.310000	-2407.203386
29.320000	-2297.843848
29.330000	-2215.872743
29.340000	-2116.361912
29.350000	-2022.858571
29.360000	-1895.834399
29.370000	-1770.175703
29.380000	-1635.308188
29.390000	-1497.664941
29.400000	-1372.932003
29.410000	-1307.546847
29.420000	-1307.546847
29.430000	-1307.546847
29.440000	-1386.123170
29.450000	-1386.123170
29.460000	-1386.123170
29.470000	-1322.340094
29.480000	-1208.230715
29.490000	-1075.786675
29.500000	-942.102263
29.510000	-810.310356
29.520000	-670.051315
29.530000	-596.181765
29.540000	-548.659463
29.550000	-548.659463
29.560000	-548.659463
29.570000	-594.410678
29.580000	-675.777482
29.590000	-738.421455
29.600000	-812.234194
29.610000	-898.459979
29.620000	-963.701266
29.630000	-1042.790479
29.640000	-1150.216105
29.650000	-1295.209242
29.660000	-1430.678004
29.670000	-1542.820239
29.680000	-1640.301451
29.690000	-1745.567953
29.700000	-1755.854272
29.710000	-1758.250387
29.720000	-1789.690309
29.730000	-1789.690309
29.740000	-1777.788999
29.750000	-1777.788999
29.760000	-1777.788999
29.770000	-1757.327137
29.780000	-1757.327137
29.790000	-1757.327137
29.800000	-1877.208415
29.810000	-2084.523931
29.820000	-2292.274270
29.830000	-2447.899459
29.840000	-2556.581725
29.850000	-2665.472112
29.860000	-2782.863140
29.870000	-2879.019825
29.880000	-2964.333070
29.890000	-3088.753280
29.900000	-3186.561158
29.910000	-3247.714258
29.920000	-3351.106848
29.930000	-3472.463911
29.940000	-3545.608174
29.950000	-3545.608174
29.960000	-3545.608174
29.970000	-3492.711493
29.980000	-3405.616924
29.990000	-3293.939559
30.000000	-3293.316261
30.010000	-3288.990624
30.020000	-3288.990624
30.030000	-3290.734949
30.040000	-3290.734949
30.050000	-3288.990624
30.060000	-3133.668762
30.070000	-2953.063551
30.080000	-2873.956685
30.090000	-2783.788061
30.100000	-2690.622756
30.110000	-2601.555084
30.120000	-2550.405734
30.130000	-2540.168157
30.140000	-2537.271285
30.150000	-2496.915441
30.160000	-2387.081862
30.170000	-2284.854327
30.180000	-2264.826601
30.190000	-2264.826601
30.200000	-2264.826601
30.210000	-2452.782943
30.220000	-2648.245010
30.230000	-2814.082699
30.240000	-2935.747560
30.250000	-2935.747560
30.260000	-2935.747560
30.270000	-2879.056387
30.280000	-2809.622906
30.290000	-2718.393945
30.300000	-2606.222582
30.310000	-2606.222582
30.320000	-2606.222582
30.330000	-2615.895509
30.340000	-2646.725542
30.350000	-2648.462760
30.360000	-2648.462760
30.370000	-2648.462760
30.380000	-2640.853285
30.390000	-2640.853285
30.400000	-2640.853285
30.410000	-2640.853285
30.420000	-2639.424493
30.430000	-2612.053966
30.440000	-2553.905262
30.450000	-2515.783891
30.460000	-2514.043013
30.470000	-2476.244516
30.480000	-2450.484126
30.490000	-2414.481874
30.500000	-2368.956136
30.510000	-2329.726128
30.520000	-2290.330044
30.530000	-2221.869511
30.540000	-2166.858489
30.550000	-2166.858489
30.560000	-2166.858489
30.570000	-2168.153980
30.580000	-2274.189266
30.590000	-2405.495378
30.600000	-2523.998509
30.610000	-2603.811774
30.620000	-2652.839621
30.630000	-2686.084240
30.640000	-2688.532372
30.650000	-2705.453842
30.660000	-2705.453842
30.670000	-2705.453842
30.680000	-2705.665523
30.690000	-2705.665523
30.700000	-2705.665523
30.710000	-2729.176538
30.720000	-2757.994179
30.730000	-2773.093609
30.740000	-2773.093609
30.750000	-2773.093609
30.760000	-2751.727561
30.770000	-2718.282525
30.780000	-2691.079312
30.790000	-2669.635884
30.800000	-2641.289424
30.810000	-2595.885163
30.820000	-2545.446678
30.830000	-2471.935282
30.840000	-2383.556589
30.850000	-2272.820013
30.860000	-2147.583511
30.870000	-1978.474463
30.880000	-1780.601686
30.890000	-1554.956310
30.900000	-1287.441673
30.910000	-1068.585836
30.920000	-891.872499
30.930000	-802.211037
30.940000	-766.941750
30.950000	-693.520272
30.960000	-623.224096
30.970000	-551.546329
30.980000	-407.162520
30.990000	-239.741319
31.000000	-93.920759
31.010000	44.394360
31.020000	182.474597
31.030000	296.620304
31.040000	415.191254
31.050000	530.929724
31.060000	602.999973
31.070000	668.640851
31.080000	717.869242
31.090000	731.519983
31.100000	748.093087
31.110000	796.572138
31.120000	822.289301
31.130000	846.036631
31.140000	875.657986
31.150000	902.667254
31.160000	939.297502
31.170000	997.514002
31.180000	1048.043544
31.190000	1093.671518
31.200000	1130.998235
31.210000	1182.127630
31.220000	1242.110074
31.230000	1289.773538
31.240000	1321.507391
31.250000	1346.695263
31.260000	1373.143379
31.270000	1402.846898
31.280000	1432.012195
31.290000	1449.229193
31.300000	1487.256746
31.310000	1540.764125
31.320000	1540.764125
31.330000	1540.764125
31.340000	1490.314690
31.350000	1372.005227
31.360000	1259.081862
31.370000	1142.610125
31.380000	1089.333710
31.390000	1046.165480
31.400000	1035.966792
31.410000	1035.966792
31.420000	1035.966792
31.430000	1044.111211
31.440000	1082.363612
31.450000	1122.133188
31.460000	1122.133188
31.470000	1122.133188
31.480000	1106.782899
31.490000	1084.205755
31.500000	1075.978203
31.510000	1075.978203
31.520000	1075.488942
31.530000	1075.488942
31.540000	1077.005631
31.550000	1088.969852
31.560000	1108.622068
31.570000	1113.228144
31.580000	1131.222300
31.590000	1150.709027
31.600000	1169.184304
31.610000	1194.557097
31.620000	1216.437238
31.630000	1245.807657
31.640000	1271.977019
31.650000	1310.479204
31.660000	1335.755467
31.670000	1347.574410
31.680000	1380.987474
31.690000	1412.869030
31.700000	1435.623879
31.710000	1477.626719
31.720000	1519.495914
31.730000	1548.376573
31.740000	1548.376573
31.750000	1548.376573
31.760000	1424.178468
31.770000	1269.560949
31.780000	1145.096667
31.790000	1065.002202
31.800000	1008.304864
31.810000	974.873699
31.820000	974.873699
31.830000	974.873699
31.840000	979.296002
31.850000	1007.361164
31.860000	1009.079016
31.870000	1009.079016
31.880000	1009.079016
31.890000	975.256198
31.900000	932.596409
31.910000	886.874673
31.920000	849.544943
31.930000	848.383231
31.940000	848.383231
31.950000	848.383231
31.960000	862.573808
31.970000	873.320939
31.980000	895.756009
31.990000	924.634691
32.000000	938.327543
32.010000	963.517797
32.020000	992.242900
32.030000	1015.840274
32.040000	1045.656814
32.050000	1078.568907
32.060000	1109.513596
32.070000	1141.770938
32.080000	1183.837470
32.090000	1207.326705
32.100000	1242.780502
32.110000	1284.241791
32.120000	1312.147982
32.130000	1312.147982
32.140000	1312.147982
32.150000	1166.930409
32.160000	1002.904173
32.170000	846.418275
32.180000	724.644995
32.190000	630.288837
32.200000	570.906167
32.210000	547.646085
32.220000	547.646085
32.230000	547.646085
32.240000	561.066691
32.250000	612.479272
32.260000	615.041011
32.270000	615.041011
32.280000	615.041011
32.290000	588.564045
32.300000	537.762073
32.310000	512.509740
32.320000	502.005227
32.330000	502.005227
32.340000	502.005227
32.350000	514.106336
32.360000	538.297111
32.370000	558.687584
32.380000	582.850442
32.390000	612.774023
32.400000	646.916728
32.410000	676.364984
32.420000	721.590607
32.430000	770.395209
32.440000	800.768639
32.450000	835.080529
32.460000	878.434549
32.470000	912.238157
32.480000	942.708078
32.490000	976.939760
32.500000	1015.507332
32.510000	1066.206903
32.520000	1104.766277
32.530000	1104.766277
32.540000	1104.766277
32.550000	1067.372189
32.560000	897.189287
32.570000	707.167585
32.580000	559.487010
32.590000	460.371322
32.600000	383.258729
32.610000	327.211491
32.620000	316.668206
32.630000	316.458003
32.640000	316.458003
32.650000	316.458003
32.660000	311.340215
32.670000	311.340215
32.680000	311.340215
32.690000	279.006191
32.700000	267.936009
32.710000	267.936009
32.720000	267.936009
32.730000	323.526860
32.740000	368.432409
32.750000	409.799065
32.760000	480.595677
32.770000	531.443017
32.780000	588.566494
32.790000	630.558007
32.800000	734.411416
32.810000	900.067166
32.820000	1042.631095
32.830000	1135.345720
32.840000	1204.608437
32.850000	1310.329932
32.860000	1386.856455
32.870000	1448.150295
32.880000	1526.774964
32.890000	1606.457839
32.900000	1666.303994
32.910000	1757.588715
32.920000	1867.283404
32.930000	1948.254789
32.940000	1948.254789
32.950000	1948.254789
32.960000	1865.831777
32.970000	1740.882904
32.980000	1625.289826
32.990000	1594.025779
33.000000	1594.025779
33.010000	1594.025779
33.020000	1615.796340
33.030000	1634.603778
33.040000	1643.010797
33.050000	1649.877009
33.060000	1684.934786
33.070000	1700.183543
33.080000	1700.183543
33.090000	1700.183543
33.100000	1672.676000
33.110000	1657.541369
33.120000	1624.299036
33.130000	1606.587241
33.140000	1606.587241
33.150000	1606.587241
33.160000	1629.400110
33.170000	1658.052364
33.180000	1685.990319
33.190000	1707.192727
33.200000	1732.301660
33.210000	1746.941320
33.220000	1765.370157
33.230000	1795.352141
33.240000	1831.082998
33.250000	1868.450754
33.260000	1907.491900
33.270000	1947.232771
33.280000	2000.626732
33.290000	2052.627049
33.300000	2108.508018
33.310000	2108.508018
33.320000	2108.508018
33.330000	2053.546263
33.340000	1935.264213
33.350000	1813.008341
33.360000	1721.332233
33.370000	1691.161063
33.380000	1691.161063
33.390000	1691.161063
33.400000	1691.246344
33.410000	1722.624712
33.420000	1756.411701
33.430000	1817.896774
33.440000	1865.102313
33.450000	1883.956792
33.460000	1899.613256
33.470000	1900.630173
33.480000	1905.922716
33.490000	1942.040917
33.500000	1956.733376
33.510000	1975.383756
33.520000	2005.214235
33.530000	2030.384539
33.540000	2081.545265
33.550000	2144.987144
33.560000	2196.572481
33.570000	2258.442841
33.580000	2333.273354
33.590000	2402.568644
33.600000	2452.717006
33.610000	2527.582773
33.620000	2580.643953
33.630000	2643.544206
33.640000	2720.228493
33.650000	2808.222716
33.660000	2828.727046
33.670000	2828.727046
33.680000	2828.727046
33.690000	2718.511850
33.700000	2596.815494
33.710000	2495.209019
33.720000	2433.613428
33.730000	2394.545839
33.740000	2385.222468
33.750000	2369.507728
33.760000	2361.715061
33.770000	2342.121964
33.780000	2340.089119
33.790000	2339.358367
33.800000	2314.185381
33.810000	2306.529764
33.820000	2282.824007
33.830000	2248.090074
33.840000	2248.090074
33.850000	2248.090074
33.860000	2256.647249
33.870000	2275.540772
33.880000	2302.606932
33.890000	2342.765692
33.900000	2380.265258
33.910000	2415.791818
33.920000	2461.712347
33.930000	2512.526156
33.940000	2552.890284
33.950000	2605.122393
33.960000	2635.673803
33.970000	2667.633759
33.980000	2736.250817
33.990000	2793.677508
34.000000	2842.855762
34.010000	2842.855762
34.020000	2842.855762
34.030000	2765.278973
34.040000	2683.605568
34.050000	2596.852157
34.060000	2537.210219
34.070000	2537.210219
34.080000	2537.210219
34.090000	2555.840817
34.100000	2592.047446
34.110000	2631.434258
34.120000	2674.133482
34.130000	2734.833701
34.140000	2756.789604
34.150000	2756.789604
34.160000	2756.789604
34.170000	2738.297090
34.180000	2709.475594
34.190000	2683.014534
34.200000	2679.454278
34.210000	2673.612238
34.220000	2652.389397
34.230000	2625.886090
34.240000	2585.803780
34.250000	2500.036623
34.260000	2480.231478
34.270000	2480.231478
34.280000	2480.231478
34.290000	2525.562272
34.300000	2550.030482
34.310000	2588.120206
34.320000	2701.672792
34.330000	2845.151335
34.340000	2961.050281
34.350000	3076.182022
34.360000	3326.495395
34.370000	3600.300305
34.380000	3600.300305
34.390000	3600.300305
34.400000	3369.079127
34.410000	3051.019642
34.420000	2758.221148
34.430000	2440.212052
34.440000	2058.161484
34.450000	1638.349357
34.460000	1240.960710
34.470000	879.122871
34.480000	453.215404
34.490000	49.170831
34.500000	-374.114337
34.510000	-653.455973
34.520000	-853.305488
34.530000	-1012.248259
34.540000	-1287.058107
34.550000	-1287.058107
34.560000	-1287.058107
34.570000	-1001.271522
34.580000	-777.424453
34.590000	-694.945246
34.600000	-643.991051
34.610000	-493.800493
34.620000	-294.293160
34.630000	-140.017850
34.640000	-2.497171
34.650000	41.461487
34.660000	48.272637
34.670000	55.273484
34.680000	83.757499
34.690000	83.757499
34.700000	83.757499
34.710000	20.005537
34.720000	-93.271223
34.730000	-198.552991
34.740000	-285.597003
34.750000	-365.412661
34.760000	-420.086387
34.770000	-451.570204
34.780000	-513.962570
34.790000	-552.673064
34.800000	-553.192939
34.810000	-556.171776
34.820000	-595.649765
34.830000	-660.792095
34.840000	-683.193575
34.850000	-721.005359
34.860000	-780.841423
34.870000	-827.349182
34.880000	-860.833259
34.890000	-895.978780
34.900000	-938.045706
34.910000	-975.809815
34.920000	-985.470532
34.930000	-1023.721766
34.940000	-1023.721766
34.950000	-1028.274447
34.960000	-1023.721766
34.970000	-1015.794885
34.980000	-995.869691
34.990000	-923.267540
35.000000	-778.091070
35.010000	-556.587778
35.020000	-334.780231
35.030000	-334.780231
35.040000	-334.780231
35.050000	-379.519266
35.060000	-487.876040
35.070000	-533.715082
35.080000	-533.715082
35.090000	-533.715082
35.100000	-509.869029
35.110000	-486.012924
35.120000	-464.873443
35.130000	-443.545399
35.140000	-378.015161
35.150000	-284.493606
35.160000	-284.493606
35.170000	-284.493606
35.180000	-310.991459
35.190000	-348.229379
35.200000	-378.018845
35.210000	-380.668297
35.220000	-401.848452
35.230000	-408.782800
35.240000	-408.782800
35.250000	-408.782800
35.260000	-363.221911
35.270000	-336.076806
35.280000	-309.186550
35.290000	-296.711204
35.300000	-282.319138
35.310000	-220.517276
35.320000	-180.017237
35.330000	-141.333017
35.340000	-105.022366
35.350000	-75.411154
35.360000	-19.176203
35.370000	31.077454
35.380000	31.077454
35.390000	31.077454
35.400000	18.258527
35.410000	-93.115089
35.420000	-201.352766
35.430000	-297.569521
35.440000	-363.190082
35.450000	-370.250870
35.460000	-370.250870
35.470000	-370.250870
35.480000	-360.153594
35.490000	-325.959073
35.500000	-263.983371
35.510000	-250.295950
35.520000	-249.725835
35.530000	-248.446076
35.540000	-244.467003
35.550000	-244.467003
35.560000	-233.932044
35.570000	-231.930919
35.580000	-210.276263
35.590000	-184.769052
35.600000	-161.848204
35.610000	-125.799811
35.620000	-116.827233
35.630000	-95.866397
35.640000	-88.236670
35.650000	-54.007374
35.660000	-21.086066
35.670000	13.683300
35.680000	49.800798
35.690000	73.082659
35.700000	116.563590
35.710000	158.076612
35.720000	160.030194
35.730000	195.119620
35.740000	255.020382
35.750000	338.929363
35.760000	338.929363
35.770000	338.929363
35.780000	265.203883
35.790000	143.698116
35.800000	61.732828
35.810000	2.400521
35.820000	-22.278562
35.830000	-28.980794
35.840000	-44.975323
35.850000	-117.671775
35.860000	-227.340101
35.870000	-309.744312
35.880000	-361.761639
35.890000	-361.761639
35.900000	-361.761639
35.910000	-353.255069
35.920000	-217.368203
35.930000	-217.368203
35.940000	-213.043061
35.950000	-212.682672
35.960000	-212.682672
35.970000	24.872301
35.980000	247.190705
35.990000	489.792096
36.000000	671.488661
36.010000	684.618803
36.020000	684.618803
36.030000	684.618803
36.040000	640.976643
36.050000	640.976643
36.060000	610.822350
36.070000	610.822350
36.080000	610.822350
36.090000	437.543627
36.100000	152.596090
36.110000	-55.076645
36.120000	-208.467717
36.130000	-369.058141
36.140000	-461.411051
36.150000	-555.695203
36.160000	-609.300344
36.170000	-691.896429
36.180000	-691.896429
36.190000	-691.896429
36.200000	-681.319061
36.210000	-517.711573
36.220000	-321.615644
36.230000	-267.845233
36.240000	-267.845233
36.250000	-267.845233
36.260000	-374.213507
36.270000	-374.213507
36.280000	-374.213507
36.290000	-348.189788
