2025-07-21 15:06:44    绿光---红外光---红光---X轴---Y轴---Z轴
81644 296533 341769 -15406 5625 -1685
81547 296484 341720 -15417 5767 -1649
81456 296450 341681 -15466 5879 -1609
81344 296360 341579 -15507 5938 -1573
81229 296230 341407 -15530 5942 -1565
81145 296116 341256 -15536 5883 -1603
81085 295990 341072 -15450 5619 -1641
81071 295934 340990 -15439 5441 -1714
81094 295977 341028 -15474 5209 -1803
81098 295960 340985 -15545 4996 -1883
81101 295920 340923 -15588 4873 -1933
81149 296009 341015 -15541 4824 -1955
81220 296135 341151 -15456 4821 -1960
81282 296221 341220 -15409 4819 -1984
81354 296286 341271 -15394 4791 -2023
81431 296341 341314 -15379 4745 -2099
81507 296358 341300 -15401 4733 -2103
81548 296278 341167 -15409 4691 -2123
81587 296196 341029 -15417 4647 -2146
81616 296089 340844 -15447 4624 -2165
81657 296014 340729 -15447 4640 -2155
81716 295972 340639 -15388 4670 -2146
81792 295957 340587 -15326 4677 -2166
81872 295969 340585 -15310 4681 -2179
81962 296030 340632 -15320 4701 -2216
82063 296121 340729 -15334 4709 -2262
82138 296187 340816 -15364 4710 -2282
82137 296200 340857 -15409 4733 -2293
82068 296187 340885 -15424 4769 -2286
81972 296181 340895 -15406 4813 -2269
81874 296181 340881 -15414 4868 -2270
81785 296155 340856 -15455 4912 -2288
81689 296122 340809 -15492 4948 -2279
81597 296078 340774 -15495 4988 -2256
81517 296085 340793 -15471 4998 -2244
81450 296128 340851 -15442 4993 -2254
81406 296187 340882 -15439 4968 -2278
81408 296254 340925 -15449 4931 -2282
81418 296301 340960 -15452 4913 -2272
81434 296323 340958 -15469 4909 -2256
81452 296338 340958 -15492 4931 -2224
81479 296359 340969 -15501 4943 -2211
81513 296384 340997 -15491 4922 -2208
81559 296439 341039 -15489 4893 -2200
81611 296464 341068 -15490 4881 -2219
81662 296508 341097 -15469 4882 -2282
81731 296542 341130 -15463 4864 -2317
81805 296625 341198 -15471 4836 -2297
81879 296686 341245 -15468 4826 -2290
81942 296700 341257 -15461 4833 -2290
81995 296698 341209 -15446 4860 -2281
82043 296653 341126 -15429 4890 -2270
82086 296557 340969 -15429 4903 -2263
82127 296458 340816 -15445 4893 -2274
82191 296409 340717 -15459 4865 -2282
82264 296396 340680 -15423 4840 -2344
82359 296445 340724 -15428 4827 -2308
82434 296506 340786 -15427 4851 -2272
82431 296482 340820 -15454 4901 -2239
82361 296425 340791 -15459 4927 -2224
82276 296360 340742 -15424 4913 -2239
82187 296304 340689 -15415 4897 -2262
82108 296240 340615 -15429 4894 -2274
82018 296178 340567 -15435 4917 -2265
81937 296149 340530 -15410 4966 -2256
81857 296122 340522 -15389 4993 -2261
81791 296144 340551 -15407 4971 -2264
81750 296178 340595 -15433 4934 -2271
81742 296234 340640 -15440 4911 -2272
81758 296273 340675 -15433 4885 -2263
81783 296293 340679 -15436 4864 -2257
81808 296286 340662 -15443 4861 -2251
81829 296292 340652 -15432 4870 -2237
81864 296288 340647 -15412 4871 -2242
81905 296290 340650 -15418 4888 -2308
81953 296305 340646 -15424 4903 -2308
81999 296300 340630 -15426 4902 -2278
82054 296297 340604 -15430 4906 -2254
82112 296296 340574 -15441 4919 -2240
82175 296299 340566 -15438 4929 -2236
82252 296344 340592 -15426 4927 -2234
82331 296400 340633 -15427 4906 -2254
82414 296441 340659 -15433 4880 -2275
82498 296504 340712 -15426 4869 -2301
82587 296518 340711 -15408 4881 -2338
82671 296535 340697 -15406 4888 -2344
82756 296551 340695 -15427 4868 -2335
82844 296558 340672 -15444 4862 -2336
82907 296528 340636 -15445 4875 -2324
82905 296417 340535 -15444 4891 -2307
82843 296289 340430 -15433 4884 -2299
82762 296187 340346 -15435 4872 -2287
82681 296116 340293 -15467 4893 -2283
82610 296071 340241 -15494 4913 -2284
82539 296025 340207 -15470 4946 -2288
82452 295962 340165 -15426 4975 -2283
82370 295913 340118 -15413 4967 -2251
82295 295870 340080 -15409 4951 -2225
82232 295847 340051 -15402 4925 -2215
82208 295835 340019 -15401 4909 -2208
82215 295823 340001 -15418 4909 -2208
82223 295802 339985 -15452 4914 -2220
82230 295762 339929 -15482 4923 -2223
82243 295737 339892 -15470 4926 -2217
82259 295696 339833 -15428 4925 -2255
82282 295651 339789 -15427 4921 -2287
82311 295640 339779 -15464 4919 -2258
82350 295631 339743 -15465 4933 -2227
82392 295619 339709 -15452 4939 -2204
82442 295593 339672 -15438 4927 -2203
82495 295572 339628 -15439 4904 -2205
82550 295568 339620 -15451 4895 -2205
82611 295569 339604 -15456 4892 -2207
82674 295567 339581 -15455 4893 -2204
82741 295580 339571 -15433 4920 -2212
82816 295594 339562 -15465 4930 -2188
82896 295609 339562 -15480 4941 -2175
82981 295634 339557 -15495 4940 -2164
83065 295652 339578 -15528 4947 -2146
83139 295683 339622 -15583 4977 -2145
83138 295639 339612 -15603 5008 -2110
83077 295564 339585 -15537 5019 -2051
83002 295542 339584 -15453 5001 -2063
82941 295566 339655 -15353 5014 -2119
82866 295577 339679 -15305 4995 -2115
82770 295534 339627 -15219 4958 -2114
82618 295327 339382 -15165 4911 -2146
82420 294974 338934 -15246 4889 -2165
82223 294588 338462 -15402 4901 -2171
82070 294314 338117 -15521 4899 -2187
81982 294159 337911 -15580 4875 -2216
81963 294171 337933 -15588 4868 -2210
81986 294323 338089 -15542 4925 -2175
82013 294462 338259 -15482 5019 -2155
82072 294676 338516 -15458 5061 -2117
82165 294982 338890 -15465 5059 -2078
82222 295150 339066 -15471 5071 -2040
82290 295338 339274 -15461 5088 -1982
82315 295338 339253 -15450 5097 -1965
82294 295165 339014 -15466 5076 -1999
82231 294904 338614 -15511 5023 -2016
82241 294807 338478 -15533 4987 -2030
82296 294852 338509 -15519 4974 -2053
82415 295093 338791 -15504 4968 -2052
82586 295469 339225 -15517 4950 -2063
82748 295802 339598 -15537 4901 -2056
82867 296006 339824 -15540 4845 -2038
82998 296240 340078 -15539 4787 -2053
83099 296333 340144 -15522 4726 -2049
83118 296210 339979 -15522 4682 -2036
83080 295970 339663 -15545 4644 -2046
82988 295726 339403 -15540 4608 -2047
82903 295647 339368 -15527 4589 -2066
82838 295677 339433 -15504 4524 -2189
82762 295721 339518 -15478 4466 -2185
82671 295715 339501 -15423 4445 -2180
82607 295789 339622 -15390 4444 -2182
82542 295843 339725 -15410 4467 -2204
82438 295793 339693 -15451 4519 -2221
82315 295715 339592 -15454 4596 -2218
82222 295658 339524 -15440 4662 -2202
82175 295653 339508 -15444 4713 -2190
82155 295647 339486 -15422 4822 -2227
82157 295700 339540 -15426 4800 -2212
82168 295769 339617 -15460 4778 -2205
82170 295787 339640 -15497 4766 -2187
82179 295806 339655 -15510 4771 -2157
82224 295904 339753 -15487 4791 -2142
82267 295984 339843 -15459 4828 -2148
82307 296041 339881 -15479 4876 -2160
82364 296129 339959 -15519 4921 -2156
82429 296220 340054 -15525 4968 -2166
82489 296272 340101 -15500 4999 -2184
82551 296311 340130 -15470 4997 -2164
82614 296345 340150 -15445 4977 -2139
82683 296407 340188 -15444 4951 -2124
82740 296423 340179 -15477 4926 -2120
82801 296420 340151 -15504 4918 -2112
82867 296449 340157 -15494 4940 -2099
82949 296495 340178 -15474 4961 -2086
83032 296544 340221 -15457 4964 -2089
83099 296562 340241 -15400 4975 -2116
83101 296510 340225 -15365 5026 -2149
83051 296447 340188 -15410 5052 -2160
82973 296401 340172 -15464 5041 -2155
82900 296363 340157 -15458 5035 -2152
82830 296352 340157 -15389 5064 -2130
82748 296319 340140 -15332 5153 -2084
82671 296304 340142 -15312 5261 -2029
82579 296294 340142 -15303 5342 -1988
82505 296296 340175 -15303 5391 -1941
82444 296316 340194 -15302 5442 -1899
82415 296367 340238 -15292 5482 -1876
82419 296423 340279 -15316 5549 -1824
82433 296500 340362 -15370 5642 -1772
82456 296557 340438 -15387 5700 -1722
82471 296584 340465 -15395 5724 -1685
82487 296615 340488 -15395 5738 -1681
82512 296642 340526 -15358 5743 -1676
82543 296684 340543 -15344 5735 -1666
82582 296717 340579 -15367 5724 -1651
82641 296770 340634 -15393 5689 -1646
82699 296839 340703 -15386 5603 -1658
82757 296894 340751 -15370 5532 -1695
82825 296937 340785 -15392 5493 -1756
82887 296967 340796 -15407 5438 -1817
82939 296972 340785 -15397 5361 -1865
82999 296977 340771 -15379 5287 -1896
83061 296985 340760 -15365 5237 -1923
83123 296992 340745 -15368 5212 -1933
83188 297018 340747 -15379 5213 -1922
83257 297025 340716 -15391 5219 -1905
83323 297000 340682 -15407 5247 -1858
83348 296937 340601 -15389 5289 -1807
83301 296779 340464 -15385 5306 -1791
83202 296582 340283 -15441 5347 -1790
83098 296392 340095 -15500 5416 -1801
83003 296190 339875 -15525 5416 -1819
82903 295944 339617 -15515 5331 -1870
82794 295707 339383 -15483 5201 -1939
82692 295528 339219 -15424 5093 -2011
82594 295385 339085 -15347 5023 -2101
82485 295210 338910 -15258 4929 -2388
82396 295099 338774 -15314 4878 -2424
82357 295042 338685 -15380 4870 -2354
82341 294993 338633 -15398 4918 -2269
82338 294957 338589 -15372 4957 -2208
82322 294871 338487 -15366 4947 -2183
82308 294796 338391 -15389 4932 -2182
82300 294698 338277 -15447 4936 -2186
82292 294629 338181 -15517 4927 -2174
82295 294567 338086 -15559 4982 -2125
82312 294535 338036 -15535 4993 -2089
82340 294513 337978 -15525 4984 -2092
82376 294490 337918 -15540 4968 -2121
82401 294411 337817 -15547 4942 -2141
82442 294353 337736 -15516 4902 -2164
82499 294337 337686 -15450 4853 -2188
82562 294327 337664 -15400 4816 -2223
82636 294338 337655 -15413 4766 -2265
82716 294361 337668 -15446 4724 -2311
82801 294370 337663 -15488 4724 -2364
82884 294374 337635 -15512 4743 -2353
82978 294408 337653 -15460 4749 -2357
83043 294402 337665 -15392 4719 -2459
83043 294307 337601 -15416 4685 -2588
82996 294193 337520 -15504 4663 -2669
82942 294149 337516 -15554 4613 -2703
82893 294145 337544 -15537 4527 -2740
82839 294132 337554 -15462 4457 -2769
82762 294090 337523 -15385 4456 -2735
82673 294056 337491 -15362 4503 -2642
82586 294031 337475 -15414 4544 -2490
82516 294035 337474 -15487 4588 -2362
82478 294088 337554 -15534 4604 -2396
82453 294111 337576 -15586 4569 -2487
82453 294121 337573 -15641 4554 -2518
82451 294117 337546 -15673 4557 -2525
82464 294107 337549 -15668 4539 -2552
82488 294127 337584 -15618 4506 -2666
82521 294167 337634 -15531 4423 -2901
82558 294218 337687 -15401 4267 -3207
82597 294253 337734 -15430 4270 -3240
82642 294291 337767 -15430 4337 -3187
82705 294333 337806 -15386 4377 -3103
82771 294379 337856 -15377 4385 -2996
82835 294376 337851 -15376 4432 -2889
82898 294392 337856 -15366 4509 -2815
82974 294417 337883 -15349 4571 -2739
83054 294440 337895 -15310 4639 -2642
83134 294477 337926 -15531 4423 -2901
83223 294544 337994 -15401 4267 -3207
83314 294614 338050 -15430 4270 -3240
83398 294657 338066 -15430 4337 -3187
83474 294680 338072 -15386 4377 -3103
83527 294668 338040 -15377 4385 -2996
83516 294564 337953 -15376 4432 -2889
83450 294453 337837 -15366 4509 -2815
83376 294408 337809 -15349 4571 -2739
83318 294417 337843 -15310 4639 -2642
83276 294446 337913 -15225 4760 -2465
83215 294471 337959 -15325 4759 -2316
83143 294486 337984 -15420 4789 -2107
83063 294491 337997 -15467 4853 -1878
82993 294501 338031 -15523 4950 -1668
82929 294501 338032 -15580 5133 -1504
82881 294520 338036 -15601 5368 -1409
82872 294539 338037 -15595 5523 -1399
82877 294550 338038 -15586 5556 -1472
82869 294543 338006 -15578 5489 -1592
82865 294536 337978 -15598 5367 -1705
82870 294525 337959 -15601 5283 -1770
82884 294533 337949 -15536 5227 -1814
82905 294541 337945 -15435 5154 -1857
82938 294565 337982 -15382 5108 -1908
82986 294624 338027 -15405 5106 -1934
83046 294683 338078 -15440 5141 -1930
83103 294718 338103 -15448 5162 -1926
83163 294732 338097 -15425 5176 -1918
83225 294748 338096 -15357 5215 -1895
83296 294781 338110 -15282 5254 -1864
83371 294811 338135 -15257 5272 -1849
83445 294855 338151 -15245 5271 -1839
83531 294905 338200 -15233 5284 -1847
83628 294975 338262 -15247 5296 -1873
83724 295041 338323 -15287 5299 -1912
83811 295088 338380 -15360 5311 -1939
83848 295067 338411 -15425 5345 -1928
83838 295047 338425 -15442 5386 -1902
83787 295027 338440 -15429 5406 -1872
83732 295032 338460 -15389 5403 -1841
83677 295044 338474 -15373 5423 -1822
83617 295059 338499 -15390 5435 -1823
83553 295076 338537 -15410 5399 -1837
83488 295084 338558 -15386 5388 -1867
83413 295085 338567 -15313 5395 -1909
83352 295094 338581 -15254 5389 -1957
83325 295150 338635 -15214 5407 -1996
83344 295245 338729 -15187 5491 -1973
83375 295328 338826 -15197 5632 -1859
83412 295415 338908 -15306 5809 -1486
83444 295492 339007 -15361 5861 -1381
83477 295558 339071 -15389 5883 -1354
83513 295607 339107 -15387 5907 -1325
83552 295638 339162 -15385 5940 -1240
83595 295676 339188 -15393 5977 -1162
83652 295723 339219 -15368 5996 -1154
83712 295762 339234 -15322 5966 -1205
83771 295774 339230 -15315 5888 -1321
83830 295772 339217 -15362 5722 -1608
83908 295802 339236 -15345 5776 -1736
83996 295868 339287 -15309 5829 -1809
84086 295936 339356 -15292 5871 -1848
84174 295977 339372 -15294 5878 -1855
84264 296008 339379 -15309 5881 -1825
84361 296050 339400 -15301 5901 -1767
84467 296115 339462 -15243 5938 -1715
84556 296132 339450 -15130 5993 -1712
84625 296120 339419 -15044 6013 -1770
84649 296057 339365 -15136 5973 -1802
84631 295995 339331 -15209 5936 -1806
84598 295962 339352 -15203 5935 -1766
84560 295958 339347 -15191 5928 -1720
84526 295978 339390 -15223 5866 -1686
84475 295965 339387 -15204 5808 -1647
84420 295961 339417 -15143 5808 -1604
84350 295950 339392 -15134 5855 -1575
84285 295942 339395 -15138 5860 -1569
84240 295967 339427 -15148 5802 -1596
84209 295960 339419 -15154 5797 -1652
84193 295966 339386 -15148 5827 -1713
84199 295956 339374 -15176 5847 -1741
84210 295977 339367 -15209 5868 -1735
84224 296000 339385 -15221 5887 -1732
84243 296022 339409 -15248 5915 -1729
84261 296051 339416 -15277 5941 -1704
84286 296072 339444 -15289 5945 -1677
84318 296114 339454 -15281 5919 -1653
84349 296111 339448 -15242 5885 -1606
84396 296133 339461 -15243 5901 -1556
84442 296148 339446 -15316 5929 -1532
84483 296141 339413 -15389 5943 -1519
84533 296123 339368 -15414 5965 -1518
84584 296121 339350 -15400 5982 -1507
84639 296126 339325 -15364 5981 -1481
84696 296120 339299 -15332 5961 -1475
84743 296091 339228 -15334 5956 -1489
84799 296062 339182 -15341 5964 -1493
84880 296122 339224 -15331 5933 -1463
84971 296185 339277 -15362 5933 -1428
85061 296242 339319 -15410 5994 -1382
85133 296243 339307 -15434 6054 -1313
85150 296151 339198 -15473 6087 -1234
85108 296023 339082 -15564 6127 -1108
85057 295965 339062 -15645 6201 -943
84965 295844 338907 -15630 6248 -805
84889 295786 338844 -15567 6222 -767
84833 295795 338856 -15500 6137 -862
84755 295748 338810 -15356 5853 -1143
84688 295768 338852 -15388 5776 -1218
84636 295836 338925 -15370 5675 -1246
84573 295861 338942 -15298 5544 -1286
84516 295915 338959 -15269 5454 -1309
84494 296004 339022 -15306 5397 -1277
84477 296133 339139 -15305 5346 -1248
84475 296324 339289 -15215 5285 -1290
84452 296554 339448 -15163 5239 -1371
84436 296781 339621 -15291 5301 -1396
84432 296969 339771 -15375 5338 -1407
84467 297148 339950 -15397 5364 -1480
84501 297318 340092 -15368 5357 -1576
84543 297420 340179 -15337 5310 -1672
84585 297477 340221 -15334 5267 -1756
84621 297464 340170 -15347 5272 -1825
84661 297455 340107 -15326 5263 -1891
84707 297441 340059 -15282 5179 -1975
84742 297408 339982 -15236 4996 -2175
84799 297424 339976 -15250 4942 -2188
84862 297451 339990 -15285 4901 -2162
84940 297500 340040 -15306 4878 -2170
85042 297617 340148 -15338 4851 -2188
85141 297707 340251 -15407 4826 -2161
85229 297772 340311 -15457 4821 -2131
85300 297773 340277 -15451 4822 -2119
85330 297672 340143 -15425 4824 -2100
85322 297526 339992 -15385 4845 -2090
85266 297368 339837 -15342 4905 -2088
85200 297220 339696 -15345 4937 -2100
85136 297116 339567 -15399 4918 -2116
85089 297031 339486 -15444 4895 -2130
85037 296962 339398 -15458 4879 -2189
84982 296886 339335 -15463 4892 -2269
84926 296851 339305 -15463 4930 -2312
84867 296811 339276 -15473 4968 -2310
84832 296820 339299 -15534 4989 -2269
84821 296847 339323 -15612 4969 -2243
84816 296851 339304 -15580 4923 -2264
84836 296864 339325 -15496 4874 -2310
84857 296904 339349 -15451 4834 -2324
84867 296910 339361 -15399 4791 -2352
84879 296918 339335 -15350 4737 -2434
84900 296912 339331 -15262 4695 -2555
84932 296942 339333 -15138 4656 -2690
84973 296967 339342 -15070 4635 -2805
85013 296987 339363 -15099 4647 -2884
85072 297017 339387 -15165 4690 -2908
85130 297059 339412 -15140 4837 -2935
85179 297077 339398 -15210 4854 -2989
85231 297090 339398 -15290 4854 -3024
85294 297115 339397 -15354 4842 -3057
85370 297133 339403 -15401 4834 -3085
85432 297119 339344 -15437 4861 -3076
85482 297059 339255 -15491 4932 -3046
85527 297011 339173 -15566 4969 -3021
85601 297029 339164 -15593 4909 -3007
85684 297062 339175 -15460 4808 -3020
85761 297078 339189 -15409 4837 -2968
85843 297126 339212 -15424 4889 -2933
85919 297171 339251 -15495 4859 -3046
85927 297124 339207 -15550 4769 -3261
85862 296966 339059 -15517 4699 -3441
85799 296837 338934 -15461 4615 -3581
85738 296717 338826 -15460 4512 -3698
85702 296662 338760 -15495 4453 -3722
85681 296676 338788 -15304 4461 -3579
85652 296672 338792 -15148 4468 -3512
85618 296678 338799 -14965 4439 -3477
85582 296688 338824 -14933 4364 -3520
85556 296701 338851 -14987 4288 -3604
85541 296755 338896 -14973 4254 -3666
85551 296787 338922 -14975 4255 -3709
85567 296801 338943 -15061 4277 -3742
85570 296785 338896 -15195 4307 -3767
85566 296745 338829 -15315 4356 -3779
85581 296738 338823 -15426 4431 -3761
85604 296767 338837 -15539 4479 -3731
85631 296781 338863 -15563 4518 -3681
85659 296817 338874 -15536 4585 -3616
85697 296828 338878 -15550 4614 -3575
85733 296830 338866 -15541 4575 -3564
85767 296819 338835 -15472 4543 -3572
85804 296817 338811 -15407 4557 -3575
85838 296805 338766 -15406 4570 -3579
85868 296785 338730 -15415 4558 -3605
85905 296788 338709 -15365 4539 -3643
85939 296786 338676 -15323 4523 -3680
85976 296761 338627 -15337 4548 -3682
86008 296714 338548 -15402 4589 -3642
86043 296652 338448 -15498 4583 -3579
86084 296603 338370 -15528 4552 -3505
86131 296544 338286 -15469 4558 -3433
86175 296470 338190 -15364 4616 -3375
86179 296318 338031 -15255 4686 -3342
86117 296085 337817 -15163 4740 -3352
86015 295868 337607 -15088 4816 -3393
85928 295715 337475 -15098 4884 -3488
85867 295633 337383 -15214 4914 -3598
85813 295569 337324 -15352 4942 -3635
85742 295500 337265 -15427 4947 -3635
85667 295435 337186 -15436 4899 -3661
85605 295404 337155 -15390 4811 -3730
85557 295389 337169 -15313 4729 -3805
85516 295386 337144 -15260 4685 -3841
85490 295387 337122 -15224 4642 -3850
85469 295357 337063 -15237 4444 -3967
85456 295310 337025 -15295 4339 -3981
85446 295288 337004 -15354 4307 -3964
85427 295239 336921 -15377 4279 -3936
85407 295154 336838 -15361 4214 -3933
85402 295104 336772 -15352 4133 -3960
85414 295098 336769 -15379 4085 -3979
85440 295114 336793 -15396 4107 -3959
85461 295082 336757 -15382 4135 -3918
85475 295033 336692 -15341 4042 -3938
85506 295012 336670 -15358 3990 -3951
85539 294985 336646 -15347 3980 -3942
85566 294936 336597 -15324 3971 -3959
85597 294898 336550 -15337 3931 -3987
85642 294873 336518 -15384 3898 -3999
85688 294833 336491 -15409 3890 -4005
85737 294823 336471 -15392 3891 -4015
85789 294805 336457 -15346 3895 -4020
85834 294805 336450 -15342 3914 -4078
85851 294761 336404 -15390 3901 -4065
85810 294649 336338 -15416 3895 -4031
85717 294499 336219 -15415 3886 -4016
85621 294370 336105 -15442 3878 -3985
85536 294278 336002 -15495 3896 -3915
85471 294219 335978 -15538 3947 -3830
85415 294196 335965 -15534 3979 -3787
85356 294157 335955 -15468 3956 -3845
85271 294088 335902 -15369 3913 -3953
85189 294040 335873 -15302 3905 -4025
85133 294057 335894 -15310 3914 -4033
85122 294121 335981 -15341 3912 -4032
85127 294202 336075 -15324 3887 -4101
85116 294204 336080 -15314 3837 -4252
85083 294157 336004 -15362 3808 -4396
85061 294103 335942 -15417 3807 -4385
85042 294073 335897 -15426 3817 -4242
85038 294053 335868 -15395 3821 -4113
85035 294016 335816 -15362 3794 -4042
85040 293973 335768 -15365 3729 -4000
85064 293953 335742 -15404 3686 -3968
85100 293960 335743 -15421 3698 -3942
85147 293967 335762 -15414 3728 -3918
85214 293982 335799 -15379 3767 -3919
85289 293999 335848 -15330 3802 -3966
85377 294036 335921 -15305 3820 -4058
85459 294056 335965 -15312 3813 -4166
85534 294070 336017 -15336 3794 -4267
85605 294090 336050 -15339 3790 -4337
85666 294100 336025 -15278 3799 -4383
85717 294096 336014 -15307 3808 -4337
85742 294067 335990 -15356 3818 -4303
85691 293952 335902 -15458 3819 -4309
85598 293805 335780 -15576 3805 -4307
85502 293715 335704 -15615 3791 -4246
85440 293712 335711 -15543 3792 -4157
85392 293734 335760 -15432 3788 -4100
85336 293755 335785 -15385 3780 -4088
85272 293760 335820 -15337 3784 -4094
85215 293794 335869 -15345 3803 -4105
85156 293814 335907 -15388 3815 -4117
85106 293845 335915 -15400 3821 -4120
85091 293869 335953 -15374 3819 -4138
85094 293898 335982 -15386 3805 -4170
85080 293914 335983 -15430 3778 -4208
85064 293906 335980 -15455 3766 -4211
85047 293908 335985 -15434 3776 -4190
85053 293934 336015 -15372 3777 -4196
85068 293983 336054 -15347 3768 -4204
85084 294034 336094 -15371 3755 -4185
85106 294056 336128 -15395 3751 -4147
85132 294066 336122 -15396 3763 -4104
85150 294063 336099 -15386 3785 -4069
85173 294040 336057 -15394 3816 -4046
85211 294069 336081 -15420 3844 -4042
85258 294119 336125 -15440 3866 -4060
85310 294191 336196 -15443 3879 -4071
85360 294257 336240 -15426 3918 -4042
85419 294311 336284 -15398 3973 -4001
85471 294353 336300 -15370 3991 -3958
85533 294392 336336 -15329 3983 -3933
85565 294425 336373 -15328 3946 -3960
85535 294358 336344 -15381 3893 -4009
85462 294277 336300 -15418 3866 -4053
85390 294251 336291 -15419 3856 -4065
85333 294256 336330 -15418 3839 -4060
85282 294263 336348 -15403 3822 -4060
85221 294252 336358 -15364 3818 -4062
85165 294260 336379 -15304 3834 -4078
85108 294253 336387 -15300 3846 -4069
85052 294262 336389 -15353 3859 -4042
85016 294272 336403 -15355 3899 -4004
85007 294300 336434 -15324 3953 -3971
85003 294323 336448 -15350 3986 -3967
84998 294331 336468 -15450 3977 -3976
84991 294328 336472 -15494 3957 -3993
84985 294352 336474 -15423 3974 -3984
85004 294393 336528 -15328 4026 -3956
85018 294431 336566 -15310 4177 -3911
85045 294489 336619 -15383 4173 -3903
85081 294536 336656 -15436 4165 -3900
85121 294567 336684 -15477 4170 -3879
85141 294563 336664 -15465 4196 -3836
85177 294568 336657 -15407 4216 -3801
85224 294596 336694 -15364 4199 -3800
85279 294628 336710 -15377 4139 -3814
85331 294658 336738 -15416 4066 -3814
85391 294711 336769 -15467 4007 -3778
85443 294722 336764 -15452 3947 -3724
85485 294712 336740 -15364 3882 -3670
85525 294721 336745 -15339 3852 -3666
85504 294647 336679 -15387 3886 -3675
85420 294521 336581 -15429 3977 -3628
85324 294429 336507 -15448 4115 -3539
85251 294415 336481 -15488 4246 -3467
85190 294425 336526 -15548 4311 -3489
85132 294452 336562 -15598 4321 -3578
85071 294487 336610 -15546 4282 -3747
85012 294518 336654 -15476 4235 -3810
84958 294540 336689 -15393 4215 -3831
84915 294554 336717 -15272 4224 -3826
84890 294611 336767 -15135 4244 -3823
84893 294677 336814 -15040 4261 -3843
84898 294736 336865 -15007 4305 -3882
84893 294745 336887 -15057 4419 -3924
84896 294788 336912 -15189 4569 -3944
84894 294805 336929 -15309 4687 -3936
84902 294840 336951 -15383 4726 -3914
84935 294894 337025 -15439 4689 -3889
84978 294972 337091 -15441 4637 -3866
85006 295003 337112 -15377 4614 -3812
85036 295017 337103 -15293 4628 -3721
85064 295029 337095 -15233 4640 -3639
85103 295050 337102 -15213 4602 -3599
85150 295068 337091 -15212 4535 -3609
85201 295090 337098 -15222 4499 -3620
85262 295107 337090 -15244 4507 -3585
85319 295109 337058 -15251 4520 -3520
85379 295114 337043 -15253 4537 -3487
85441 295122 337052 -15299 4578 -3498
85478 295101 337032 -15393 4634 -3506
85452 295002 336950 -15502 4698 -3480
85385 294892 336856 -15539 4742 -3408
85322 294832 336811 -15498 4744 -3345
85271 294828 336795 -15448 4724 -3330
85227 294811 336779 -15417 4703 -3338
85171 294807 336774 -15399 4670 -3341
85114 294789 336771 -15370 4641 -3307
85059 294808 336796 -15379 4593 -3293
85022 294847 336839 -15381 4525 -3350
85002 294898 336885 -15330 4501 -3417
85002 294938 336923 -15321 4523 -3450
84998 294955 336929 -15377 4551 -3473
85002 294968 336940 -15447 4555 -3511
85004 294977 336921 -15470 4558 -3518
84990 294930 336858 -15391 4611 -3453
84983 294864 336781 -15200 4675 -3387
85004 294881 336792 -15370 4641 -3307
85040 294905 336831 -15379 4593 -3293
85087 294967 336899 -15381 4525 -3350
85124 294992 336909 -15330 4501 -3417
85150 294962 336864 -15321 4523 -3450
85171 294931 336795 -15377 4551 -3473
85237 295000 336874 -15447 4555 -3511
85305 295053 336941 -15470 4558 -3518
85348 295059 336930 -15391 4611 -3453
85409 295082 336961 -15200 4675 -3387
85467 295120 336996 -15087 4702 -3370
85518 295104 336956 -15255 4619 -3474
85589 295162 337012 -15435 4579 -3501
85627 295184 337075 -15516 4611 -3415
85621 295174 337111 -15506 4637 -3258
85565 295118 337085 -15514 4693 -3154
85507 295068 337021 -15485 4756 -3121
85459 295055 337001 -15336 4786 -3104
85427 295065 336999 -15243 4810 -3161
85379 295046 336978 -15286 4836 -3217
85316 294997 336922 -15318 4832 -3243
85266 294991 336903 -15308 4768 -3309
85239 295026 336930 -15318 4689 -3388
85238 295084 336966 -15355 4635 -3432
85234 295103 336951 -15359 4628 -3394
85226 295093 336940 -15285 4669 -3293
85238 295137 336985 -15231 4721 -3198
85274 295250 337102 -15239 4750 -3155
85309 295348 337215 -15287 4775 -3154
85353 295469 337348 -15376 4852 -3105
85391 295533 337413 -15409 4838 -3105
85427 295617 337481 -15384 4810 -3139
85450 295634 337475 -15343 4793 -3183
85502 295704 337530 -15386 4764 -3216
85568 295805 337653 -15438 4728 -3228
85652 295922 337767 -15407 4719 -3213
85734 296021 337857 -15367 4772 -3185
85796 296050 337874 -15330 4782 -3135
85860 296072 337870 -15324 4743 -3090
85907 296065 337835 -15380 4726 -3095
85953 296020 337762 -15407 4676 -3153
86001 296014 337743 -15390 4640 -3198
86032 295976 337714 -15367 4660 -3181
86018 295885 337653 -15341 4691 -3157
85975 295828 337632 -15323 4700 -3179
85940 295834 337656 -15321 4718 -3217
85925 295892 337730 -15324 4780 -3217
85909 295956 337819 -15374 4849 -3181
85881 295982 337852 -15443 4887 -3122
85827 295975 337864 -15437 4870 -3069
85778 295985 337864 -15424 4797 -3088
85745 296033 337920 -15441 4726 -3148
85736 296099 337975 -15421 4702 -3177
85741 296158 338027 -15378 4715 -3183
85756 296199 338057 -15324 4756 -3180
85783 296249 338139 -15284 4789 -3186
85814 296340 338221 -15297 4784 -3204
85850 296403 338306 -15332 4768 -3190
85891 296456 338364 -15352 4770 -3139
85938 296535 338430 -15324 4788 -3075
85988 296585 338475 -15326 4782 -3070
86027 296617 338491 -15381 4765 -3102
86073 296643 338510 -15417 4757 -3094
86123 296661 338508 -15422 4766 -3069
86177 296652 338504 -15384 4783 -3056
86216 296617 338443 -15366 4778 -3085
86272 296638 338429 -15384 4754 -3129
86327 296628 338420 -15382 4728 -3173
86401 296691 338464 -15368 4701 -3214
86477 296753 338521 -15343 4749 -3180
86561 296811 338575 -15346 4762 -3182
86631 296851 338599 -15310 4791 -3206
86674 296847 338628 -15220 4894 -3222
86677 296821 338625 -15157 5012 -3197
86646 296797 338640 -15202 5094 -3145
86627 296809 338668 -15251 5180 -3113
86606 296842 338713 -15249 5271 -3129
86579 296869 338731 -15255 5320 -3176
86529 296863 338748 -15274 5293 -3160
86479 296878 338739 -15273 5288 -3198
86435 296907 338773 -15281 5248 -3251
86411 296934 338804 -15291 5186 -3303
86407 296986 338860 -15275 5147 -3334
86423 297047 338910 -15256 5132 -3330
86437 297087 338961 -15245 5178 -3279
86450 297111 338976 -15255 5271 -3151
86455 297130 339000 -15313 5357 -2985
86465 297150 339020 -15389 5398 -2903
86477 297132 338999 -15422 5342 -2940
86485 297111 338969 -15407 5190 -3072
86502 297091 338927 -15371 5015 -3239
86526 297105 338929 -15330 4872 -3363
86554 297094 338901 -15303 4762 -3459
86580 297100 338889 -15277 4673 -3536
86614 297114 338877 -15244 4612 -3581
86643 297114 338853 -15206 4583 -3604
86676 297112 338829 -15156 4577 -3614
86715 297089 338775 -15117 4605 -3620
86758 297089 338756 -15123 4639 -3590
86813 297098 338765 -15195 4653 -3572
86866 297118 338761 -15270 4663 -3575
86921 297127 338771 -15315 4679 -3532
86963 297148 338792 -15362 4730 -3439
86972 297113 338803 -15402 4796 -3305
86940 297053 338794 -15438 4836 -3175
86904 297017 338813 -15446 4814 -3095
86893 297061 338885 -15446 4730 -3076
86874 297101 338929 -15447 4670 -3104
86830 297092 338923 -15380 4650 -3124
86780 297082 338939 -15294 4605 -3170
86746 297115 339006 -15271 4544 -3260
86716 297154 339074 -15297 4461 -3374
86692 297188 339113 -15324 4398 -3473
86711 297243 339192 -15329 4349 -3521
86753 297325 339301 -15299 4275 -3576
86804 297418 339450 -15272 4288 -3571
86858 297522 339586 -15293 4374 -3498
86933 297633 339771 -15342 4423 -3456
87015 297770 339945 -15384 4428 -3458
87068 297850 340057 -15471 4432 -3438
87121 297918 340138 -15586 4429 -3420
87192 298032 340268 -15631 4366 -3505
87272 298175 340427 -15627 4249 -3630
87336 298228 340510 -15635 4106 -3745
87414 298302 340597 -15606 3968 -3892
87486 298375 340667 -15419 3831 -4113
87558 298425 340719 -15217 3754 -4321
87629 298499 340792 -15164 3753 -4439
87703 298545 340830 -15145 3688 -4806
87777 298587 340862 -15244 3665 -5002
87837 298599 340835 -15290 3639 -5170
87892 298586 340815 -15262 3602 -5343
87943 298608 340839 -15246 3541 -5490
87947 298595 340865 -15231 3456 -5598
87930 298597 340899 -15212 3351 -5697
87911 298658 340970 -15187 3243 -5810
87914 298736 341080 -15164 3174 -5929
87930 298872 341236 -14928 3092 -6059
87938 298997 341400 -14753 3056 -6180
87950 299168 341603 -14732 3022 -6344
87949 299322 341776 -14821 2996 -6485
87948 299453 341944 -14839 2976 -6604
87983 299640 342152 -14753 2958 -6686
88041 299844 342387 -14666 2935 -6729
88099 300003 342577 -14606 2887 -6822
88148 300157 342768 -14555 2791 -6978
88201 300310 342961 -14579 2744 -7111
88259 300488 343164 -14663 2770 -7157
88316 300649 343348 -14654 2727 -7206
88374 300775 343529 -14564 2604 -7360
88456 300964 343741 -14486 2434 -7555
88535 301155 343956 -14406 2235 -7729
88605 301321 344155 -14327 2073 -7878
88682 301494 344359 -14254 1967 -8003
88788 301702 344607 -14189 1887 -8110
88875 301860 344797 -14088 1841 -8194
88949 302006 344933 -13907 1821 -8312
89013 302094 345024 -13726 1835 -8479
89092 302184 345129 -13677 1903 -8594
89170 302264 345207 -13739 2017 -8633
89235 302305 345242 -13806 2087 -8714
89302 302361 345314 -13838 2073 -8861
89341 302404 345380 -13864 2041 -8958
89331 302398 345431 -13868 2009 -8949
89301 302421 345486 -13780 1967 -8903
89276 302445 345545 -13656 1909 -8914
89259 302484 345602 -13539 1868 -8951
89242 302521 345663 -13494 1864 -8978
89221 302560 345729 -13558 1815 -9075
89185 302582 345768 -13572 1768 -9206
89153 302596 345805 -13529 1743 -9299
89137 302636 345865 -13466 1738 -9322
89135 302699 345943 -13381 1733 -9333
89155 302765 346012 -13297 1713 -9376
89176 302846 346115 -13237 1690 -9456
89184 302886 346152 -13209 1673 -9521
89198 302950 346227 -13217 1564 -9659
89221 303028 346320 -13143 1525 -9768
89252 303111 346416 -13029 1487 -9857
89283 303185 346499 -12972 1451 -9933
89331 303245 346570 -12967 1467 -9951
89378 303316 346648 -12985 1517 -9947
89433 303386 346728 -12995 1540 -9978
89477 303458 346778 -12988 1519 -10040
89517 303489 346811 -12953 1470 -10107
89563 303536 346850 -12862 1354 -10275
89623 303595 346916 -12812 1328 -10306
89688 303662 346982 -12781 1328 -10289
89745 303716 347020 -12754 1352 -10237
89795 303728 347039 -12683 1336 -10207
89850 303773 347081 -12602 1279 -10215
89872 303797 347125 -12553 1206 -10249
89841 303748 347126 -12588 1197 -10271
89765 303703 347100 -12628 1280 -10238
89701 303685 347089 -12645 1352 -10198
89653 303678 347103 -12715 1345 -10247
89605 303669 347128 -12796 1316 -10338
89548 303663 347143 -12841 1331 -10361
89484 303658 347146 -12842 1382 -10331
89425 303660 347181 -12794 1420 -10275
89386 303683 347223 -12724 1417 -10226
89353 303699 347234 -12672 1377 -10203
89341 303707 347264 -12663 1368 -10166
89343 303751 347307 -12696 1390 -10117
89331 303771 347322 -12743 1348 -10109
89319 303784 347342 -12803 1298 -10121
89311 303813 347372 -12861 1365 -10065
89308 303872 347440 -12923 1483 -9987
89319 303941 347520 -13009 1570 -9952
89334 303988 347567 -13071 1616 -9961
89348 304034 347609 -13065 1625 -10010
89374 304079 347663 -13015 1620 -10062
89408 304136 347709 -12956 1578 -10114
89444 304181 347774 -12898 1523 -10153
89497 304231 347831 -12828 1502 -10165
89541 304266 347877 -12777 1426 -10174
89596 304326 347944 -12740 1392 -10197
89655 304383 348006 -12725 1347 -10254
89718 304438 348065 -12717 1335 -10305
89761 304474 348126 -12703 1379 -10332
89751 304464 348166 -12693 1426 -10372
89676 304410 348153 -12661 1432 -10430
89591 304380 348139 -12625 1417 -10472
89514 304326 348098 -12643 1410 -10543
89436 304268 348064 -12863 1378 -10561
89334 304168 347962 -12889 1428 -10438
89206 304016 347782 -12863 1439 -10321
89072 303871 347606 -12882 1393 -10221
88938 303670 347386 -12974 1357 -10089
88816 303486 347141 -13083 1357 -9842
88739 303322 346942 -13188 1366 -9536
88669 303158 346748 -13281 1409 -9260
88603 302983 346563 -13389 1468 -9014
88544 302877 346432 -13621 1493 -8753
88480 302712 346257 -13745 1522 -8667
88416 302529 346042 -13896 1547 -8601
88349 302340 345819 -14077 1602 -8510
88274 302106 345541 -14208 1656 -8369
88204 301835 345222 -14277 1706 -8211
88134 301557 344894 -14309 1764 -8047
88086 301320 344590 -14329 1828 -7852
88029 301072 344274 -14369 1883 -7638
87986 300873 344014 -14416 1912 -7462
87947 300696 343779 -14442 1962 -7261
87933 300571 343605 -14480 2044 -6971
87939 300473 343491 -14595 2185 -6694
87946 300390 343358 -14764 2364 -6489
87963 300300 343258 -14906 2532 -6347
87932 300173 343134 -14994 2641 -6251
87849 300067 343047 -15024 2654 -6195
87735 299997 342997 -15049 2682 -6143
87620 299949 342964 -15070 2727 -6087
87509 299910 342929 -15006 2749 -6037
87393 299871 342915 -14907 2802 -5943
87264 299851 342913 -14882 2953 -5755
87124 299806 342865 -14966 3157 -5533
86982 299775 342842 -15107 3301 -5402
86847 299729 342804 -15237 3367 -5312
86740 299705 342770 -15308 3425 -5222
86677 299684 342734 -15306 3527 -5145
86617 299684 342737 -15300 3626 -5057
86560 299700 342739 -15320 3687 -4958
86498 299697 342750 -15333 3719 -4921
86457 299708 342778 -15338 3743 -4935
86429 299736 342809 -15345 3779 -4893
86412 299759 342858 -15317 3825 -4822
86399 299776 342876 -15275 3851 -4767
86394 299785 342878 -15281 3849 -4735
86410 299825 342923 -15296 3850 -4752
86433 299882 342983 -15264 3856 -4778
86451 299924 343012 -15212 3856 -4760
86476 299945 343031 -15199 3841 -4730
86497 299969 343036 -15260 3831 -4707
86524 299984 343046 -15277 3888 -4651
86555 300014 343056 -15251 3870 -4581
86596 300056 343085 -15214 3860 -4551
86637 300102 343115 -15204 3863 -4550
86676 300165 343184 -15224 3858 -4558
86651 300174 343216 -15236 3851 -4565
86565 300145 343210 -15263 3847 -4591
86463 300148 343232 -15332 3841 -4658
86380 300174 343296 -15377 3829 -4707
86291 300224 343370 -15271 3781 -4824
86163 300212 343354 -15237 3773 -4908
86024 300185 343346 -15181 3826 -4880
85898 300191 343365 -15042 3903 -4799
85782 300182 343377 -14964 3947 -4741
85678 300170 343380 -15009 3940 -4705
85616 300184 343375 -15116 3917 -4708
85580 300192 343374 -15195 3896 -4707
85550 300186 343367 -15212 3879 -4688
85525 300208 343383 -15214 3868 -4666
85511 300233 343405 -15239 3859 -4631
85509 300264 343433 -15280 3832 -4607
85514 300276 343448 -15303 3798 -4572
85524 300295 343449 -15307 3789 -4502
85541 300312 343460 -15310 3812 -4413
85571 300336 343484 -15317 3863 -4322
85611 300371 343515 -15322 3912 -4271
85653 300387 343527 -15341 3942 -4287
85700 300406 343523 -15375 3951 -4339
85761 300420 343539 -15379 3981 -4394
85826 300457 343582 -15337 4036 -4433
85892 300497 343609 -15319 4047 -4449
85962 300538 343628 -15331 4006 -4470
86033 300568 343663 -15313 3957 -4507
86107 300621 343682 -15255 3926 -4523
86180 300645 343708 -15210 3913 -4542
86243 300683 343735 -15152 3902 -4558
86247 300648 343706 -15119 3890 -4560
86191 300589 343676 -15162 3892 -4596
86111 300543 343646 -15164 3915 -4656
86044 300539 343648 -15130 3977 -4688
85978 300543 343652 -15117 4032 -4642
85902 300520 343653 -15133 4065 -4567
85814 300507 343637 -15160 4107 -4533
85738 300514 343656 -15166 4150 -4510
85656 300539 343680 -15139 4190 -4491
85587 300551 343696 -15136 4216 -4515
85547 300574 343704 -15174 4257 -4543
85536 300610 343722 -15201 4323 -4529
85533 300636 343735 -15172 4385 -4504
85533 300651 343745 -15096 4426 -4629
85525 300657 343734 -15144 4400 -4652
85521 300643 343705 -15179 4400 -4661
85518 300625 343667 -15145 4429 -4651
85536 300621 343651 -15029 4455 -4617
85558 300622 343650 -14935 4444 -4609
85584 300627 343630 -14942 4427 -4623
85621 300653 343627 -14979 4421 -4598
85661 300679 343631 -15049 4413 -4548
85701 300670 343597 -15187 4415 -4534
85732 300646 343556 -15173 4432 -4465
85767 300624 343488 -15080 4488 -4400
85815 300612 343461 -14966 4555 -4370
85870 300609 343453 -14898 4626 -4385
85937 300619 343444 -14894 4710 -4392
86006 300630 343441 -14927 4760 -4397
86083 300655 343470 -14952 4750 -4426
86146 300692 343497 -15031 4727 -4475
86154 300659 343469 -15216 4738 -4514
86090 300572 343389 -15168 4736 -4462
86022 300514 343360 -15056 4685 -4437
85964 300508 343369 -14982 4631 -4424
85912 300494 343378 -14949 4617 -4378
85851 300474 343359 -14954 4648 -4311
85782 300474 343363 -15047 4715 -4259
85710 300463 343362 -15150 4787 -4224
85638 300457 343346 -15170 4831 -4206
85574 300434 343308 -15088 4850 -4229
85546 300446 343300 -15013 4794 -4307
85539 300504 343335 -15043 4636 -4378
85534 300547 343353 -15090 4472 -4396
85520 300574 343352 -15089 4406 -4363
85507 300554 343314 -15019 4456 -4284
85489 300520 343248 -14898 4581 -4181
85485 300482 343184 -14841 4758 -4101
85489 300445 343110 -14945 4909 -4061
85512 300384 343038 -15132 4995 -4047
85531 300284 342916 -15248 5012 -4062
85553 300196 342793 -15269 4922 -4145
85600 300148 342726 -15279 4813 -4194
85630 300043 342612 -15270 4767 -4151
85671 299975 342516 -15245 4756 -4118
85719 299948 342477 -15244 4739 -4106
85763 299905 342408 -15214 4737 -4086
85805 299835 342310 -15075 4779 -4052
85850 299785 342244 -14870 4816 -4030
85898 299770 342194 -14832 4821 -4027
85923 299721 342157 -14992 4818 -4040
85878 299630 342071 -15269 4922 -4145
85780 299490 341922 -15279 4813 -4194
85690 299425 341884 -15270 4767 -4151
85618 299396 341849 -15245 4756 -4118
85538 299365 341814 -15244 4739 -4106
85446 299314 341760 -15214 4737 -4086
85348 299272 341704 -15075 4779 -4052
85254 299216 341656 -14870 4816 -4030
85176 299173 341597 -14832 4821 -4027
85117 299128 341545 -14992 4818 -4040
85095 299120 341521 -15108 4976 -3984
85074 299100 341506 -14996 5039 -3973
85056 299077 341478 -14901 5012 -4014
85043 299035 341444 -14923 4920 -4074
85038 298990 341399 -15012 4840 -4118
85035 298951 341357 -15096 4805 -4129
85045 298901 341300 -15148 4798 -4131
85066 298892 341261 -15148 4807 -4120
85098 298876 341235 -15080 4806 -4110
85117 298834 341165 -14978 4795 -4140
85138 298755 341070 -14970 4801 -4158
85173 298696 340996 -15057 4821 -4159
85223 298672 340948 -15150 4833 -4172
85280 298665 340926 -15199 4823 -4179
85337 298646 340875 -15198 4802 -4196
85393 298617 340825 -15168 4781 -4211
85463 298637 340824 -15160 4746 -4217
85546 298650 340832 -15186 4694 -4191
85612 298650 340836 -15182 4675 -4106
85626 298573 340775 -15106 4814 -3841
85569 298447 340646 -15163 4797 -3761
85487 298306 340496 -15253 4739 -3719
85402 298205 340363 -15326 4706 -3654
85301 297859 339918 -15350 4699 -3574
85220 297231 339295 -15335 4659 -3534
85193 296384 338590 -15329 4549 -3562
85161 295261 337734 -15351 4400 -3641
85128 293990 336741 -15417 4275 -3720
85129 292684 335753 -15470 4238 -3678
85165 291515 334938 -15433 4277 -3584
85260 290535 334337 -15389 4328 -3517
85334 289713 333786 -15409 4347 -3458
85346 289007 333267 -15412 4295 -3490
85406 288567 332994 -15395 4243 -3512
85449 288244 332770 -15445 4260 -3453
85456 287990 332529 -15542 4292 -3332
85454 287792 332329 -15633 4290 -3166
85475 287742 332247 -15654 4239 -2982
85503 287719 332191 -15580 4141 -2835
85527 287683 332120 -15546 4062 -2793
85547 287586 331979 -15668 4003 -2810
85559 287432 331816 -15805 3916 -2774
85582 287318 331661 -15864 3827 -2769
85616 287211 331536 -15842 3745 -2903
85660 287092 331425 -15673 3697 -3055
85706 286931 331263 -15461 3667 -3196
85766 286756 331119 -15314 3641 -3382
85820 286672 331011 -15192 3657 -3560
85870 286608 330927 -15126 3723 -3664
85910 286643 330921 -15124 4068 -3603
85875 286670 330919 -15184 4259 -3525
85768 286619 330853 -15286 4441 -3450
85653 286584 330793 -15428 4592 -3394
85557 286552 330729 -15544 4712 -3304
85446 286478 330622 -15585 4759 -3191
85339 286429 330539 -15551 4739 -3106
85215 286336 330407 -15446 4697 -3048
85084 286212 330252 -15390 4649 -3035
84982 286140 330130 -15533 4609 -2965
84897 286067 330022 -15576 4548 -2913
84852 286036 329952 -15594 4450 -2869
84838 286063 329973 -15616 4382 -2783
84834 286102 330006 -15689 4358 -2695
84817 286138 330007 -15760 4326 -2655
84801 286137 329986 -15791 4263 -2648
84789 286105 329950 -15774 4197 -2685
84789 286098 329953 -15677 4142 -2738
84804 286117 329953 -15531 4130 -2773
84824 286135 329945 -15476 4107 -2859
84836 286137 329930 -15545 4037 -3009
84857 286156 329936 -15575 3990 -3159
84892 286244 330013 -15511 3983 -3284
84949 286351 330113 -15436 4014 -3382
85010 286436 330191 -15401 4040 -3499
85080 286525 330283 -15420 3996 -3642
85134 286604 330341 -15469 3938 -3752
85181 286657 330354 -15479 3963 -3805
85210 286670 330342 -15407 4067 -3787
85215 286689 330320 -15302 4159 -3752
85170 286687 330314 -15312 4150 -3747
85065 286668 330291 -15397 4064 -3757
84948 286670 330284 -15416 3985 -3762
84848 286757 330351 -15404 3937 -3753
84787 286898 330506 -15427 3910 -3726
84734 287080 330696 -15484 3889 -3664
84690 287282 330960 -15555 3867 -3585
84648 287463 331193 -15600 3844 -3542
84621 287631 331395 -15590 3829 -3526
84578 287671 331414 -15530 3840 -3487
84541 287636 331353 -15454 3836 -3484
84529 287591 331299 -15397 3790 -3515
84524 287603 331314 -15365 3744 -3521
84524 287618 331343 -15356 3732 -3483
84518 287617 331343 -15357 3763 -3417
84526 287653 331361 -15376 3805 -3386
84562 287757 331481 -15441 3839 -3383
84635 287926 331699 -15533 3871 -3351
84697 288054 331844 -15593 3917 -3275
84745 288103 331889 -15575 3988 -3203
84806 288182 331995 -15528 3999 -3227
84877 288309 332136 -15550 3974 -3333
84952 288430 332256 -15660 3964 -3438
85031 288540 332364 -15754 3930 -3514
85090 288591 332413 -15719 3883 -3597
85128 288589 332379 -15656 3823 -3736
85182 288603 332370 -15690 3757 -3872
85220 288597 332352 -15774 3703 -3955
85209 288531 332320 -15816 3652 -4007
85134 288458 332271 -15642 3536 -4112
85043 288381 332226 -15510 3589 -4104
84965 288371 332243 -15426 3649 -4086
84906 288400 332302 -15352 3695 -4073
84844 288436 332351 -15201 3721 -4088
84775 288429 332368 -15095 3702 -4144
84707 288432 332375 -15104 3662 -4245
84646 288428 332390 -15154 3638 -4395
84611 288462 332435 -15191 3656 -4512
84608 288513 332480 -15156 3728 -4561
84618 288543 332521 -15170 3809 -4614
84618 288547 332519 -15283 3857 -4675
84620 288540 332514 -15422 3873 -4703
84628 288542 332505 -15537 3882 -4675
84650 288515 332495 -15570 3896 -4593
84684 288474 332459 -15534 3905 -4460
84723 288436 332422 -15407 3915 -4321
84765 288391 332383 -15239 3909 -4221
84818 288347 332336 -15171 3877 -4156
84874 288343 332333 -15170 3843 -4125
84928 288358 332351 -15177 3837 -4119
84985 288384 332373 -15254 3836 -4115
85035 288380 332336 -15403 3815 -4117
85078 288360 332295 -15570 3803 -4110
85127 288366 332262 -15681 3826 -4062
85174 288371 332246 -15690 3867 -3976
85186 288326 332199 -15666 3901 -3882
85134 288249 332129 -15619 3903 -3816
85041 288192 332090 -15538 3874 -3807
84951 288155 332048 -15482 3874 -3837
84870 288121 332028 -15486 3924 -3826
84799 288110 332020 -15550 3955 -3783
84727 288092 332014 -15605 3971 -3719
84656 288085 332032 -15628 4012 -3645
84597 288085 332039 -15660 4035 -3595
84553 288074 332024 -15685 4024 -3562
84522 288065 332003 -15657 4001 -3548
84513 288048 331973 -15578 3976 -3554
84503 287995 331891 -15491 3935 -3618
84479 287908 331767 -15443 3893 -3691
84469 287856 331705 -15415 3888 -3728
84473 287834 331679 -15417 3872 -3762
84489 287851 331688 -15448 3821 -3815
84526 287877 331716 -15457 3784 -3861
84570 287896 331740 -15431 3761 -3889
84632 287962 331807 -15415 3736 -3909
84715 288044 331925 -15428 3716 -3913
84805 288163 332065 -15412 3724 -3905
84900 288288 332207 -15380 3762 -3881
85003 288415 332364 -15375 3807 -3870
85099 288524 332468 -15386 3858 -3855
85201 288643 332605 -15439 3873 -3840
85288 288711 332676 -15507 3854 -3848
85341 288680 332611 -15522 3845 -3839
85338 288564 332453 -15506 3829 -3839
85256 288348 332200 -15501 3806 -3856
85118 288089 331917 -15508 3776 -3853
84977 287860 331645 -15484 3748 -3826
84849 287667 331398 -15456 3712 -3779
84744 287517 331237 -15457 3686 -3732
84687 287500 331236 -15456 3685 -3685
84663 287554 331370 -15494 3685 -3755
84692 287797 331712 -15547 3710 -3827
84798 288197 332254 -15545 3768 -3863
84929 288614 332775 -15476 3806 -3897
85048 288922 333180 -15412 3802 -3957
85114 289057 333360 -15338 3782 -4073
85135 289080 333390 -15237 3758 -4210
85141 289047 333335 -15085 3717 -4289
85153 289035 333307 -14843 3684 -4352
85167 289007 333263 -14623 3431 -4748
85176 288926 333146 -14592 3295 -4984
85198 288862 333062 -14633 3323 -5152
85243 288858 333042 -14771 3455 -5211
85292 288850 333031 -15003 3519 -5194
85337 288834 332998 -15327 3450 -5186
85401 288864 333038 -15627 3305 -5199
85492 288976 333185 -15807 3196 -5139
85604 289138 333380 -15875 3192 -4971
85704 289274 333511 -15787 3310 -4553
85804 289368 333624 -15696 3466 -4330
85905 289446 333715 -15579 3616 -4132
85994 289504 333785 -15466 3696 -4048
86039 289506 333805 -15415 3709 -4084
86003 289419 333731 -15424 3713 -4166
85918 289302 333609 -15487 3760 -4190
85828 289198 333491 -15558 3834 -4174
85753 289143 333440 -15562 3909 -4151
85695 289126 333413 -15543 3961 -4189
85625 289102 333384 -15588 3974 -4278
85562 289098 333386 -15652 3941 -4310
85510 289112 333422 -15650 3905 -4288
85485 289165 333482 -15543 3880 -4251
85484 289226 333544 -15412 3846 -4238
85508 289298 333608 -15321 3798 -4265
85535 289360 333692 -15246 3763 -4283
85557 289385 333728 -15221 3747 -4282
85568 289411 333741 -15255 3730 -4299
85585 289409 333730 -15287 3718 -4333
85607 289412 333741 -15265 3724 -4387
85636 289412 333732 -15272 3730 -4418
85669 289420 333719 -15358 3726 -4424
85706 289424 333711 -15425 3718 -4438
85749 289429 333696 -15453 3710 -4434
85790 289441 333706 -15458 3702 -4421
85846 289476 333728 -15435 3680 -4406
85907 289496 333754 -15404 3663 -4369
85974 289542 333798 -15390 3653 -4325
86042 289580 333814 -15388 3650 -4275
86112 289590 333821 -15370 3637 -4272
86165 289589 333819 -15397 3657 -4240
86160 289530 333771 -15392 3665 -4233
86094 289421 333680 -15380 3673 -4237
86002 289243 333503 -15391 3679 -4227
85926 289033 333305 -15385 3703 -4213
85866 288863 333159 -15369 3724 -4205
85792 288733 333031 -15411 3732 -4197
85722 288648 332952 -15470 3746 -4181
85663 288658 332973 -15459 3788 -4145
85611 288724 333023 -15448 3783 -4130
85580 288801 333092 -15449 3781 -4116
85585 288855 333126 -15433 3788 -4094
85591 288886 333154 -15408 3788 -4076
85596 288895 333157 -15399 3779 -4067
85598 288899 333150 -15415 3772 -4061
85605 288895 333144 -15420 3770 -4055
85614 288902 333123 -15412 3767 -4046
85633 288916 333132 -15426 3708 -4023
85661 288922 333142 -15433 3717 -4002
85700 288946 333142 -15430 3733 -3965
85739 288965 333145 -15428 3743 -3930
85785 288977 333162 -15445 3747 -3921
85838 288996 333173 -15476 3739 -3928
85895 289024 333190 -15515 3737 -3921
85953 289057 333200 -15551 3739 -3912
86016 289083 333236 -15560 3736 -3917
86083 289103 333231 -15489 3723 -3919
86138 289098 333230 -15483 3737 -3926
86145 289056 333192 -15468 3741 -3924
86083 288962 333110 -15429 3742 -3925
85997 288887 333041 -15422 3737 -3935
85914 288821 332988 -15460 3736 -3948
85842 288771 332922 -15485 3740 -3956
85764 288705 332865 -15486 3758 -3930
85680 288661 332825 -15479 3773 -3891
85597 288655 332821 -15475 3782 -3879
85529 288665 332843 -15459 3789 -3872
85476 288708 332868 -15450 3801 -3858
85456 288766 332906 -15464 3812 -3859
85466 288804 332941 -15491 3821 -3872
85471 288824 332963 -15521 3829 -3872
85479 288837 332969 -15515 3833 -3854
85494 288848 332973 -15495 3838 -3845
85507 288870 332988 -15496 3839 -3850
85527 288895 333009 -15506 3837 -3853
85555 288920 333021 -15515 3839 -3845
85587 288953 333042 -15500 3858 -3825
85631 288983 333052 -15485 3867 -3814
85678 288997 333078 -15475 3845 -3823
85726 289037 333088 -15461 3827 -3822
85784 289067 333113 -15469 3830 -3826
85840 289084 333129 -15486 3836 -3834
85905 289107 333147 -15497 3837 -3836
85973 289146 333165 -15502 3842 -3830
86045 289168 333169 -15495 3848 -3821
86110 289183 333190 -15478 3855 -3821
86134 289163 333173 -15437 3904 -3825
86088 289101 333122 -15417 3878 -3850
86006 289025 333065 -15430 3851 -3871
85924 288991 333030 -15475 3839 -3882
85854 288964 333024 -15501 3839 -3872
85780 288950 333003 -15495 3844 -3847
85696 288931 332988 -15467 3841 -3822
85613 288910 332975 -15452 3836 -3801
85539 288899 332983 -15452 3830 -3789
85477 288908 332986 -15438 3837 -3744
85445 288925 333003 -15443 3857 -3709
85449 288974 333039 -15478 3860 -3734
85457 288994 333054 -15496 3842 -3762
85456 288997 333067 -15485 3826 -3784
85466 289006 333064 -15462 3829 -3815
85471 289004 333052 -15470 3834 -3830
85489 289022 333045 -15505 3855 -3822
85513 289038 333070 -15525 3898 -3805
85545 289051 333075 -15517 3923 -3761
85584 289086 333108 -15462 3948 -3726
85625 289104 333112 -15455 3924 -3757
85670 289129 333128 -15451 3884 -3786
85718 289139 333143 -15454 3869 -3794
85767 289152 333146 -15463 3858 -3803
85823 289187 333150 -15475 3848 -3804
85881 289182 333152 -15473 3844 -3782
85944 289210 333175 -15470 3844 -3766
86016 289231 333173 -15464 3851 -3767
86082 289249 333187 -15458 3856 -3766
86128 289245 333189 -15426 3877 -3768
86101 289171 333129 -15391 3881 -3788
86025 289089 333071 -15432 3864 -3810
85939 289029 333024 -15506 3852 -3827
85865 289010 333019 -15544 3854 -3829
85799 289005 333014 -15534 3864 -3809
85721 288973 332995 -15497 3856 -3774
85637 288951 332960 -15469 3850 -3751
85562 288908 332943 -15455 3840 -3745
85501 288907 332944 -15448 3842 -3730
85461 288931 332956 -15437 3876 -3706
85459 288975 333002 -15447 3881 -3711
85474 288999 333020 -15476 3863 -3736
85482 289007 333015 -15473 3858 -3753
85488 289008 333014 -15476 3849 -3782
85494 288998 333020 -15500 3845 -3797
85506 289017 333026 -15502 3844 -3796
85534 289050 333044 -15485 3854 -3785
85560 289072 333067 -15468 3863 -3761
85593 289094 333069 -15465 3856 -3756
85635 289106 333095 -15464 3899 -3741
85678 289141 333104 -15478 3878 -3752
85728 289145 333123 -15488 3871 -3753
85778 289172 333133 -15499 3867 -3764
85831 289178 333140 -15507 3863 -3774
85891 289203 333137 -15502 3858 -3771
85952 289203 333149 -15479 3856 -3753
86018 289229 333169 -15456 3860 -3729
86082 289252 333156 -15459 3856 -3727
86145 289259 333167 -15457 3919 -3669
86183 289238 333156 -15461 3900 -3712
86149 289173 333101 -15514 3886 -3764
86069 289109 333058 -15552 3884 -3773
85985 289068 333020 -15536 3890 -3753
85913 289042 333012 -15495 3883 -3727
85836 289029 333017 -15472 3869 -3706
85750 289006 332993 -15469 3871 -3698
85666 288988 332985 -15469 3880 -3684
85591 288979 332994 -15464 3902 -3660
85526 288996 333006 -15496 3891 -3680
85481 288999 333018 -15504 3880 -3713
85472 289031 333036 -15474 3866 -3732
85475 289042 333040 -15478 3858 -3730
85470 289042 333049 -15493 3856 -3737
85468 289027 333037 -15488 3864 -3739
85469 289036 333045 -15482 3876 -3724
85477 289045 333055 -15484 3877 -3718
85503 289056 333062 -15482 3887 -3713
85526 289078 333072 -15465 3905 -3683
85562 289091 333084 -15467 3898 -3668
85601 289106 333086 -15471 3879 -3697
85644 289123 333094 -15474 3872 -3716
85694 289138 333103 -15481 3867 -3732
85746 289150 333119 -15480 3862 -3729
85796 289167 333117 -15476 3861 -3723
85849 289170 333106 -15459 3859 -3729
85910 289186 333117 -15444 3859 -3731
85975 289210 333133 -15449 3871 -3728
86047 289223 333148 -15446 3900 -3681
86113 289234 333149 -15431 3914 -3650
86158 289225 333145 -15454 3907 -3682
86138 289171 333100 -15521 3898 -3710
86055 289085 333046 -15551 3885 -3723
85967 289039 333005 -15517 3874 -3709
85887 289017 333004 -15474 3867 -3679
85808 288997 332982 -15462 3864 -3671
85721 288945 332968 -15465 3874 -3669
85625 288908 332951 -15457 3886 -3663
85538 288897 332945 -15456 3908 -3636
85457 288898 332950 -15485 3904 -3644
85399 288910 332958 -15515 3881 -3693
85372 288925 332976 -15507 3882 -3707
85370 288952 332993 -15478 3881 -3717
85371 288954 333006 -15477 3877 -3734
85366 288956 333002 -15488 3881 -3723
85361 288968 333004 -15490 3894 -3695
85364 288966 333000 -15484 3905 -3680
85379 288984 333024 -15486 3904 -3686
85395 289010 333046 -15445 3898 -3691
85422 289031 333069 -15446 3891 -3718
85451 289039 333078 -15462 3887 -3717
85489 289066 333092 -15484 3892 -3712
85532 289090 333106 -15498 3893 -3709
85580 289104 333118 -15494 3891 -3702
85627 289114 333129 -15480 3889 -3699
85684 289134 333132 -15472 3887 -3703
85742 289153 333150 -15471 3888 -3693
85805 289166 333161 -15486 3904 -3686
85874 289194 333178 -15445 3898 -3691
85940 289218 333188 -15446 3891 -3718
86005 289225 333194 -15462 3887 -3717
86048 289227 333185 -15484 3892 -3712
86011 289151 333149 -15498 3893 -3709
85918 289069 333086 -15494 3891 -3702
85817 289014 333042 -15480 3889 -3699
85726 288971 333027 -15472 3887 -3703
85635 288948 333023 -15471 3888 -3693
85531 288907 332995 -15453 3930 -3609
85426 288866 332963 -15457 3927 -3608
85321 288846 332954 -15460 3903 -3641
85231 288833 332960 -15498 3888 -3681
85162 288834 332964 -15537 3883 -3706
85117 288836 332953 -15539 3887 -3694
85097 288813 332946 -15513 3889 -3649
85084 288820 332933 -15499 3881 -3618
85076 288798 332922 -15503 3875 -3610
85075 288807 332927 -15487 3894 -3579
85080 288797 332929 -15454 3911 -3570
85093 288812 332945 -15468 3905 -3600
85113 288833 332950 -15502 3895 -3628
85138 288853 332973 -15506 3884 -3655
85171 288876 332989 -15490 3880 -3673
85210 288899 333000 -15489 3881 -3676
85253 288912 333019 -15500 3885 -3671
85302 288929 333029 -15504 3888 -3666
85355 288953 333040 -15502 3892 -3662
85411 288955 333057 -15501 3911 -3653
85471 288975 333057 -15487 3933 -3624
85535 289006 333074 -15481 3920 -3624
85597 289011 333072 -15485 3888 -3647
85673 289038 333095 -15482 3878 -3654
85744 289050 333097 -15482 3890 -3656
85808 289058 333109 -15495 3893 -3658
85817 289004 333060 -15507 3890 -3664
85755 288922 333008 -15509 3893 -3661
85661 288854 332959 -15499 3886 -3657
85568 288825 332936 -15481 3881 -3639
85487 288809 332929 -15453 3922 -3597
85397 288769 332907 -15447 3941 -3587
85297 288728 332889 -15479 3914 -3611
85202 288710 332886 -15483 3910 -3613
85116 288692 332871 -15472 3908 -3623
85044 288692 332884 -15509 3904 -3656
85003 288699 332892 -15552 3898 -3676
84996 288712 332905 -15548 3900 -3662
84989 288737 332913 -15511 3905 -3636
84982 288725 332905 -15486 3902 -3627
84978 288725 332900 -15468 3920 -3589
84980 288728 332904 -15448 3936 -3567
84992 288735 332919 -15446 3925 -3591
85007 288750 332923 -15470 3915 -3612
85033 288769 332933 -15512 3918 -3636
85061 288781 332950 -15534 3909 -3648
85105 288817 332983 -15507 3893 -3659
85149 288849 333006 -15480 3885 -3663
85197 288883 333026 -15480 3884 -3646
85248 288896 333032 -15491 3889 -3637
85302 288917 333046 -15475 3942 -3578
85356 288920 333047 -15479 3913 -3607
85420 288943 333065 -15478 3882 -3626
85481 288964 333073 -15469 3882 -3629
85548 288985 333079 -15469 3885 -3642
85619 289021 333114 -15498 3876 -3658
85688 289034 333117 -15518 3880 -3661
85746 289042 333126 -15512 3885 -3656
85751 288995 333095 -15503 3890 -3641
85679 288916 333031 -15468 3938 -3564
85585 288856 332987 -15470 3930 -3579
85493 288816 332967 -15483 3918 -3588
85418 288809 332975 -15511 3916 -3588
85341 288777 332966 -15518 3916 -3590
85250 288744 332937 -15486 3911 -3594
85159 288730 332918 -15486 3908 -3628
85084 288714 332932 -15542 3906 -3665
85024 288715 332938 -15572 3910 -3661
84992 288725 332947 -15526 3934 -3612
84985 288755 332973 -15452 3955 -3549
84983 288758 332984 -15434 3936 -3542
84978 288768 332995 -15459 3909 -3559
84978 288782 333001 -15465 3899 -3558
84980 288784 333003 -15481 3907 -3565
84997 288807 333020 -15514 3920 -3583
85020 288818 333032 -15536 3919 -3596
85051 288836 333056 -15521 3916 -3597
85088 288862 333060 -15498 3908 -3599
85132 288888 333086 -15497 3906 -3606
85173 288901 333094 -15480 3926 -3590
85226 288916 333114 -15470 3933 -3572
85279 288941 333111 -15488 3925 -3588
85342 288962 333148 -15509 3922 -3610
85406 288998 333161 -15524 3911 -3620
85476 289017 333171 -15518 3904 -3614
85541 289036 333170 -15509 3906 -3626
85616 289072 333192 -15507 3898 -3637
85688 289071 333195 -15500 3887 -3632
85759 289095 333214 -15494 3893 -3629
85804 289085 333202 -15466 3936 -3586
85763 289021 333153 -15440 3956 -3575
85677 288952 333125 -15435 3925 -3608
85583 288919 333110 -15441 3918 -3612
85505 288911 333113 -15458 3938 -3611
85431 288914 333129 -15491 3942 -3615
85349 288888 333122 -15511 3935 -3609
85259 288870 333113 -15483 3933 -3608
85171 288860 333117 -15482 3925 -3636
85097 288860 333126 -15534 3923 -3663
85053 288886 333143 -15492 3979 -3586
85039 288907 333164 -15463 3964 -3556
85035 288934 333191 -15460 3940 -3546
85031 288933 333209 -15467 3929 -3550
85025 288954 333206 -15463 3928 -3548
85027 288956 333203 -15468 3930 -3554
85036 288958 333225 -15485 3934 -3562
85056 288992 333248 -15505 3942 -3564
85078 289013 333262 -15505 3936 -3575
85106 289020 333260 -15480 3968 -3563
85143 289039 333263 -15497 3955 -3586
85184 289055 333288 -15489 3949 -3583
85228 289088 333315 -15480 3953 -3563
85278 289116 333324 -15484 3944 -3571
85323 289131 333333 -15494 3931 -3588
85371 289159 333344 -15491 3925 -3601
85427 289188 333367 -15474 3925 -3597
85488 289219 333388 -15466 3925 -3588
85559 289245 333407 -15461 3946 -3579
85633 289283 333430 -15451 3979 -3569
85699 289287 333429 -15463 3971 -3575
85755 289293 333424 -15483 3942 -3581
85748 289231 333389 -15483 3924 -3583
85673 289163 333326 -15477 3920 -3584
85572 289099 333293 -15483 3927 -3579
85476 289066 333269 -15500 3928 -3593
85383 289043 333272 -15507 3928 -3614
85289 289010 333261 -15481 3930 -3601
85180 288985 333235 -15462 3947 -3600
85085 288974 333228 -15483 3981 -3605
84988 288965 333233 -15508 3984 -3615
84901 288968 333245 -15496 3956 -3633
84845 288973 333261 -15473 3933 -3618
84827 288990 333278 -15481 3927 -3594
84815 289012 333279 -15491 3931 -3581
84807 289013 333278 -15486 3944 -3575
84801 289011 333277 -15478 3951 -3578
84805 289012 333277 -15488 3940 -3592
84812 289033 333295 -15519 3942 -3602
84825 289049 333305 -15509 3975 -3588
84842 289071 333325 -15478 3978 -3581
84875 289096 333335 -15482 3944 -3589
84909 289109 333345 -15492 3937 -3588
84954 289146 333369 -15495 3953 -3572
85006 289172 333398 -15498 3967 -3563
85057 289190 333415 -15501 3961 -3576
85115 289223 333438 -15498 3944 -3584
85173 289247 333444 -15490 3933 -3588
85237 289262 333467 -15485 3932 -3585
85302 289294 333482 -15466 3970 -3553
85371 289329 333512 -15471 3992 -3538
85438 289358 333535 -15488 3964 -3570
85507 289386 333546 -15485 3934 -3596
85554 289369 333544 -15482 3918 -3590
85521 289302 333495 -15484 3926 -3584
85428 289225 333441 -15480 3942 -3588
85327 289177 333412 -15471 3956 -3578
85232 289163 333408 -15489 3968 -3583
85139 289152 333412 -15522 3965 -3612
85038 289117 333393 -15460 4018 -3550
84930 289089 333377 -15498 3990 -3590
84825 289078 333388 -15540 3952 -3630
84729 289076 333383 -15532 3954 -3630
84651 289082 333396 -15494 3961 -3612
84608 289107 333424 -15471 3954 -3605
84594 289135 333459 -15468 3949 -3588
84582 289159 333475 -15460 3948 -3564
84572 289158 333475 -15468 3944 -3561
84564 289170 333480 -15482 3955 -3552
84567 289178 333488 -15485 3972 -3528
84574 289194 333505 -15494 3973 -3547
84592 289211 333529 -15492 3973 -3588
84623 289249 333550 -15476 3972 -3607
84660 289264 333554 -15483 3964 -3617
84702 289293 333580 -15509 3964 -3614
84751 289319 333592 -15519 3977 -3607
84802 289334 333604 -15508 3983 -3611
84860 289343 333628 -15497 3970 -3617
84914 289371 333635 -15488 3965 -3614
84978 289407 333650 -15453 3980 -3577
85048 289431 333670 -15436 3989 -3558
85115 289463 333697 -15453 3979 -3573
85191 289492 333717 -15463 3957 -3599
85264 289539 333749 -15476 3945 -3622
85344 289560 333753 -15480 3949 -3617
85410 289577 333768 -15484 3956 -3604
85415 289543 333748 -15490 3951 -3594
85340 289461 333698 -15487 3949 -3586
85228 289404 333678 -15483 3969 -3571
85130 289384 333662 -15468 4006 -3541
85040 289384 333666 -15474 4023 -3532
84941 289350 333659 -15478 4007 -3556
84826 289326 333653 -15466 3986 -3591
84714 289313 333651 -15491 3967 -3626
84613 289314 333663 -15523 3957 -3632
84531 289338 333703 -15505 3957 -3617
84474 289362 333728 -15467 3975 -3587
84457 289402 333771 -15457 3997 -3562
84450 289434 333806 -15473 4006 -3549
84444 289447 333818 -15445 4068 -3475
84437 289457 333829 -15455 4044 -3498
84426 289454 333820 -15488 4015 -3527
84432 289451 333816 -15508 3994 -3550
84447 289462 333820 -15501 3976 -3562
84464 289460 333815 -15485 3970 -3564
84492 289459 333797 -15486 3976 -3565
84530 289476 333813 -15484 3981 -3569
84574 289485 333804 -15471 3979 -3582
84619 289501 333814 -15450 4011 -3576
84687 289560 333877 -15435 4052 -3560
84754 289618 333934 -15449 4044 -3574
84828 289674 333968 -15464 4012 -3606
84900 289706 334014 -15471 3985 -3626
84972 289748 334051 -15480 3970 -3624
85039 289762 334044 -15479 3972 -3611
85116 289782 334060 -15467 3986 -3600
85194 289795 334057 -15460 3995 -3579
85271 289816 334074 -15462 3995 -3558
85315 289807 334051 -15421 4012 -3496
85276 289731 334014 -15419 4003 -3511
85182 289661 333971 -15427 3985 -3544
85090 289640 333956 -15455 3981 -3574
85001 289630 333961 -15463 3976 -3590
84911 289609 333966 -15461 3970 -3604
84807 289579 333932 -15507 3967 -3622
84705 289559 333939 -15555 3982 -3630
84605 289561 333952 -15545 4005 -3624
84518 289566 333976 -15490 4022 -3588
84461 289585 334004 -15443 4048 -3534
84435 289618 334034 -15437 4042 -3511
84429 289635 334048 -15432 4023 -3511
84425 289658 334059 -15423 4029 -3515
84419 289648 334054 -15438 4027 -3547
84415 289633 334038 -15471 4012 -3583
84416 289620 334040 -15488 4007 -3592
84431 289641 334043 -15462 4013 -3590
84453 289676 334088 -15440 4017 -3595
84483 289711 334113 -15448 4023 -3592
84524 289745 334140 -15457 4077 -3569
84567 289768 334161 -15457 4105 -3564
84617 289785 334170 -15462 4070 -3577
84673 289800 334188 -15469 4042 -3576
84727 289828 334204 -15466 4016 -3582
84780 289843 334212 -15456 3985 -3581
84840 289873 334231 -15460 3979 -3567
84906 289887 334239 -15471 3978 -3572
84977 289916 334268 -15482 3970 -3577
85055 289955 334285 -15486 3972 -3578
85128 289976 334286 -15438 4043 -3543
85202 289996 334311 -15443 4018 -3568
85257 290001 334336 -15447 4013 -3577
85241 289962 334315 -15444 4026 -3575
85154 289904 334275 -15462 4026 -3565
85046 289864 334257 -15484 4014 -3566
84952 289854 334256 -15460 4014 -3572
84867 289837 334262 -15454 4026 -3573
84768 289807 334249 -15506 4036 -3603
84663 289780 334242 -15506 4096 -3545
84562 289766 334232 -15465 4078 -3518
84472 289776 334261 -15437 4062 -3508
84399 289787 334269 -15435 4057 -3514
84364 289818 334320 -15441 4059 -3523
84355 289852 334349 -15450 4056 -3525
84348 289886 334382 -15460 4049 -3545
84335 289895 334391 -15479 4037 -3564
84332 289913 334404 -15492 4019 -3570
84335 289934 334433 -15469 4049 -3558
84348 289967 334461 -15465 4093 -3526
84366 289972 334471 -15488 4079 -3523
84393 289998 334495 -15484 4053 -3542
84425 290033 334514 -15472 4051 -3528
84469 290076 334542 -15471 4055 -3512
84518 290119 334589 -15485 4044 -3520
84580 290161 334620 -15495 4029 -3541
84633 290186 334649 -15488 4023 -3558
84689 290215 334672 -15486 4019 -3563
84745 290237 334689 -15475 4023 -3554
84814 290264 334699 -15450 4042 -3544
84889 290313 334732 -15451 4032 -3555
84952 290317 334753 -15463 4006 -3571
85015 290331 334745 -15461 4005 -3578
85047 290300 334711 -15456 4017 -3580
84994 290216 334652 -15454 4030 -3570
84891 290144 334593 -15461 4038 -3579
84780 290114 334575 -15455 4041 -3585
84686 290097 334591 -15441 4037 -3586
84586 290089 334602 -15450 4035 -3620
84475 290062 334602 -15477 4062 -3640
84359 290052 334612 -15483 4081 -3633
84254 290054 334622 -15453 4062 -3605
84153 290065 334654 -15436 4052 -3564
84078 290086 334688 -15446 4058 -3534
84042 290144 334740 -15455 4064 -3521
84029 290171 334775 -15451 4070 -3522
84009 290185 334777 -15458 4076 -3530
83991 290199 334817 -15470 4076 -3553
83974 290236 334841 -15478 4068 -3574
83962 290296 334897 -15442 4098 -3561
83973 290375 334973 -15413 4112 -3560
83997 290482 335060 -15448 4081 -3576
84033 290563 335144 -15472 4062 -3585
84072 290653 335211 -15467 4064 -3590
84124 290732 335294 -15456 4066 -3596
84197 290850 335424 -15455 4046 -3607
84281 290999 335570 -15459 4022 -3617
84368 291118 335726 -15459 4000 -3634
84453 291240 335837 -15458 4005 -3640
84550 291355 335980 -15436 4066 -3605
84653 291489 336126 -15409 4111 -3575
84764 291650 336319 -15420 4095 -3598
84874 291805 336474 -15438 4073 -3625
84982 291933 336626 -15432 4084 -3607
85049 292015 336737 -15450 4093 -3626
85019 292017 336788 -15439 4074 -3668
84929 291976 336785 -15411 4097 -3648
84837 291994 336821 -15430 4117 -3640
84747 292036 336890 -15412 4103 -3648
84658 292057 336943 -15383 4090 -3744
84549 292070 336966 -15447 4073 -3764
84438 292088 337006 -15451 4080 -3742
84330 292105 337044 -15419 4098 -3676
84232 292124 337097 -15420 4113 -3623
84166 292164 337139 -15433 4118 -3606
84133 292203 337176 -15438 4110 -3601
84137 292241 337222 -15456 4105 -3613
84139 292264 337240 -15464 4104 -3641
84133 292248 337224 -15454 4128 -3661
84134 292233 337219 -15444 4149 -3658
84141 292244 337224 -15430 4131 -3663
84164 292267 337250 -15421 4114 -3678
84195 292306 337285 -15433 4128 -3668
84243 292345 337330 -15441 4176 -3651
84284 292385 337356 -15428 4217 -3623
84340 292425 337399 -15416 4227 -3603
84401 292473 337452 -15419 4231 -3615
84461 292529 337507 -15428 4210 -3628
84530 292588 337568 -15422 4200 -3622
84604 292656 337635 -15389 4228 -3579
84674 292706 337674 -15384 4234 -3555
84754 292736 337704 -15407 4221 -3571
84824 292734 337680 -15417 4207 -3575
84899 292718 337661 -15421 4188 -3570
84959 292699 337646 -15410 4182 -3570
84943 292640 337599 -15396 4174 -3595
84859 292561 337556 -15391 4171 -3629
84755 292511 337542 -15372 4179 -3635
84668 292512 337580 -15340 4184 -3617
84575 292512 337605 -15342 4223 -3590
84470 292485 337625 -15403 4250 -3580
84367 292463 337607 -15473 4248 -3592
84261 292386 337551 -15478 4270 -3569
84150 292301 337485 -15453 4284 -3518
84082 292326 337505 -15435 4266 -3477
84050 292318 337530 -15410 4258 -3457
84053 292355 337571 -15395 4260 -3450
84063 292352 337582 -15403 4249 -3463
84069 292357 337597 -15415 4258 -3469
84079 292364 337611 -15417 4300 -3450
84100 292380 337635 -15415 4291 -3442
84119 292394 337644 -15405 4257 -3471
84150 292406 337665 -15403 4244 -3493
84181 292436 337698 -15402 4250 -3490
84218 292481 337736 -15401 4267 -3471
84266 292546 337814 -15407 4279 -3449
84321 292639 337891 -15416 4273 -3431
84376 292721 337949 -15435 4265 -3413
84430 292759 337964 -15411 4339 -3332
84494 292799 337986 -15406 4332 -3336
84561 292839 338014 -15424 4303 -3398
84635 292900 338055 -15451 4283 -3430
84707 292936 338071 -15453 4298 -3405
84763 292952 338093 -15428 4336 -3355
84746 292919 338066 -15416 4353 -3334
84654 292851 338009 -15399 4360 -3331
84544 292797 337965 -15386 4357 -3323
84442 292756 337948 -15413 4383 -3311
84331 292710 337915 -15461 4420 -3281
84220 292661 337872 -15483 4432 -3267
84103 292628 337846 -15470 4444 -3254
83990 292600 337826 -15461 4436 -3211
83889 292585 337830 -15448 4438 -3166
83829 292593 337837 -15415 4452 -3138
83801 292610 337853 -15401 4455 -3118
83804 292638 337877 -15417 4459 -3092
83802 292657 337892 -15448 4477 -3076
83797 292665 337884 -15429 4529 -3029
83790 292660 337877 -15414 4505 -3057
83792 292638 337854 -15425 4481 -3089
83810 292642 337872 -15434 4481 -3092
83844 292683 337891 -15431 4496 -3077
83881 292705 337904 -15430 4508 -3055
83925 292738 337933 -15434 4517 -3052
83977 292781 337971 -15437 4532 -3067
84036 292827 338007 -15445 4550 -3058
84100 292861 338037 -15448 4558 -3040
84171 292904 338072 -15423 4574 -3015
84237 292945 338101 -15431 4584 -2996
84307 292995 338134 -15462 4564 -3011
84385 293050 338189 -15462 4553 -3007
84454 293103 338220 -15450 4551 -2981
84514 293142 338267 -15443 4553 -2962
84510 293111 338253 -15441 4553 -2959
84425 293046 338191 -15433 4550 -2969
84308 292995 338159 -15434 4553 -2992
84197 292996 338180 -15467 4556 -3021
84094 292999 338189 -15459 4610 -2984
83980 292996 338205 -15446 4613 -2949
83865 292985 338198 -15453 4586 -2904
83750 292968 338194 -15447 4582 -2882
83658 292992 338215 -15430 4584 -2880
83588 293018 338244 -15429 4591 -2880
83568 293050 338262 -15428 4608 -2885
83572 293083 338299 -15436 4602 -2895
83570 293114 338316 -15442 4577 -2912
83582 293106 338335 -15415 4568 -2922
83580 293116 338336 -15401 4574 -2923
83590 293121 338325 -15416 4578 -2922
83600 293104 338315 -15424 4584 -2908
83630 293134 338342 -15418 4592 -2907
83672 293166 338386 -15430 4600 -2899
83727 293190 338426 -15447 4607 -2870
83778 293233 338478 -15446 4610 -2853
83843 293298 338535 -15456 4605 -2843
83907 293336 338593 -15470 4610 -2837
83972 293370 338621 -15434 4617 -2865
84034 293401 338639 -15437 4596 -2892
84116 293476 338689 -15445 4572 -2889
84215 293605 338801 -15419 4574 -2815
84324 293732 338907 -15384 4602 -2768
84420 293817 338977 -15367 4611 -2800
84501 293861 339014 -15385 4618 -2839
84531 293863 339032 -15415 4651 -2839
84478 293849 339047 -15449 4684 -2822
84378 293830 339045 -15482 4694 -2854
84271 293809 339042 -15465 4687 -2886
84179 293788 339050 -15430 4686 -2865
84077 293758 339047 -15403 4682 -2819
83964 293723 339041 -15401 4670 -2774
83859 293724 339040 -15398 4671 -2748
83763 293738 339086 -15378 4688 -2738
83696 293771 339133 -15382 4702 -2744
83674 293827 339203 -15412 4697 -2771
83671 293879 339252 -15449 4693 -2803
83676 293915 339306 -15453 4695 -2822
83674 293932 339315 -15417 4714 -2832
83681 293961 339351 -15413 4727 -2828
83697 293994 339385 -15426 4722 -2804
83721 294035 339422 -15423 4731 -2771
83749 294072 339458 -15423 4737 -2743
83788 294100 339475 -15433 4726 -2720
83830 294079 339450 -15440 4712 -2723
83873 294051 339421 -15435 4699 -2744
83914 294011 339374 -15432 4684 -2771
83968 294003 339350 -15422 4680 -2785
84031 294011 339358 -15417 4749 -2745
84099 294032 339380 -15423 4751 -2723
84165 294052 339389 -15430 4746 -2711
84242 294069 339404 -15436 4740 -2700
84320 294098 339416 -15435 4738 -2712
84396 294108 339420 -15441 4725 -2731
84469 294121 339430 -15440 4720 -2739
84482 294076 339389 -15425 4712 -2750
84416 293988 339322 -15434 4692 -2779
84299 293925 339269 -15444 4700 -2826
84187 293877 339247 -15419 4701 -2778
84085 293851 339226 -15416 4705 -2729
83978 293815 339214 -15427 4706 -2710
83873 293788 339199 -15418 4699 -2691
83768 293777 339204 -15400 4696 -2681
83678 293781 339224 -15409 4688 -2696
83616 293808 339250 -15441 4679 -2725
83598 293853 339298 -15452 4676 -2766
83599 293909 339343 -15403 4687 -2794
83599 293950 339391 -15428 4666 -2793
83602 293988 339421 -15441 4675 -2792
83613 294035 339474 -15420 4675 -2801
83630 294084 339513 -15414 4672 -2804
83654 294143 339567 -15416 4657 -2802
83689 294205 339627 -15426 4643 -2801
83736 294270 339693 -15440 4648 -2797
83791 294329 339742 -15447 4648 -2810
83840 294366 339777 -15448 4658 -2817
83893 294397 339794 -15431 4674 -2808
83963 294415 339824 -15425 4657 -2811
84035 294432 339818 -15434 4642 -2822
84109 294459 339844 -15419 4662 -2819
84189 294489 339878 -15406 4668 -2814
84277 294517 339883 -15406 4670 -2822
84361 294543 339910 -15396 4682 -2827
84438 294559 339929 -15415 4669 -2865
84438 294510 339884 -15472 4638 -2912
84363 294434 339829 -15494 4638 -2905
84259 294367 339777 -15456 4665 -2874
84165 294356 339776 -15413 4675 -2831
84082 294362 339782 -15406 4667 -2786
83998 294352 339807 -15404 4666 -2772
83915 294362 339809 -15400 4662 -2767
83835 294368 339825 -15411 4665 -2761
83767 294375 339847 -15433 4667 -2768
83731 294400 339875 -15442 4665 -2788
83730 294431 339905 -15443 4666 -2815
83732 294432 339908 -15452 4653 -2830
83741 294430 339905 -15428 4702 -2786
83748 294423 339896 -15422 4691 -2768
83761 294423 339889 -15413 4686 -2772
83783 294437 339892 -15407 4681 -2789
83818 294453 339910 -15418 4669 -2814
83861 294477 339925 -15434 4670 -2828
83917 294496 339936 -15441 4666 -2831
83980 294539 339972 -15446 4652 -2830
84049 294591 340006 -15446 4661 -2829
84120 294654 340050 -15437 4675 -2830
84199 294705 340102 -15439 4655 -2809
84280 294753 340133 -15441 4623 -2783
84360 294802 340150 -15425 4614 -2784
84445 294833 340183 -15432 4632 -2800
84534 294887 340225 -15457 4636 -2819
84627 294930 340251 -15447 4636 -2814
84718 294946 340278 -15446 4641 -2829
84784 294953 340274 -15485 4638 -2867
84764 294890 340231 -15509 4648 -2882
84668 294819 340165 -15482 4674 -2866
84566 294762 340119 -15449 4687 -2841
84468 294732 340102 -15444 4684 -2830
84377 294694 340065 -15432 4677 -2840
84283 294665 340045 -15415 4672 -2838
84189 294642 340040 -15406 4670 -2827
84107 294638 340052 -15425 4674 -2834
84042 294654 340073 -15460 4674 -2847
84014 294674 340099 -15464 4649 -2882
84011 294693 340109 -15459 4628 -2909
84019 294698 340115 -15482 4674 -2866
84015 294685 340102 -15449 4687 -2841
84018 294688 340096 -15444 4684 -2830
84031 294696 340100 -15432 4677 -2840
84049 294714 340113 -15415 4672 -2838
84083 294729 340127 -15406 4670 -2827
84132 294756 340145 -15425 4674 -2834
84184 294781 340165 -15460 4674 -2847
84245 294804 340188 -15464 4649 -2882
84306 294831 340206 -15459 4628 -2909
84369 294855 340218 -15413 4632 -2907
84436 294890 340241 -15426 4633 -2895
84499 294910 340244 -15444 4651 -2879
84573 294934 340268 -15457 4656 -2879
84649 294972 340302 -15456 4655 -2894
84730 295002 340312 -15451 4646 -2905
84820 295051 340361 -15457 4640 -2913
84911 295079 340379 -15452 4634 -2924
84996 295113 340399 -15448 4619 -2931
85056 295118 340413 -15436 4615 -2916
85031 295050 340355 -15427 4620 -2902
84936 294978 340301 -15436 4614 -2889
84832 294939 340267 -15446 4607 -2857
84747 294928 340274 -15451 4608 -2853
84671 294934 340286 -15439 4607 -2861
84585 294928 340290 -15446 4615 -2867
84496 294922 340295 -15446 4630 -2888
84405 294932 340310 -15424 4625 -2897
84338 294954 340344 -15446 4617 -2927
84297 294995 340363 -15499 4657 -2958
84283 295026 340406 -15475 4668 -2920
84283 295052 340434 -15447 4670 -2875
84278 295068 340446 -15422 4667 -2851
84260 295072 340439 -15405 4651 -2836
84250 295067 340424 -15400 4660 -2810
84250 295087 340438 -15413 4674 -2812
84255 295118 340445 -15440 4690 -2849
84272 295123 340444 -15445 4699 -2855
84306 295162 340455 -15424 4682 -2859
84344 295192 340474 -15405 4687 -2882
84393 295230 340503 -15421 4677 -2896
84451 295276 340525 -15426 4656 -2900
84520 295308 340552 -15415 4665 -2891
84587 295344 340568 -15421 4666 -2848
84663 295398 340613 -15434 4673 -2819
84748 295437 340640 -15438 4673 -2826
84839 295477 340669 -15431 4666 -2844
84929 295523 340692 -15427 4666 -2868
85017 295539 340705 -15421 4663 -2871
85099 295548 340709 -15404 4689 -2872
85108 295490 340670 -15395 4688 -2895
85036 295415 340613 -15405 4655 -2903
84939 295362 340575 -15405 4647 -2885
84847 295337 340563 -15402 4659 -2851
84762 295333 340578 -15399 4681 -2838
84664 295314 340562 -15424 4682 -2848
84549 295286 340554 -15439 4682 -2859
84445 295281 340560 -15411 4682 -2856
84351 295291 340590 -15415 4681 -2868
84277 295310 340615 -15443 4707 -2876
84239 295342 340640 -15449 4720 -2875
84237 295380 340671 -15438 4718 -2855
84237 295407 340697 -15415 4713 -2812
84233 295403 340700 -15404 4694 -2796
84232 295416 340713 -15414 4694 -2778
84243 295436 340738 -15415 4700 -2748
84264 295479 340766 -15408 4693 -2737
84301 295516 340813 -15421 4689 -2767
84345 295544 340828 -15452 4685 -2792
84395 295586 340852 -15371 4678 -2815
84447 295610 340868 -15385 4662 -2823
84511 295647 340904 -15411 4655 -2826
84578 295679 340932 -15421 4668 -2826
84647 295709 340963 -15425 4686 -2824
84721 295748 341001 -15425 4690 -2831
84799 295777 341017 -15415 4674 -2859
84882 295816 341053 -15414 4656 -2883
84966 295861 341089 -15423 4657 -2883
85060 295905 341125 -15404 4700 -2849
85147 295941 341135 -15423 4688 -2842
85221 295951 341155 -15427 4683 -2846
85229 295899 341124 -15419 4672 -2858
85151 295819 341060 -15409 4667 -2857
85030 295773 341004 -15402 4673 -2853
84919 295726 340983 -15404 4669 -2848
84811 295704 340985 -15428 4668 -2846
84696 295686 340965 -15429 4682 -2828
84561 295640 340939 -15390 4692 -2810
84430 295626 340934 -15398 4702 -2848
84304 295613 340930 -15449 4702 -2880
84201 295619 340943 -15459 4691 -2843
84130 295647 340965 -15435 4690 -2802
84110 295689 341003 -15414 4694 -2793
84094 295711 341037 -15418 4697 -2775
84086 295726 341051 -15426 4700 -2738
84082 295739 341057 -15424 4711 -2721
84079 295752 341071 -15424 4720 -2753
84089 295783 341098 -15422 4712 -2784
84118 295813 341139 -15417 4701 -2816
84155 295851 341178 -15410 4692 -2848
84201 295892 341199 -15402 4675 -2854
84255 295924 341229 -15408 4663 -2855
84313 295960 341255 -15421 4665 -2850
84379 295989 341285 -15424 4681 -2847
84440 296024 341321 -15426 4694 -2842
84519 296086 341382 -15424 4686 -2840
84596 296147 341433 -15428 4675 -2856
84680 296207 341488 -15435 4673 -2858
84767 296271 341530 -15410 4698 -2852
84856 296309 341578 -15388 4708 -2861
84951 296359 341622 -15405 4695 -2862
85046 296391 341652 -15429 4689 -2844
85135 296415 341676 -15443 4681 -2832
85176 296387 341655 -15441 4672 -2826
85126 296296 341596 -15427 4662 -2821
85007 296197 341519 -15420 4662 -2836
84887 296152 341483 -15413 4683 -2845
84773 296119 341474 -15413 4705 -2828
84653 296077 341445 -15423 4728 -2824
84521 296042 341438 -15401 4750 -2825
84379 296014 341414 -15381 4732 -2838
84240 295996 341413 -15412 4702 -2886
84121 295987 341430 -15455 4688 -2910
84022 295999 341462 -15455 4682 -2879
83974 296038 341503 -15423 4689 -2837
83956 296076 341535 -15408 4685 -2801
83947 296097 341591 -15413 4667 -2779
83954 296143 341658 -15418 4671 -2752
83983 296217 341780 -15417 4723 -2747
84031 296309 341917 -15434 4702 -2775
84101 296433 342113 -15450 4681 -2789
84203 296611 342349 -15440 4660 -2794
84321 296829 342633 -15425 4636 -2810
84435 296990 342847 -15426 4614 -2826
84570 297208 343135 -15399 4532 -2906
84716 297425 343429 -15309 4389 -3069
84851 297622 343682 -15168 4237 -3281
84988 297801 343913 -14654 4063 -3730
85131 298002 344154 -14480 4015 -3858
85275 298153 344370 -14556 4119 -3905
85422 298316 344576 -14695 4386 -3902
85563 298469 344761 -14802 4756 -3883
85698 298589 344905 -14893 5219 -3816
85828 298672 345002 -14996 5669 -3700
85958 298745 345094 -15095 6059 -3542
86102 298820 345195 -15174 6430 -3382
86230 298901 345293 -15236 6682 -3277
86375 299005 345440 -15266 6787 -3265
86465 299076 345579 -15264 6817 -3374
86478 299126 345695 -15204 6826 -3526
86440 299164 345818 -15035 6796 -3700
86394 299247 345943 -14835 6707 -3878
86343 299326 346064 -14673 6592 -4009
86273 299384 346173 -14539 6467 -4102
86169 299430 346231 -14463 6357 -4199
86051 299440 346278 -14448 6279 -4295
85929 299458 346299 -14447 6233 -4355
85826 299467 346331 -14459 6237 -4407
85750 299492 346365 -14453 6249 -4405
85723 299528 346407 -14418 6245 -4378
85718 299565 346464 -14405 6246 -4357
85710 299602 346501 -14408 6256 -4310
85702 299630 346543 -14411 6274 -4257
85705 299660 346574 -14424 6296 -4219
85713 299689 346616 -14441 6307 -4199
85726 299722 346647 -14448 6306 -4180
85747 299745 346668 -14445 6298 -4179
85785 299767 346697 -14484 6301 -4208
85831 299787 346713 -14521 6290 -4210
85888 299826 346728 -14506 6254 -4183
85950 299835 346752 -14481 6238 -4166
86021 299884 346769 -14466 6224 -4145
86093 299918 346803 -14466 6206 -4134
86161 299956 346832 -14477 6180 -4126
86242 299975 346858 -14483 6168 -4118
86323 300018 346879 -14478 6168 -4112
86410 300053 346896 -14474 6162 -4089
86491 300062 346910 -14507 6162 -4084
86572 300077 346899 -14552 6176 -4103
86643 300084 346851 -14545 6183 -4088
86719 300075 346822 -14519 6169 -4048
86793 300080 346793 -14509 6161 -4029
86877 300063 346768 -14528 6166 -4012
86957 300041 346726 -14553 6177 -3996
87020 300042 346680 -14584 6187 -3979
87006 299934 346585 -14629 6187 -3956
86915 299808 346466 -14665 6181 -3949
86804 299716 346382 -14690 6185 -3948
86700 299667 346325 -14722 6179 -3931
86601 299608 346282 -14717 6149 -3923
86498 299556 346213 -14657 6107 -3927
86385 299483 346133 -14616 6066 -3941
86263 299427 346088 -14628 6027 -3966
86148 299389 346046 -14666 5987 -3981
86047 299372 346017 -14688 5963 -3981
85977 299355 345997 -14687 5939 -3964
85939 299356 345992 -14659 5904 -3944
85921 299347 345971 -14646 5841 -3922
85892 299330 345936 -14682 5758 -3884
85870 299324 345916 -14700 5729 -3867
85857 299309 345902 -14707 5739 -3874
85848 299303 345884 -14757 5746 -3884
85854 299310 345882 -14822 5745 -3892
85874 299323 345879 -14862 5730 -3879
85902 299336 345890 -14873 5730 -3869
85942 299361 345896 -14866 5725 -3867
85989 299385 345918 -14873 5718 -3857
86038 299410 345915 -14885 5721 -3833
86089 299423 345924 -14875 5658 -3804
86149 299422 345912 -14877 5656 -3807
86212 299443 345927 -14887 5647 -3810
86285 299479 345948 -14885 5655 -3799
86360 299526 345978 -14887 5660 -3783
86436 299571 346005 -14905 5662 -3778
86522 299628 346049 -14922 5673 -3773
86605 299684 346093 -14948 5685 -3759
86681 299734 346131 -14953 5693 -3739
86758 299773 346156 -14947 5664 -3700
86843 299813 346189 -14953 5650 -3676
86930 299870 346209 -14969 5689 -3696
87018 299906 346237 -14977 5696 -3727
87082 299921 346248 -14980 5666 -3749
87072 299847 346183 -14982 5644 -3754
86990 299741 346090 -14969 5636 -3762
86887 299672 346029 -14943 5638 -3772
86793 299632 346001 -14931 5626 -3780
86705 299590 345974 -14907 5606 -3775
86615 299552 345939 -14882 5565 -3726
86515 299505 345903 -14963 5571 -3767
86412 299475 345885 -15026 5612 -3794
86319 299451 345878 -15039 5641 -3781
86246 299459 345878 -14995 5630 -3755
86204 299470 345873 -14950 5597 -3751
86181 299468 345883 -14938 5562 -3760
86165 299470 345884 -14933 5558 -3762
86148 299469 345882 -14942 5573 -3767
86135 299466 345878 -14959 5563 -3782
86127 299470 345882 -14981 5537 -3780
86131 299484 345891 -14963 5541 -3777
86148 299505 345905 -14931 5562 -3792
86176 299517 345915 -14945 5585 -3792
86207 299541 345946 -14958 5596 -3790
86255 299574 345962 -14956 5588 -3783
86300 299600 345991 -14944 5586 -3773
86356 299617 346005 -14947 5603 -3766
86419 299638 346016 -14978 5615 -3773
86483 299665 346050 -14987 5588 -3768
86550 299693 346060 -14979 5536 -3731
86622 299723 346089 -14968 5532 -3723
86693 299757 346109 -14963 5558 -3737
86767 299781 346139 -14977 5561 -3735
86841 299799 346142 -14983 5557 -3735
86912 299824 346163 -14972 5562 -3749
86990 299853 346178 -14954 5568 -3751
87080 299909 346233 -14936 5565 -3743
87170 299949 346264 -14937 5579 -3745
87262 299999 346304 -14954 5601 -3750
87334 299997 346316 -14971 5596 -3731
87329 299931 346268 -14978 5593 -3720
87273 299894 346274 -14978 5630 -3734
87189 299836 346225 -14994 5666 -3733
87098 299771 346159 -15035 5657 -3730
87002 299708 346104 -15030 5647 -3716
86868 299516 345890 -15027 5654 -3718
86689 299262 345604 -15109 5657 -3754
86533 299129 345434 -15237 5634 -3795
86373 298984 345229 -15384 5589 -3829
86203 298773 344962 -15458 5668 -3627
86060 298549 344643 -15545 5717 -3560
85972 298369 344408 -15635 5720 -3328
85922 298256 344233 -15682 5616 -3089
85873 298142 344069 -15643 5266 -3172
85830 298050 343948 -15530 4785 -3408
85802 297958 343840 -15396 4325 -3630
85794 297902 343773 -15158 3923 -3787
85804 297894 343753 -14846 3499 -3901
85831 297878 343746 -14626 2739 -3998
85854 297844 343704 -14793 2529 -3937
85879 297783 343633 -15056 2508 -3832
85900 297711 343523 -15286 2617 -3714
85920 297644 343415 -15477 2785 -3616
85939 297564 343309 -15632 2949 -3601
85978 297522 343241 -15733 3078 -3645
86026 297483 343182 -15767 3214 -3707
86082 297454 343123 -15765 3346 -3764
86141 297426 343085 -15736 3420 -3801
86205 297426 343065 -15674 3468 -3832
86266 297424 343036 -15627 3530 -3862
86338 297425 343032 -15614 3578 -3899
86416 297430 343036 -15591 3611 -3933
86486 297426 343007 -15559 3641 -3966
86569 297449 343021 -15540 3655 -4015
86642 297458 343014 -15553 3654 -4048
86713 297435 342976 -15566 3667 -4067
86766 297410 342943 -15561 3688 -4100
86748 297313 342851 -15521 3689 -4135
86650 297159 342715 -15450 3670 -4165
86517 297038 342593 -15423 3672 -4164
86400 296966 342503 -15417 3714 -4120
86289 296887 342409 -15404 3745 -4077
86168 296800 342313 -15443 3758 -4067
86026 296655 342150 -15535 3770 -4069
85857 296477 341945 -15578 3796 -4044
85701 296316 341767 -15579 3841 -3985
85584 296203 341673 -15595 3886 -3930
85524 296182 341682 -15669 3931 -3906
85498 296188 341721 -15836 4039 -3897
85475 296159 341695 -15992 4205 -3867
85425 296057 341593 -16066 4315 -3829
85379 295993 341520 -15971 4230 -3869
85351 295965 341511 -15644 3971 -4026
85337 295949 341497 -15233 3655 -4289
85321 295886 341431 -14986 3336 -4635
85311 295816 341336 -14969 3151 -4906
85288 295674 341179 -14971 3195 -4972
85257 295515 340961 -14957 3376 -4927
85227 295342 340751 -15220 3506 -4816
85225 295217 340604 -15470 3496 -4697
85238 295136 340492 -15701 3468 -4560
85291 295106 340470 -15827 3461 -4389
85357 295126 340496 -15853 3485 -4211
85393 295035 340371 -15797 3506 -4067
85393 294879 340182 -15711 3472 -3986
85360 294676 339899 -15614 3361 -3988
85340 294532 339688 -15520 3136 -4098
85354 294465 339562 -15419 2844 -4342
85385 294392 339454 -15300 2626 -4554
85406 294287 339290 -15139 2650 -4492
85428 294193 339149 -14994 2935 -4155
85462 294153 339095 -15051 3194 -3785
85457 294151 339129 -15227 3246 -3629
85391 294181 339220 -15344 3155 -3744
85297 294282 339355 -15378 3038 -4010
85217 294397 339542 -15331 2970 -4311
85149 294476 339670 -15227 2882 -4650
85084 294575 339843 -15009 2612 -5455
85004 294644 339979 -14868 2531 -5751
84854 294551 339919 -14815 2498 -5915
84678 294410 339796 -14807 2421 -6064
84531 294376 339783 -14824 2292 -6339
84423 294420 339838 -14876 2140 -6771
84359 294456 339909 -14871 2048 -7120
84321 294477 339954 -14733 2051 -7211
84287 294426 339931 -14565 2140 -7125
84243 294357 339877 -14511 2307 -6978
84198 294262 339782 -14579 2480 -6826
84183 294231 339768 -14787 2568 -6649
84197 294246 339791 -15081 2570 -6440
84231 294286 339824 -15340 2591 -6238
84281 294389 339948 -15542 2623 -6024
84285 294428 340010 -15594 2532 -5781
84249 294404 340025 -15494 2316 -5605
84269 294456 340111 -15384 2124 -5515
84305 294512 340200 -15271 2010 -5497
84390 294683 340396 -15238 1922 -5510
84488 294848 340561 -15278 1879 -5439
84573 294942 340625 -15318 1931 -5256
84691 295055 340742 -15421 2074 -5007
84866 295226 340969 -15546 2249 -4767
85069 295502 341261 -15598 2390 -4586
85268 295777 341561 -15576 2452 -4485
85442 296009 341810 -15561 2456 -4504
85595 296213 342013 -15598 2422 -4648
85720 296399 342232 -15630 2375 -4779
85757 296570 342469 -15633 2280 -4904
85693 296640 342581 -15570 2095 -5080
85574 296688 342644 -15547 2050 -4934
85460 296800 342792 -15543 2058 -4779
85345 296932 342979 -15556 2054 -4756
85182 296969 343058 -15565 2051 -4786
84985 296909 343055 -15561 2094 -4716
84772 296839 343021 -15555 2141 -4625
84565 296726 342964 -15567 2128 -4624
84376 296657 342872 -15563 2101 -4627
84259 296654 342852 -15546 2229 -4568
84202 296663 342832 -15632 2239 -4467
84166 296629 342802 -15725 2211 -4315
84142 296624 342747 -15809 2141 -4165
84107 296546 342638 -15851 2065 -4069
84061 296430 342497 -15835 1999 -4038
84023 296361 342369 -15824 1947 -4028
83997 296298 342258 -15809 1979 -3968
83986 296243 342140 -15768 2056 -3846
83986 296165 342029 -15710 2134 -3634
83988 296074 341885 -15707 2063 -3684
83994 295981 341739 -15716 2002 -3783
84018 295922 341633 -15743 1995 -3867
84058 295921 341602 -15761 1993 -3926
84099 295903 341562 -15749 1965 -3977
84150 295931 341552 -15741 1924 -4043
84212 295960 341551 -15740 1909 -4076
84265 295949 341503 -15713 1918 -4077
84322 295935 341466 -15649 1931 -4103
84384 295920 341422 -15580 1973 -4148
84446 295890 341335 -15576 2005 -4166
84500 295820 341238 -15632 1987 -4190
84542 295745 341140 -15678 1972 -4233
84513 295610 340991 -15664 1978 -4266
84387 295420 340808 -15610 1976 -4314
84223 295265 340645 -15600 1950 -4402
84064 295134 340514 -15613 1909 -4496
83905 295027 340415 -15618 1879 -4532
83740 294876 340243 -15609 1897 -4525
83562 294735 340096 -15586 1930 -4518
83386 294601 339956 -15561 1869 -4482
83213 294450 339797 -15518 1767 -4466
83061 294310 339636 -15480 1694 -4505
82955 294246 339540 -15500 1619 -4541
82904 294247 339534 -15556 1576 -4565
82881 294252 339534 -15585 1531 -4587
82845 294223 339483 -15559 1470 -4651
82818 294200 339450 -15526 1437 -4781
82808 294200 339449 -15541 1441 -4914
82803 294212 339453 -15576 1456 -5020
82797 294213 339435 -15578 1482 -5104
82810 294224 339426 -15552 1521 -5191
82841 294248 339456 -15534 1532 -5295
82886 294291 339497 -15532 1520 -5376
82946 294362 339586 -15550 1486 -5410
83023 294452 339673 -15548 1451 -5402
83105 294539 339760 -15503 1427 -5402
83179 294573 339783 -15456 1407 -5429
83247 294588 339786 -15436 1386 -5474
83322 294624 339798 -15367 1326 -5576
83395 294640 339800 -15342 1352 -5578
83476 294653 339788 -15355 1365 -5566
83582 294749 339891 -15387 1400 -5522
83703 294860 340016 -15405 1468 -5425
83821 294962 340116 -15424 1514 -5314
83910 294980 340117 -15449 1526 -5226
84004 295026 340176 -15449 1528 -5163
84054 295021 340184 -15429 1535 -5094
84011 294946 340153 -15449 1589 -5045
83914 294900 340145 -15513 1615 -5007
83820 294901 340153 -15543 1639 -4937
83724 294901 340179 -15529 1657 -4851
83627 294899 340190 -15498 1660 -4800
83513 294866 340159 -15500 1672 -4776
83388 294813 340100 -15557 1711 -4747
83266 294773 340065 -15630 1746 -4710
83180 294799 340101 -15675 1759 -4692
83130 294862 340192 -15597 1827 -4845
83118 294945 340273 -15552 1866 -4895
83130 295037 340378 -15531 1877 -4915
83149 295132 340471 -15543 1896 -4947
83167 295206 340568 -15562 1904 -4980
83199 295288 340657 -15528 1898 -5032
83241 295392 340755 -15468 1908 -5118
83271 295431 340765 -15432 1922 -5187
83294 295432 340751 -15411 1972 -5185
83338 295462 340753 -15396 2094 -5152
83387 295476 340751 -15347 2249 -5133
83444 295503 340710 -15212 2326 -5096
83512 295551 340738 -15116 2272 -5115
83578 295589 340758 -15177 2195 -5165
83646 295611 340752 -15281 2246 -5129
83732 295658 340790 -15321 2365 -4993
83830 295737 340869 -15330 2406 -4876
83918 295768 340881 -15376 2464 -4790
83975 295713 340790 -15423 2675 -4647
84035 295638 340684 -15419 2976 -4490
84121 295610 340639 -15361 3207 -4442
84204 295549 340595 -15385 3407 -4446
84279 295434 340457 -15536 3646 -4428
84356 295275 340288 -15608 3868 -4448
84453 295121 340127 -15513 4025 -4543
84543 294924 339931 -15307 4122 -4712
84590 294683 339678 -15082 4214 -4873
84551 294402 339402 -14943 4311 -4968
84446 294159 339187 -14933 4411 -4951
84337 293961 339019 -14989 4486 -4851
84219 293706 338774 -15025 4683 -4643
84106 293422 338494 -14972 4750 -4567
84014 293141 338256 -15112 4613 -4551
83861 292717 337817 -15341 4471 -4411
83703 292324 337409 -15421 4409 -4219
83588 292074 337150 -15414 4325 -4124
83489 291803 336885 -15331 4231 -4082
83436 291603 336696 -15201 4162 -4114
83424 291412 336519 -15148 4086 -4259
83401 291229 336347 -15112 4089 -4435
83349 291032 336132 -15143 4213 -4436
83306 290949 336033 -15266 4363 -4281
83281 290916 335988 -15364 4487 -4171
83275 290905 335979 -15377 4567 -4127
83265 290840 335903 -15333 4640 -4095
83235 290725 335766 -15316 4723 -4006
83227 290658 335661 -15345 4744 -3910
83217 290524 335499 -15333 4727 -3870
83201 290396 335350 -15345 4710 -3829
83218 290366 335279 -15432 4682 -3820
83257 290351 335281 -15317 4735 -3904
83303 290352 335267 -15016 4832 -4032
83368 290355 335277 -14718 4895 -4202
83435 290386 335310 -14603 4930 -4296
83506 290447 335367 -14663 4974 -4296
83584 290534 335462 -14815 5001 -4267
83673 290629 335570 -14936 4992 -4236
83771 290702 335657 -14996 4921 -4230
83869 290783 335741 -15063 4818 -4308
83954 290825 335806 -15142 4712 -4426
83946 290731 335769 -15185 4636 -4412
83836 290555 335616 -15147 4635 -4288
83720 290413 335502 -15063 4659 -4180
83628 290323 335434 -15089 4671 -4038
83521 290155 335252 -15239 4694 -3822
83409 289971 335066 -15298 4697 -3665
83318 289871 334974 -15222 4735 -3578
83232 289742 334826 -15183 4824 -3493
83134 289570 334664 -15206 4868 -3486
83091 289497 334579 -15237 4842 -3541
83091 289446 334538 -15321 4779 -3601
83075 289315 334396 -15410 4691 -3628
83047 289168 334232 -15405 4601 -3646
83040 289076 334160 -15296 4544 -3728
83036 289025 334117 -15117 4553 -3817
83026 288961 334055 -15030 4626 -3837
83030 288920 334010 -15096 4738 -3811
83045 288933 334017 -15129 4899 -3811
83102 289042 334134 -15060 5041 -3876
83179 289180 334311 -14989 5122 -3980
83262 289319 334457 -15049 5139 -3999
83308 289407 334538 -15271 5141 -3862
83347 289453 334561 -15442 5210 -3649
83403 289552 334658 -15384 5208 -3527
83501 289765 334876 -15162 4988 -3598
83612 289988 335132 -14950 4631 -3800
83710 290166 335294 -14816 4304 -4025
83806 290300 335445 -14774 4075 -4201
83909 290448 335588 -14863 3934 -4300
83981 290557 335690 -14989 5122 -3980
84020 290567 335673 -15049 5139 -3999
83971 290446 335536 -15271 5141 -3862
83836 290285 335370 -15442 5210 -3649
83697 290218 335295 -15384 5208 -3527
83590 290240 335314 -15162 4988 -3598
83518 290328 335423 -14950 4631 -3800
83350 290125 335136 -14816 4304 -4025
83232 290025 334996 -14774 4075 -4201
83143 289992 334945 -14863 3934 -4300
83046 289912 334848 -15080 3952 -4193
83008 289865 334836 -15227 4069 -3955
83041 289846 334875 -15337 4248 -3676
83037 289492 334545 -15362 4434 -3459
83036 288683 333843 -15318 4532 -3367
83140 287728 333167 -15289 4555 -3445
83313 286780 332565 -15237 4589 -3563
83461 285910 332026 -15054 4631 -3655
83543 285231 331561 -14901 4709 -3768
83530 284701 331016 -14955 4825 -3820
83536 284223 330547 -15141 4880 -3819
83601 283963 330327 -15299 4901 -3868
83636 283848 330199 -15503 5089 -3898
83672 283898 330166 -15685 5385 -3821
83669 283917 330076 -15705 5548 -3754
83673 283942 330042 -15580 5491 -3786
83685 283956 329985 -15350 5315 -3848
83710 283917 329896 -15279 5163 -3880
83728 283859 329778 -15383 5080 -3904
83768 283816 329712 -15237 5040 -3853
83844 283862 329749 -14962 4974 -3795
83950 283977 329860 -14791 4781 -3846
84035 284041 329913 -14795 4460 -3977
84060 284044 329889 -15019 4182 -4054
84021 284017 329859 -15230 4006 -4058
83912 283962 329807 -15408 3895 -4041
83797 283941 329795 -15543 3845 -3970
83687 283966 329800 -15608 3853 -3824
83591 283991 329822 -15566 3914 -3656
83490 284011 329840 -15434 3991 -3584
83412 284071 329920 -15319 4015 -3650
83337 284151 330027 -15289 3958 -3798
83265 284230 330118 -15317 3892 -3928
83205 284318 330201 -15386 3859 -4015
83200 284413 330321 -15466 3852 -4058
83214 284500 330405 -15471 3882 -4036
83234 284588 330508 -15438 3916 -3981
83249 284662 330570 -15417 3915 -3953
83286 284793 330714 -15403 3907 -3935
83338 284974 330907 -15382 3925 -3917
83408 285177 331130 -15302 3969 -3919
83481 285382 331351 -15244 3974 -3945
83554 285545 331512 -15247 3946 -3958
83613 285664 331625 -15261 3968 -3930
83669 285808 331718 -15260 4066 -3911
83729 285927 331812 -15261 4227 -3906
83791 286009 331866 -15301 4399 -3893
83839 286048 331853 -15347 4527 -3895
83882 286058 331818 -15371 4573 -3970
83931 286055 331782 -15372 4521 -4105
83968 286018 331686 -15379 4256 -4492
84026 285994 331646 -15432 4116 -4544
84099 286035 331667 -15400 4055 -4515
84168 286072 331662 -15328 4050 -4426
84233 286090 331664 -15299 4037 -4316
84258 286091 331647 -15350 3987 -4247
84193 286027 331581 -15458 3938 -4197
84064 285912 331464 -15516 3918 -4140
83924 285796 331347 -15514 3940 -4077
83799 285714 331261 -15400 4038 -4014
83671 285594 331118 -15380 3983 -4035
83521 285456 330936 -15355 3906 -4093
83393 285353 330813 -15304 3844 -4175
83257 285261 330680 -15282 3791 -4292
83106 285104 330514 -15308 3726 -4408
82971 284976 330311 -15343 3638 -4499
82892 284906 330205 -15370 3506 -4575
82840 284843 330111 -15386 3342 -4627
82806 284795 330047 -15347 3167 -4682
82770 284764 329996 -15281 3004 -4723
82728 284710 329924 -15259 2859 -4768
82696 284663 329852 -15262 2721 -4867
82667 284624 329783 -15250 2634 -5011
82642 284571 329694 -15186 2664 -5105
82630 284545 329635 -15072 2758 -5130
82627 284550 329603 -15022 2812 -5167
82644 284589 329613 -15072 2809 -5260
82669 284613 329614 -15108 2797 -5423
82690 284625 329604 -15103 2823 -5522
82729 284646 329610 -15096 2863 -5541
82781 284683 329639 -15097 2904 -5563
82837 284707 329652 -15092 2954 -5576
82911 284765 329713 -15067 3013 -5584
82994 284832 329775 -15038 3067 -5628
83078 284902 329867 -15012 3100 -5720
83119 284904 329879 -15009 3121 -5815
83081 284838 329856 -15020 3167 -5866
82983 284770 329829 -15008 3230 -5864
82878 284727 329813 -14970 3280 -5863
82778 284712 329823 -14912 3313 -5844
82690 284702 329823 -14880 3387 -5836
82600 284690 329833 -14893 3496 -5888
82513 284701 329891 -14880 3583 -5947
82434 284742 329936 -14894 3662 -5992
82367 284800 330044 -15003 3734 -5977
82328 284907 330170 -15122 3798 -5903
82325 285008 330280 -15181 3861 -5799
82330 285063 330350 -15179 3906 -5667
82346 285154 330434 -15139 3913 -5572
82358 285234 330549 -15083 3897 -5525
82386 285324 330665 -15026 3858 -5511
82418 285384 330722 -14992 3817 -5524
82449 285423 330790 -14987 3789 -5528
82495 285492 330853 -14992 3753 -5543
82557 285564 330930 -14972 3723 -5562
82606 285574 330947 -14969 3727 -5500
82646 285540 330913 -15049 3760 -5345
82692 285532 330883 -15169 3801 -5188
82760 285535 330898 -15259 3835 -5066
82835 285573 330940 -15221 3887 -5056
82910 285579 330949 -15214 3847 -5119
82977 285584 330935 -15182 3809 -5231
83058 285574 330933 -15089 3763 -5392
83145 285596 330958 -15021 3730 -5500
83230 285619 330988 -15038 3733 -5503
83272 285592 330984 -15063 3739 -5450
83224 285501 330933 -15028 3732 -5404
83118 285419 330890 -14982 3720 -5446
83011 285386 330882 -15018 3645 -5591
82919 285375 330894 -15056 3658 -5668
82819 285337 330894 -14985 3666 -5750
82719 285322 330908 -14854 3652 -5843
82621 285308 330927 -14887 3627 -5959
82523 285315 330970 -15041 3594 -6078
82433 285313 330981 -15128 3560 -6154
82374 285359 331040 -15039 3549 -6191
82361 285408 331098 -14872 3560 -6218
82385 285479 331166 -14756 3529 -6255
82426 285567 331277 -14687 3452 -6308
82447 285622 331341 -14625 3410 -6381
82460 285631 331375 -14593 3400 -6470
82478 285648 331398 -14602 3381 -6546
82502 285700 331454 -14613 3352 -6611
82548 285741 331524 -14590 3307 -6655
82607 285788 331588 -14531 3260 -6691
82667 285831 331626 -14479 3188 -6807
82733 285908 331702 -14450 3128 -6975
82819 286014 331830 -14463 3134 -7068
82918 286143 331985 -14531 3169 -7065
83030 286318 332180 -14555 3178 -7050
83128 286427 332320 -14474 3121 -7095
83228 286514 332409 -14402 3052 -7163
83319 286582 332483 -14397 3028 -7224
83417 286632 332550 -14394 2997 -7310
83509 286689 332602 -14386 2942 -7425
83593 286731 332682 -14379 2855 -7547
83607 286748 332728 -14354 2700 -7670
83530 286706 332736 -14317 2544 -7802
83421 286656 332711 -14236 2482 -7931
83326 286676 332763 -14229 2449 -7962
83251 286714 332846 -14188 2421 -7989
83151 286718 332893 -14078 2405 -8023
83038 286698 332903 -14048 2373 -8078
82924 286676 332904 -14130 2306 -8136
82823 286690 332939 -14192 2262 -8159
82755 286743 333030 -14193 2269 -8151
82730 286801 333106 -14137 2271 -8144
82746 286866 333188 -14018 2258 -8255
82785 286922 333283 -14081 2254 -8252
82814 286978 333339 -14129 2312 -8213
82846 287033 333415 -14152 2342 -8190
82884 287088 333484 -14162 2339 -8207
82928 287149 333575 -14148 2314 -8216
82983 287220 333669 -14122 2282 -8217
83048 287280 333737 -14121 2253 -8242
83110 287320 333787 -14113 2211 -8280
83184 287353 333826 -14017 2209 -8345
83257 287400 333881 -13918 2221 -8402
83332 287450 333931 -13909 2195 -8412
83411 287477 333956 -13954 2154 -8418
83493 287511 333998 -13990 2140 -8426
83581 287571 334053 -13981 2135 -8439
83676 287615 334112 -13932 2136 -8477
83763 287660 334149 -13892 2153 -8503
83846 287681 334165 -13910 2164 -8495
83911 287698 334197 -13959 2176 -8465
83907 287663 334208 -13939 2219 -8457
83826 287588 334162 -13870 2251 -8491
83712 287517 334122 -13886 2217 -8510
83610 287493 334113 -13939 2176 -8523
83510 287468 334096 -13926 2160 -8540
83400 287418 334097 -13898 2154 -8555
83278 287388 334089 -13941 2121 -8612
83158 287356 334074 -14008 2072 -8673
83051 287335 334052 -14009 2065 -8649
82968 287309 334037 -13956 2086 -8568
82929 287286 334006 -13899 2123 -8506
82921 287267 333966 -13837 2183 -8485
82918 287215 333917 -13847 2212 -8453
82901 287110 333775 -13923 2208 -8406
82874 286975 333610 -13986 2221 -8391
82860 286875 333484 -14055 2259 -8391
82851 286757 333330 -14088 2286 -8373
82852 286653 333184 -14041 2325 -8329
82856 286540 333008 -14006 2387 -8287
82863 286429 332848 -14034 2410 -8258
82880 286317 332705 -14061 2449 -8218
82884 286194 332534 -14036 2522 -8185
82886 286048 332337 -14049 2577 -8142
82896 285919 332179 -14146 2606 -8070
82926 285822 332067 -14226 2634 -7992
82964 285733 331965 -14257 2665 -7913
83014 285656 331862 -14265 2688 -7847
83067 285606 331796 -14283 2701 -7780
83132 285565 331744 -14310 2730 -7674
83205 285579 331753 -14332 2801 -7552
83233 285559 331745 -14341 2877 -7457
83166 285453 331648 -14367 2914 -7393
83049 285350 331569 -14391 2964 -7354
82927 285291 331540 -14386 3074 -7282
82821 285263 331533 -14378 3220 -7144
82688 285199 331464 -14373 3382 -6984
82578 285170 331456 -14401 3507 -6904
82469 285156 331465 -14535 3585 -6878
82367 285137 331439 -14713 3642 -6791
82272 285114 331429 -14789 3674 -6643
82212 285100 331409 -14758 3681 -6508
82190 285087 331371 -14766 3623 -6355
82185 285077 331346 -14785 3619 -6292
82186 285081 331326 -14867 3586 -6234
82185 285044 331286 -14991 3552 -6147
82196 285069 331302 -15097 3535 -6007
82216 285087 331325 -15161 3493 -5838
82245 285116 331341 -15169 3428 -5651
82282 285142 331367 -15171 3378 -5481
82331 285179 331399 -15219 3316 -5350
82388 285207 331407 -15311 3168 -5148
82451 285239 331428 -15324 3137 -5053
82520 285279 331456 -15324 3118 -4992
82594 285330 331500 -15328 3063 -5001
82684 285380 331553 -15332 2992 -5019
82776 285470 331646 -15315 2947 -5040
82872 285554 331725 -15309 2937 -5072
82962 285608 331774 -15287 2956 -5120
83049 285641 331806 -15242 2983 -5200
83136 285694 331833 -15206 2976 -5303
83233 285743 331883 -15139 2932 -5424
83315 285751 331885 -15092 2893 -5574
83380 285743 331864 -15090 2849 -5729
83388 285693 331836 -15040 2811 -5816
83311 285609 331779 -14958 2789 -5841
83190 285536 331724 -14916 2778 -5858
83072 285458 331667 -14938 2793 -5878
82972 285432 331659 -15004 2797 -5874
82882 285420 331671 -15073 2787 -5876
82777 285415 331689 -15106 2750 -5879
82672 285383 331678 -15101 2727 -5825
82572 285355 331662 -15088 2762 -5737
82491 285333 331648 -15084 2815 -5654
82471 285386 331718 -15067 2857 -5637
82458 285408 331726 -15029 2876 -5684
82447 285390 331709 -14965 2880 -5724
82451 285404 331721 -14940 2893 -5732
82448 285399 331724 -15011 2921 -5729
82454 285393 331718 -15066 2950 -5766
82468 285386 331709 -15057 2945 -5819
82483 285372 331675 -15052 2923 -5821
82516 285356 331662 -15056 2922 -5754
82551 285345 331637 -15086 2943 -5711
82588 285336 331616 -15156 2971 -5703
82641 285364 331631 -15217 2984 -5685
82711 285428 331688 -15249 2976 -5675
82790 285508 331767 -15261 2961 -5643
82857 285535 331778 -15256 2937 -5624
82923 285561 331777 -15245 2928 -5626
82993 285593 331792 -15250 2952 -5599
83066 285643 331828 -15264 2972 -5548
83149 285693 331875 -15255 2945 -5521
83234 285754 331938 -15285 2890 -5528
83333 285845 332006 -15355 2871 -5488
83418 285883 332038 -15384 2878 -5374
83499 285942 332087 -15377 2900 -5240
83565 285994 332165 -15349 2934 -5129
83541 285985 332199 -15329 2936 -5069
83455 285936 332193 -15311 2915 -5074
83354 285908 332175 -15300 2896 -5120
83266 285926 332207 -15267 2897 -5144
83170 285905 332210 -15175 2897 -5110
83071 285897 332219 -15126 2914 -5086
82973 285908 332257 -15201 2957 -5097
82874 285906 332293 -15330 2998 -5085
82769 285865 332271 -15395 3056 -5023
82699 285865 332270 -15412 3108 -4962
82681 285892 332319 -15434 3127 -4934
82692 285944 332385 -15428 3112 -4930
82706 285995 332440 -15398 3065 -4991
82723 286039 332501 -15378 3018 -5111
82745 286117 332573 -15380 2970 -5225
82781 286197 332657 -15435 2978 -5263
82833 286301 332772 -15483 3095 -5181
82888 286390 332854 -15497 3246 -5031
82954 286462 332944 -15537 3368 -4864
83033 286569 333050 -15573 3455 -4676
83118 286656 333147 -15611 3525 -4489
83203 286738 333228 -15684 3557 -4338
83288 286836 333316 -15742 3561 -4245
83382 286932 333418 -15718 3564 -4212
83473 287000 333490 -15500 3543 -4245
83573 287100 333581 -15416 3564 -4279
83680 287212 333700 -15359 3596 -4286
83797 287331 333804 -15304 3612 -4279
83901 287408 333873 -15234 3614 -4266
84024 287498 333963 -15197 3610 -4243
84128 287580 334024 -15201 3600 -4233
84223 287616 334067 -15246 3557 -4231
84304 287645 334089 -15314 3484 -4236
84306 287599 334052 -15385 3297 -4293
84223 287481 333943 -15457 3253 -4265
84096 287355 333830 -15490 3256 -4191
84022 287379 333850 -15447 3257 -4122
83965 287445 333939 -15411 3264 -4080
83869 287411 333897 -15413 3299 -4070
83775 287386 333864 -15426 3374 -4063
83704 287442 333931 -15419 3438 -4034
83661 287560 334058 -15334 3404 -4084
83623 287672 334153 -15236 3332 -4237
83620 287760 334270 -15201 3376 -4317
83663 287921 334436 -15249 3512 -4275
83723 288120 334627 -15306 3615 -4251
83764 288316 334830 -15334 3680 -4278
83800 288523 335036 -15411 3755 -4277
83857 288857 335382 -15488 3816 -4273
83932 289282 335810 -15422 3812 -4304
84025 289703 336235 -15293 3761 -4344
84124 290058 336600 -15198 3699 -4414
84215 290397 336923 -15081 3665 -4486
84310 290738 337254 -14986 3637 -4595
84412 291032 337550 -14976 3628 -4797
84514 291268 337778 -15012 3663 -5089
84621 291429 337938 -15086 3693 -5348
84705 291511 338021 -15206 3715 -5462
84777 291546 338030 -15293 3716 -5495
84839 291535 337988 -15263 3721 -5463
84888 291436 337875 -15157 3745 -5387
84950 291353 337767 -15118 3753 -5317
85005 291245 337633 -15176 3751 -5258
85074 291184 337562 -15209 3772 -5006
85144 291157 337533 -15153 3801 -4818
85158 291094 337501 -15108 3826 -4661
85092 290975 337418 -15137 3842 -4538
84989 290861 337324 -15146 3858 -4438
84879 290767 337271 -15130 3862 -4409
84776 290687 337210 -15169 3868 -4427
84655 290583 337110 -15249 3868 -4446
84533 290484 337045 -15315 3869 -4416
84424 290440 337011 -15333 4028 -4311
84330 290413 337004 -15352 4081 -4246
84243 290383 336966 -15331 4096 -4176
84190 290350 336939 -15247 4086 -4119
84173 290354 336929 -15210 4031 -4121
84175 290367 336967 -15250 3963 -4147
84183 290392 336996 -15284 3924 -4158
84189 290403 337005 -15292 3900 -4160
84188 290377 336976 -15308 3871 -4190
84186 290350 336945 -15404 3761 -4378
84186 290302 336904 -15454 3736 -4429
84219 290291 336894 -15458 3767 -4409
84261 290305 336924 -15392 3842 -4327
84325 290374 336995 -15283 3942 -4218
84393 290424 337058 -15201 4011 -4138
84464 290470 337110 -15196 4015 -4109
84530 290502 337154 -15232 3997 -4123
84613 290576 337236 -15284 3992 -4172
84694 290659 337328 -15290 4002 -4214
84765 290690 337357 -15198 3997 -4206
84832 290717 337366 -15102 3959 -4168
84909 290733 337367 -15090 3922 -4152
84977 290738 337360 -15164 3915 -4123
85046 290754 337375 -15274 3930 -4091
85079 290776 337392 -15359 3959 -4075
85032 290733 337376 -15389 3984 -4043
84929 290685 337358 -15391 3990 -4015
84824 290672 337357 -15416 3992 -4008
84730 290670 337401 -15465 4029 -4002
84643 290705 337445 -15487 4138 -3956
84550 290730 337499 -15480 4252 -3907
84472 290794 337592 -15465 4313 -3899
84395 290881 337689 -15432 4348 -3913
84329 290974 337796 -15411 4358 -3947
84294 291066 337887 -15397 4345 -3985
84296 291154 337971 -15379 4331 -4010
84312 291211 338011 -15365 4316 -4017
84325 291249 338042 -15340 4294 -4003
84336 291270 338060 -15315 4278 -4003
84352 291273 338062 -15262 4286 -4060
84376 291270 338062 -15283 4245 -4053
84412 291295 338083 -15306 4232 -4067
84460 291329 338123 -15306 4249 -4079
84522 291393 338182 -15277 4260 -4081
84591 291435 338233 -15265 4283 -4078
84669 291485 338278 -15257 4298 -4080
84750 291536 338345 -15268 4269 -4084
84826 291584 338376 -15284 4220 -4087
84896 291598 338388 -15284 4135 -4168
84978 291630 338399 -15322 4070 -4111
85061 291664 338437 -15327 4028 -4029
85155 291716 338504 -15274 4012 -3983
85258 291771 338556 -15233 4000 -3975
85354 291803 338574 -15263 3986 -3989
85444 291833 338604 -15308 4001 -4012
85480 291819 338601 -15316 4051 -4029
85438 291801 338600 -15315 4140 -4038
85335 291741 338568 -15354 4342 -4155
85231 291722 338572 -15353 4387 -4124
85148 291729 338593 -15323 4384 -4079
85072 291729 338602 -15290 4363 -4048
84976 291713 338584 -15253 4353 -4020
84888 291702 338594 -15217 4358 -3990
84809 291702 338593 -15189 4352 -3973
84749 291730 338633 -15177 4354 -3979
84717 291759 338664 -15209 4343 -4000
84717 291787 338698 -15230 4334 -4035
84735 291828 338741 -15205 4360 -4063
84746 291847 338753 -15218 4367 -4061
84761 291861 338761 -15263 4363 -4046
84785 291872 338776 -15295 4374 -4044
84810 291884 338780 -15306 4378 -4045
84844 291904 338779 -15287 4367 -4037
84889 291919 338796 -15259 4362 -4020
84945 291939 338803 -15255 4350 -4015
85005 291967 338818 -15267 4331 -4017
85080 291992 338855 -15254 4334 -4011
85153 292037 338886 -15227 4358 -4014
85226 292056 338911 -15217 4361 -4010
85304 292085 338933 -15238 4339 -3999
85382 292120 338943 -15267 4329 -4000
85458 292122 338957 -15283 4335 -4002
85543 292138 338952 -15287 4343 -4009
85629 292156 338963 -15274 4363 -4007
85712 292163 338962 -15269 4383 -3998
85790 292178 338968 -15243 4391 -3990
85853 292170 338963 -15205 4406 -3982
85837 292113 338929 -15212 4443 -4004
85743 292033 338860 -15281 4460 -4023
85638 291983 338818 -15350 4447 -4006
85548 291964 338809 -15339 4452 -3968
85468 291946 338811 -15286 4459 -3931
85392 291950 338819 -15254 4451 -3905
85309 291938 338821 -15249 4425 -3900
85224 291917 338817 -15248 4393 -3913
85151 291913 338814 -15261 4380 -3920
85107 291907 338823 -15277 4384 -3925
85101 291936 338848 -15254 4427 -3919
85117 291956 338864 -15263 4415 -3906
85125 291965 338877 -15301 4383 -3903
85133 291977 338885 -15319 4361 -3904
85141 291986 338899 -15320 4375 -3884
85165 292012 338918 -15310 4396 -3864
85191 292045 338952 -15303 4411 -3853
85233 292079 338976 -15315 4417 -3851
85278 292103 339002 -15327 4406 -3865
85332 292121 339018 -15282 4414 -3895
85394 292144 339033 -15284 4409 -3902
85454 292171 339061 -15291 4414 -3901
85526 292194 339086 -15287 4407 -3889
85596 292225 339103 -15268 4392 -3895
85670 292233 339103 -15246 4388 -3911
85742 292230 339087 -15249 4391 -3910
85825 292259 339112 -15266 4397 -3907
85913 292304 339139 -15285 4411 -3900
86002 292332 339163 -15256 4429 -3879
86087 292389 339204 -15225 4436 -3881
86126 292372 339196 -15271 4414 -3908
86086 292331 339176 -15341 4381 -3918
85990 292252 339119 -15352 4372 -3914
85887 292199 339093 -15315 4357 -3894
85797 292164 339067 -15292 4340 -3867
85713 292149 339074 -15290 4333 -3857
85625 292135 339059 -15288 4325 -3855
85531 292122 339057 -15284 4337 -3847
85450 292110 339058 -15279 4344 -3855
85381 292108 339072 -15288 4356 -3863
85328 292117 339083 -15301 4363 -3865
85311 292143 339102 -15290 4348 -3878
85325 292185 339143 -15284 4337 -3882
85333 292209 339161 -15302 4323 -3879
85343 292201 339173 -15315 4318 -3882
85360 292233 339202 -15317 4326 -3888
85386 292265 339231 -15323 4320 -3888
85421 292304 339265 -15324 4312 -3887
85468 292353 339306 -15319 4324 -3898
85519 292380 339339 -15299 4349 -3908
85574 292432 339368 -15287 4354 -3910
85633 292484 339408 -15283 4347 -3907
85698 292542 339456 -15287 4347 -3896
85763 292580 339501 -15308 4340 -3887
85839 292609 339531 -15309 4331 -3890
85914 292657 339567 -15294 4322 -3887
85997 292697 339601 -15282 4317 -3884
86083 292738 339627 -15280 4324 -3890
86172 292781 339661 -15287 4332 -3891
86256 292828 339703 -15235 4358 -3880
86330 292858 339725 -15281 4345 -3901
86340 292842 339709 -15340 4321 -3924
86269 292758 339673 -15356 4326 -3920
86157 292712 339630 -15337 4356 -3893
86041 292681 339627 -15315 4365 -3860
85945 292670 339624 -15294 4365 -3838
85845 292658 339629 -15296 4356 -3824
85733 292638 339618 -15309 4358 -3811
85622 292617 339632 -15306 4387 -3821
85521 292608 339625 -15309 4404 -3846
85428 292597 339635 -15337 4392 -3853
85369 292621 339640 -15344 4359 -3861
85348 292648 339688 -15329 4333 -3863
85350 292693 339719 -15322 4311 -3857
85355 292720 339755 -15324 4297 -3857
85358 292742 339767 -15324 4315 -3871
85364 292757 339791 -15322 4320 -3890
85382 292767 339813 -15325 4319 -3881
85407 292777 339835 -15294 4321 -3872
85440 292809 339848 -15301 4282 -3872
85488 292828 339873 -15309 4255 -3871
85541 292843 339891 -15315 4248 -3873
85597 292866 339898 -15321 4252 -3868
85660 292882 339927 -15333 4250 -3868
85735 292910 339949 -15344 4229 -3869
85799 292897 339935 -15347 4224 -3864
85868 292911 339926 -15340 4241 -3856
85942 292928 339946 -15313 4273 -3838
86027 292965 339977 -15301 4309 -3829
86119 293015 340025 -15311 4318 -3831
86210 293061 340059 -15309 4315 -3836
86295 293106 340092 -15315 4313 -3852
86362 293124 340120 -15348 4292 -3873
86346 293104 340112 -15367 4278 -3877
86259 293037 340069 -15348 4288 -3855
86145 292985 340056 -15314 4309 -3827
86035 292952 340054 -15306 4336 -3811
85923 292948 340042 -15307 4348 -3798
85809 292919 340047 -15276 4368 -3776
85693 292886 340032 -15276 4388 -3765
85573 292881 340039 -15309 4393 -3771
85463 292876 340056 -15334 4378 -3778
85365 292877 340084 -15352 4365 -3782
85305 292901 340096 -15342 4367 -3787
85285 292933 340138 -15340 4359 -3789
85270 292965 340169 -15343 4344 -3787
85260 292981 340183 -15340 4330 -3789
85258 292998 340212 -15339 4331 -3791
85260 293024 340231 -15310 4347 -3776
85271 293054 340253 -15296 4355 -3767
85291 293088 340283 -15311 4333 -3791
85326 293120 340323 -15315 4305 -3807
85365 293177 340355 -15315 4287 -3806
85425 293211 340395 -15317 4293 -3804
85489 293250 340431 -15336 4308 -3804
85558 293290 340474 -15353 4294 -3810
85625 293327 340496 -15348 4284 -3813
85704 293373 340533 -15341 4290 -3812
85783 293411 340565 -15310 4347 -3776
85865 293460 340586 -15296 4355 -3767
85945 293489 340616 -15311 4333 -3791
86033 293527 340638 -15315 4305 -3807
86120 293561 340665 -15315 4287 -3806
86213 293590 340695 -15317 4293 -3804
86296 293639 340728 -15336 4308 -3804
86329 293613 340733 -15353 4294 -3810
86267 293554 340671 -15348 4284 -3813
86138 293449 340573 -15341 4290 -3812
86002 293342 340466 -15303 4343 -3812
85879 293273 340412 -15314 4336 -3803
85778 293261 340426 -15334 4346 -3798
85651 293214 340375 -15342 4370 -3787
85508 293132 340276 -15317 4371 -3776
85374 293078 340238 -15312 4349 -3795
85286 293090 340268 -15341 4311 -3840
85222 293102 340286 -15358 4279 -3864
85195 293123 340310 -15348 4269 -3853
85188 293131 340314 -15321 4293 -3816
85186 293143 340323 -15296 4319 -3802
85188 293156 340343 -15297 4311 -3806
85196 293181 340361 -15293 4298 -3805
85202 293193 340367 -15287 4312 -3810
85218 293198 340379 -15309 4346 -3811
85250 293236 340399 -15337 4367 -3817
85287 293260 340422 -15350 4388 -3813
85327 293266 340423 -15342 4412 -3803
85378 293280 340425 -15331 4419 -3791
85437 293310 340447 -15323 4431 -3785
85502 293336 340469 -15315 4455 -3791
85565 293367 340489 -15320 4463 -3795
85639 293392 340498 -15334 4446 -3799
85711 293420 340529 -15340 4436 -3792
85792 293449 340560 -15322 4435 -3787
85866 293481 340571 -15320 4420 -3790
85937 293489 340574 -15332 4413 -3790
86025 293529 340595 -15329 4414 -3789
86102 293554 340607 -15330 4420 -3780
86187 293595 340641 -15324 4441 -3765
86237 293589 340660 -15309 4453 -3744
86200 293539 340624 -15315 4442 -3729
86085 293443 340558 -15326 4439 -3725
85957 293379 340523 -15319 4451 -3725
85839 293333 340504 -15322 4450 -3735
85731 293317 340491 -15326 4450 -3748
85614 293289 340482 -15345 4443 -3746
85494 293255 340466 -15348 4438 -3730
85381 293249 340469 -15315 4451 -3705
85274 293237 340465 -15318 4462 -3701
85200 293242 340471 -15358 4465 -3705
85169 293264 340505 -15389 4462 -3701
85156 293301 340529 -15375 4463 -3700
85146 293307 340552 -15339 4470 -3688
85128 293314 340559 -15315 4476 -3667
85120 293314 340545 -15309 4473 -3653
85117 293325 340569 -15309 4466 -3660
85130 293352 340591 -15310 4465 -3684
85147 293379 340593 -15332 4463 -3704
85181 293396 340625 -15366 4451 -3709
85219 293408 340637 -15333 4470 -3705
85268 293430 340636 -15293 4480 -3702
85319 293435 340648 -15325 4448 -3707
85372 293435 340636 -15344 4430 -3716
85428 293435 340625 -15341 4438 -3726
85486 293408 340595 -15340 4445 -3727
85540 293388 340558 -15327 4453 -3724
85605 293410 340557 -15328 4451 -3729
85677 293426 340575 -15342 4434 -3736
85750 293454 340597 -15343 4430 -3739
85827 293470 340591 -15315 4465 -3687
85894 293479 340598 -15330 4455 -3674
85914 293456 340592 -15331 4447 -3684
85847 293388 340550 -15327 4445 -3675
85719 293325 340493 -15329 4446 -3666
85583 293273 340468 -15321 4453 -3677
85463 293259 340462 -15308 4457 -3690
85343 293231 340461 -15315 4454 -3706
85214 293183 340445 -15322 4462 -3708
85090 293166 340439 -15283 4539 -3682
84962 293146 340441 -15319 4543 -3702
84858 293152 340447 -15367 4529 -3723
84784 293164 340473 -15373 4512 -3713
84754 293194 340508 -15342 4514 -3676
84741 293223 340535 -15309 4512 -3654
84729 293230 340554 -15316 4488 -3639
84714 293236 340566 -15331 4472 -3626
84699 293233 340559 -15317 4473 -3627
84702 293233 340556 -15298 4482 -3632
84718 293254 340570 -15308 4499 -3636
84738 293272 340586 -15346 4491 -3632
84769 293304 340601 -15357 4494 -3634
84814 293314 340627 -15344 4507 -3646
84857 293356 340654 -15339 4493 -3669
84911 293379 340694 -15338 4484 -3690
84967 293426 340727 -15326 4495 -3690
85027 293455 340750 -15315 4505 -3683
85095 293502 340785 -15320 4496 -3688
85173 293563 340846 -15327 4483 -3691
85254 293624 340888 -15316 4496 -3669
85333 293678 340947 -15312 4507 -3654
85409 293719 340992 -15320 4495 -3661
85469 293738 341013 -15332 4483 -3669
85440 293676 340963 -15348 4469 -3673
85332 293588 340933 -15349 4456 -3671
85187 293503 340873 -15341 4465 -3660
85049 293445 340852 -15351 4461 -3658
84917 293405 340838 -15376 4449 -3680
84781 293377 340830 -15394 4464 -3702
84627 293321 340796 -15362 4502 -3717
84479 293281 340797 -15335 4500 -3726
84330 293218 340739 -15364 4450 -3756
84186 293135 340650 -15390 4421 -3799
84110 293110 340613 -15379 4420 -3797
84082 293101 340636 -15332 4436 -3742
