Time(s)	IR_denoised_median
0.000000	239.844932
0.010000	270.482952
0.020000	292.621670
0.030000	316.658698
0.040000	352.401694
0.050000	406.831549
0.060000	418.999974
0.070000	418.999974
0.080000	436.306772
0.090000	442.427974
0.100000	481.351406
0.110000	526.158349
0.120000	526.158349
0.130000	526.158349
0.140000	511.074207
0.150000	503.762512
0.160000	498.856510
0.170000	476.154350
0.180000	432.686943
0.190000	390.272814
0.200000	362.606513
0.210000	332.309829
0.220000	312.613962
0.230000	293.286119
0.240000	276.659555
0.250000	267.013328
0.260000	262.822006
0.270000	259.052624
0.280000	259.052624
0.290000	247.839361
0.300000	199.167902
0.310000	142.844156
0.320000	104.273940
0.330000	47.683658
0.340000	-11.476696
0.350000	-42.432219
0.360000	-57.342833
0.370000	-57.342833
0.380000	-57.342833
0.390000	-50.575454
0.400000	-30.102205
0.410000	-13.669735
0.420000	16.060375
0.430000	16.060375
0.440000	16.060375
0.450000	11.482730
0.460000	7.398244
0.470000	7.398244
0.480000	7.398244
0.490000	10.956001
0.500000	23.035942
0.510000	32.225673
0.520000	59.900762
0.530000	73.347414
0.540000	98.928365
0.550000	101.300091
0.560000	140.217473
0.570000	140.883415
0.580000	140.883415
0.590000	140.883415
0.600000	-176.419614
0.610000	-182.830655
0.620000	-182.830655
0.630000	-182.830655
0.640000	-176.419614
0.650000	-182.830655
0.660000	-184.966866
0.670000	-191.703664
0.680000	-194.030920
0.690000	-221.387481
0.700000	-225.425406
0.710000	-244.027732
0.720000	-379.999605
0.730000	-443.906656
0.740000	-443.906656
0.750000	-443.906656
0.760000	-321.869202
0.770000	-293.454977
0.780000	-263.000599
0.790000	-239.292212
0.800000	-212.081834
0.810000	-186.172985
0.820000	-175.189571
0.830000	-152.473386
0.840000	-152.473386
0.850000	-152.473386
0.860000	-178.921795
0.870000	-245.082265
0.880000	-298.212804
0.890000	-368.844215
0.900000	-417.313879
0.910000	-445.723799
0.920000	-466.446152
0.930000	-470.547920
0.940000	-470.547920
0.950000	-470.547920
0.960000	-456.837939
0.970000	-448.804711
0.980000	-446.081962
0.990000	-446.081962
1.000000	-446.497484
1.010000	-448.804711
1.020000	-449.205407
1.030000	-449.205407
1.040000	-449.205407
1.050000	-447.846305
1.060000	-438.478150
1.070000	-393.198703
1.080000	-392.387656
1.090000	-360.482083
1.100000	-293.617419
1.110000	-291.884634
1.120000	-291.884634
1.130000	-291.884634
1.140000	-291.884634
1.150000	-269.189230
1.160000	-242.111309
1.170000	-224.393254
1.180000	-194.918528
1.190000	-173.714000
1.200000	-152.652134
1.210000	-136.422728
1.220000	-135.069945
1.230000	-118.281591
1.240000	-107.375975
1.250000	-84.370398
1.260000	-69.441417
1.270000	-45.360132
1.280000	-23.589316
1.290000	9.716002
1.300000	60.236730
1.310000	61.848821
1.320000	61.848821
1.330000	61.848821
1.340000	52.898284
1.350000	45.739377
1.360000	45.739377
1.370000	45.739377
1.380000	87.705590
1.390000	87.705590
1.400000	87.705590
1.410000	60.484622
1.420000	0.627098
1.430000	-34.438890
1.440000	-64.133080
1.450000	-64.133080
1.460000	-64.133080
1.470000	-31.902619
1.480000	27.393339
1.490000	102.358984
1.500000	153.840052
1.510000	205.790461
1.520000	241.170721
1.530000	263.917487
1.540000	263.917487
1.550000	263.917487
1.560000	262.660288
1.570000	262.660288
1.580000	262.660288
1.590000	264.752811
1.600000	464.154364
1.610000	464.154364
1.620000	464.154364
1.630000	429.273941
1.640000	352.257995
1.650000	308.140433
1.660000	272.083795
1.670000	261.118370
1.680000	257.204085
1.690000	257.204085
1.700000	257.204085
1.710000	272.506481
1.720000	286.683148
1.730000	301.823040
1.740000	301.823040
1.750000	301.823040
1.760000	290.699800
1.770000	285.659921
1.780000	285.435320
1.790000	277.602286
1.800000	277.602286
1.810000	277.602286
1.820000	288.090852
1.830000	316.325694
1.840000	324.856501
1.850000	332.298457
1.860000	358.621565
1.870000	379.144218
1.880000	397.459865
1.890000	423.001531
1.900000	436.213996
1.910000	441.921185
1.920000	441.921185
1.930000	441.921185
1.940000	440.875049
1.950000	398.465006
1.960000	350.782638
1.970000	288.162131
1.980000	248.816566
1.990000	229.740793
2.000000	219.821259
2.010000	219.821259
2.020000	219.821259
2.030000	228.912183
2.040000	243.873101
2.050000	264.447018
2.060000	264.447018
2.070000	264.447018
2.080000	256.818427
2.090000	247.704678
2.100000	228.681158
2.110000	218.142177
2.120000	218.142177
2.130000	218.142177
2.140000	225.311046
2.150000	241.883013
2.160000	265.079128
2.170000	282.590571
2.180000	311.921874
2.190000	344.218393
2.200000	362.735492
2.210000	386.938088
2.220000	407.462224
2.230000	440.720749
2.240000	456.051702
2.250000	470.648964
2.260000	470.648964
2.270000	470.648964
2.280000	446.991236
2.290000	414.506649
2.300000	388.581541
2.310000	367.307893
2.320000	367.307893
2.330000	367.307893
2.340000	389.747235
2.350000	401.829604
2.360000	423.428993
2.370000	443.457273
2.380000	462.131752
2.390000	482.081346
2.400000	491.785258
2.410000	497.744354
2.420000	499.408658
2.430000	505.421691
2.440000	517.000557
2.450000	519.042916
2.460000	534.686004
2.470000	555.565948
2.480000	582.384482
2.490000	600.033491
2.500000	630.171674
2.510000	645.353689
2.520000	660.061336
2.530000	687.657916
2.540000	719.878476
2.550000	745.941891
2.560000	752.675481
2.570000	772.863715
2.580000	772.863715
2.590000	772.863715
2.600000	732.754812
2.610000	687.477349
2.620000	639.177821
2.630000	561.998787
2.640000	510.807000
2.650000	466.300702
2.660000	444.517157
2.670000	419.470843
2.680000	408.329204
2.690000	395.534186
2.700000	366.180506
2.710000	362.750066
2.720000	362.750066
2.730000	366.180506
2.740000	382.377597
2.750000	395.281802
2.760000	405.649043
2.770000	412.780882
2.780000	439.966832
2.790000	452.099726
2.800000	459.388935
2.810000	487.440398
2.820000	487.440398
2.830000	487.440398
2.840000	459.727520
2.850000	429.454401
2.860000	379.715491
2.870000	330.083219
2.880000	303.690534
2.890000	287.589902
2.900000	273.655450
2.910000	268.587769
2.920000	268.587769
2.930000	268.587769
2.940000	287.525777
2.950000	290.945103
2.960000	290.945103
2.970000	290.945103
2.980000	285.641415
2.990000	284.727627
3.000000	284.727627
3.010000	283.458895
3.020000	283.458895
3.030000	279.025432
3.040000	279.025432
3.050000	279.025432
3.060000	295.700969
3.070000	303.556991
3.080000	303.556991
3.090000	303.556991
3.100000	265.446681
3.110000	222.984640
3.120000	192.391684
3.130000	180.919725
3.140000	178.256531
3.150000	108.642762
3.160000	79.183329
3.170000	79.183329
3.180000	79.183329
3.190000	130.242678
3.200000	173.050224
3.210000	205.965507
3.220000	208.727654
3.230000	212.345915
3.240000	212.345915
3.250000	208.727654
3.260000	212.345915
3.270000	212.345915
3.280000	220.175937
3.290000	245.493837
3.300000	254.857137
3.310000	279.124657
3.320000	306.382010
3.330000	332.738269
3.340000	353.866041
3.350000	364.308736
3.360000	382.374898
3.370000	393.748746
3.380000	393.748746
3.390000	393.748746
3.400000	353.431835
3.410000	312.460621
3.420000	274.795500
3.430000	219.774656
3.440000	194.300987
3.450000	189.892400
3.460000	189.892400
3.470000	189.892400
3.480000	202.073543
3.490000	231.179912
3.500000	239.275262
3.510000	241.392026
3.520000	248.418433
3.530000	248.418433
3.540000	248.418433
3.550000	248.476849
3.560000	248.476849
3.570000	249.854794
3.580000	254.283095
3.590000	274.005726
3.600000	302.045333
3.610000	314.057840
3.620000	333.888359
3.630000	360.990947
3.640000	384.650991
3.650000	408.911668
3.660000	421.314926
3.670000	433.845692
3.680000	445.889965
3.690000	462.558523
3.700000	462.558523
3.710000	462.558523
3.720000	433.857246
3.730000	399.331653
3.740000	359.260055
3.750000	288.978686
3.760000	245.830027
3.770000	235.425077
3.780000	208.189384
3.790000	208.189384
3.800000	208.189384
3.810000	218.585761
3.820000	231.514269
3.830000	237.600699
3.840000	239.556935
3.850000	239.556935
3.860000	237.600699
3.870000	230.910393
3.880000	222.640654
3.890000	202.013772
3.900000	179.761694
3.910000	179.761694
3.920000	179.761694
3.930000	182.025681
3.940000	213.742990
3.950000	244.903351
3.960000	263.627064
3.970000	286.791458
3.980000	313.392969
3.990000	341.607739
4.000000	368.084588
4.010000	385.342066
4.020000	405.759626
4.030000	405.759626
4.040000	405.759626
4.050000	405.624868
4.060000	349.634797
4.070000	308.457361
4.080000	245.639695
4.090000	193.403631
4.100000	157.496495
4.110000	133.245356
4.120000	133.245356
4.130000	133.245356
4.140000	139.876367
4.150000	154.871270
4.160000	165.377646
4.170000	183.638920
4.180000	188.661806
4.190000	198.617579
4.200000	430.226727
4.210000	521.972768
4.220000	575.992253
4.230000	632.074217
4.240000	676.527835
4.250000	713.140050
4.260000	738.960728
4.270000	788.223255
4.280000	788.223255
4.290000	788.223255
4.300000	778.255151
4.310000	761.281645
4.320000	748.959008
4.330000	748.959008
4.340000	748.959008
4.350000	814.338394
4.360000	904.541015
4.370000	1024.311538
4.380000	1148.950810
4.390000	1287.284793
4.400000	1474.339962
4.410000	1658.928004
4.420000	1813.700695
4.430000	1968.634103
4.440000	2174.022004
4.450000	2432.112332
4.460000	2639.957783
4.470000	2832.872997
4.480000	3049.805507
4.490000	3274.382950
4.500000	3503.590390
4.510000	3666.606362
4.520000	3771.674036
4.530000	3771.674036
4.540000	3771.674036
4.550000	3689.222846
4.560000	3623.759673
4.570000	3546.642022
4.580000	3367.569608
4.590000	2745.264560
4.600000	1319.218438
4.610000	-336.655726
4.620000	-1859.823592
4.630000	-2987.962561
4.640000	-3786.879181
4.650000	-4183.840807
4.660000	-4183.840807
4.670000	-4183.840807
4.680000	-3914.148467
4.690000	-3666.081614
4.700000	-3381.624353
4.710000	-3019.487266
4.720000	-2740.775879
4.730000	-2534.540926
4.740000	-2270.721631
4.750000	-1986.175201
4.760000	-1732.831713
4.770000	-1535.859661
4.780000	-1370.930280
4.790000	-1157.514929
4.800000	-962.559787
4.810000	-829.231490
4.820000	-746.166836
4.830000	-718.120333
4.840000	-690.740255
4.850000	-684.343661
4.860000	-622.177151
4.870000	-483.852572
4.880000	-317.934882
4.890000	-155.445421
4.900000	-1.754956
4.910000	116.770599
4.920000	206.380414
4.930000	284.883566
4.940000	329.342460
4.950000	329.342460
4.960000	329.342460
4.970000	240.387403
4.980000	91.114150
4.990000	-100.959684
5.000000	-274.132330
5.010000	-425.608766
5.020000	-597.643424
5.030000	-823.374370
5.040000	-1022.986520
5.050000	-1263.686687
5.060000	-1641.552484
5.070000	-2166.907708
5.080000	-2839.233551
5.090000	-3435.663556
5.100000	-3920.575046
5.110000	-4273.608082
5.120000	-4494.118035
5.130000	-4494.118035
5.140000	-4494.118035
5.150000	-4461.114564
5.160000	-4218.534859
5.170000	-3896.546227
5.180000	-3489.471846
5.190000	-3033.242889
5.200000	-2588.628147
5.210000	-2198.040586
5.220000	-1878.867499
5.230000	-1635.955946
5.240000	-1452.198965
5.250000	-1360.160436
5.260000	-1360.160436
5.270000	-1360.160436
5.280000	-1378.142349
5.290000	-1518.999544
5.300000	-1600.490676
5.310000	-1746.359473
5.320000	-1975.706093
5.330000	-2193.560822
5.340000	-2337.164909
5.350000	-2425.140816
5.360000	-2460.836481
5.370000	-2460.836481
5.380000	-2460.836481
5.390000	-2460.836481
5.400000	-2460.836481
5.410000	-2484.640357
5.420000	-2518.872457
5.430000	-2544.279365
5.440000	-2573.658822
5.450000	-2609.045085
5.460000	-2648.590832
5.470000	-2648.590832
5.480000	-2648.590832
5.490000	-2644.784864
5.500000	-2644.129153
5.510000	-2622.424817
5.520000	-2607.212400
5.530000	-2607.212400
5.540000	-2607.212400
5.550000	-2614.409383
5.560000	-2635.397896
5.570000	-2635.397896
5.580000	-2635.397896
5.590000	-2621.130028
5.600000	-2606.122559
5.610000	-2569.162020
5.620000	-2533.348430
5.630000	-2520.344374
5.640000	-2520.344374
5.650000	-2516.570269
5.660000	-2511.898617
5.670000	-2511.898617
5.680000	-2507.316348
5.690000	-2500.260682
5.700000	-2489.029056
5.710000	-2451.058388
5.720000	-2435.088971
5.730000	-2414.800899
5.740000	-2393.802951
5.750000	-2392.583854
5.760000	-2389.071991
5.770000	-2389.071991
5.780000	-2389.071991
5.790000	-2389.071991
5.800000	-2427.579318
5.810000	-2427.579318
5.820000	-2427.579318
5.830000	-2407.408866
5.840000	-2289.315435
5.850000	-2222.253124
5.860000	-2172.171161
5.870000	-2133.318820
5.880000	-2083.123766
5.890000	-2041.644043
5.900000	-2015.180369
5.910000	-1987.047246
5.920000	-1956.420970
5.930000	-1922.590496
5.940000	-1883.797725
5.950000	-1865.004180
5.960000	-1865.004180
5.970000	-1865.004180
5.980000	-1901.122488
5.990000	-1922.808584
6.000000	-1959.141461
6.010000	-1978.580243
6.020000	-1978.580243
6.030000	-1978.580243
6.040000	-1974.612574
6.050000	-1962.777073
6.060000	-1943.896180
6.070000	-1929.186786
6.080000	-1922.286854
6.090000	-1904.662601
6.100000	-1886.883560
6.110000	-1878.260143
6.120000	-1875.001428
6.130000	-1873.564600
6.140000	-1869.325588
6.150000	-1853.893253
6.160000	-1846.262517
6.170000	-1827.805163
6.180000	-1799.371424
6.190000	-1781.889694
6.200000	-1755.484720
6.210000	-1727.163490
6.220000	-1695.689769
6.230000	-1657.544361
6.240000	-1631.067139
6.250000	-1605.957782
6.260000	-1585.592206
6.270000	-1585.592206
6.280000	-1585.592206
6.290000	-1603.820598
6.300000	-1607.284726
6.310000	-1615.308185
6.320000	-1615.308185
6.330000	-1615.308185
6.340000	-1611.073350
6.350000	-1606.240977
6.360000	-1588.074472
6.370000	-1558.311106
6.380000	-1531.206359
6.390000	-1506.436364
6.400000	-1486.439785
6.410000	-1470.646077
6.420000	-1463.779234
6.430000	-1453.900258
6.440000	-1445.252102
6.450000	-1418.176500
6.460000	-1389.912745
6.470000	-1349.460326
6.480000	-1321.755945
6.490000	-1273.667211
6.500000	-1232.847336
6.510000	-1206.898945
6.520000	-1158.895017
6.530000	-1103.349224
6.540000	-1019.922889
6.550000	-949.040961
6.560000	-870.858435
6.570000	-799.898942
6.580000	-720.782327
6.590000	-656.932607
6.600000	-656.932607
6.610000	-656.932607
6.620000	-657.913688
6.630000	-657.913688
6.640000	-657.913688
6.650000	-669.890123
6.660000	-669.890123
6.670000	-673.629270
6.680000	-736.080228
6.690000	-808.420553
6.700000	-808.420553
6.710000	-808.420553
6.720000	-695.605479
6.730000	-633.844168
6.740000	-580.827606
6.750000	-481.278694
6.760000	-338.255033
6.770000	-240.993545
6.780000	-182.460217
6.790000	-106.614510
6.800000	-66.002899
6.810000	-49.097286
6.820000	-13.497122
6.830000	50.294694
6.840000	50.294694
6.850000	50.294694
6.860000	42.965163
6.870000	36.018771
6.880000	30.703412
6.890000	30.703412
6.900000	34.725160
6.910000	34.725160
6.920000	34.725160
6.930000	35.742839
6.940000	35.742839
6.950000	35.742839
6.960000	5.379783
6.970000	-31.033479
6.980000	-31.033479
6.990000	-31.033479
7.000000	-2.186302
7.010000	27.631535
7.020000	56.925953
7.030000	65.248100
7.040000	65.248100
7.050000	65.248100
7.060000	37.272858
7.070000	12.595989
7.080000	-30.660807
7.090000	-61.908952
7.100000	-72.650622
7.110000	-79.476821
7.120000	-117.684377
7.130000	-117.684377
7.140000	-117.684377
7.150000	-103.014900
7.160000	-84.183404
7.170000	-51.142496
7.180000	-22.536432
7.190000	9.821257
7.200000	26.052578
7.210000	75.997074
7.220000	89.333600
7.230000	90.492982
7.240000	100.484081
7.250000	100.484081
7.260000	94.656205
7.270000	94.656205
7.280000	38.459924
7.290000	16.288061
7.300000	-22.478919
7.310000	-22.478919
7.320000	-22.478919
7.330000	10.535439
7.340000	35.534386
7.350000	134.199033
7.360000	191.667155
7.370000	358.635930
7.380000	443.906260
7.390000	656.218126
7.400000	1998.374609
7.410000	2173.788034
7.420000	2205.010404
7.430000	2326.245296
7.440000	2357.562782
7.450000	2436.422961
7.460000	2438.635810
7.470000	2465.705634
7.480000	2465.705634
7.490000	2465.705634
7.500000	2411.646857
7.510000	2397.770769
7.520000	2356.594129
7.530000	2356.594129
7.540000	2356.594129
7.550000	2364.002476
7.560000	2370.815910
7.570000	2392.804486
7.580000	2392.804486
7.590000	2396.322655
7.600000	2396.322655
7.610000	2388.670045
7.620000	2376.600197
7.630000	2357.395685
7.640000	2352.472427
7.650000	2352.438420
7.660000	2352.438420
7.670000	2352.472427
7.680000	2358.151838
7.690000	2366.198510
7.700000	2371.628208
7.710000	2375.130971
7.720000	2397.348885
7.730000	2404.660962
7.740000	2411.587747
7.750000	2414.362564
7.760000	2411.587747
7.770000	2411.587747
7.780000	2402.155967
7.790000	2397.273032
7.800000	2374.445904
7.810000	2330.339894
7.820000	2258.825171
7.830000	2185.592000
7.840000	2093.184609
7.850000	2019.094511
7.860000	1988.610819
7.870000	1953.496149
7.880000	1916.278306
7.890000	1880.001813
7.900000	1846.044570
7.910000	1830.652404
7.920000	1810.807811
7.930000	1800.510195
7.940000	1783.594435
7.950000	1777.567391
7.960000	1745.338705
7.970000	1723.194328
7.980000	1717.162525
7.990000	1716.917149
8.000000	1717.162525
8.010000	1717.162525
8.020000	1727.519884
8.030000	1745.964307
8.040000	1748.503772
8.050000	1755.418467
8.060000	1756.848887
8.070000	1783.077930
8.080000	1783.077930
8.090000	1783.077930
8.100000	1769.649956
8.110000	1736.953486
8.120000	1726.242675
8.130000	1714.122471
8.140000	1705.825206
8.150000	1705.825206
8.160000	1699.790465
8.170000	1699.790465
8.180000	1699.790465
8.190000	1687.507049
8.200000	1684.897726
8.210000	1662.100100
8.220000	1651.296845
8.230000	1643.876864
8.240000	1641.696955
8.250000	1636.956275
8.260000	1636.956275
8.270000	1636.956275
8.280000	1644.677295
8.290000	1652.810299
8.300000	1666.726458
8.310000	1677.750305
8.320000	1696.954719
8.330000	1712.753219
8.340000	1722.009366
8.350000	1731.785091
8.360000	1731.981472
8.370000	1731.981472
8.380000	1738.244239
8.390000	1738.244239
8.400000	1738.244239
8.410000	1680.056273
8.420000	1623.109047
8.430000	1561.703549
8.440000	1516.172922
8.450000	1497.452739
8.460000	1487.390770
8.470000	1487.390770
8.480000	1487.390770
8.490000	1518.661047
8.500000	1556.569711
8.510000	1577.970674
8.520000	1597.982305
8.530000	1609.958661
8.540000	1613.170933
8.550000	1613.170933
8.560000	1613.170933
8.570000	1612.520388
8.580000	1613.170933
8.590000	1616.084791
8.600000	1621.667534
8.610000	1624.429120
8.620000	1624.429120
8.630000	1621.667534
8.640000	1615.153742
8.650000	1615.153742
8.660000	1615.153742
8.670000	1643.471229
8.680000	1652.184917
8.690000	1659.934465
8.700000	1671.734349
8.710000	1676.481815
8.720000	1676.481815
8.730000	1676.481815
8.740000	1634.165050
8.750000	1606.250986
8.760000	1557.738615
8.770000	1515.646506
8.780000	1500.421519
8.790000	1497.071897
8.800000	1489.227653
8.810000	1487.149093
8.820000	1484.690492
8.830000	1473.365057
8.840000	1471.355995
8.850000	1463.968168
8.860000	1440.780361
8.870000	1409.728582
8.880000	1376.319659
8.890000	1342.604375
8.900000	1313.992771
8.910000	1312.650486
8.920000	1311.655054
8.930000	1303.874641
8.940000	1302.496517
8.950000	1281.251329
8.960000	1280.019538
8.970000	1280.019538
8.980000	1281.251329
8.990000	1286.262377
9.000000	1290.724041
9.010000	1292.926563
9.020000	1292.926563
9.030000	1292.926563
9.040000	1360.489475
9.050000	1438.373209
9.060000	1493.433986
9.070000	1555.110259
9.080000	1601.355174
9.090000	1601.355174
9.100000	1614.491735
9.110000	1618.314837
9.120000	1618.314837
9.130000	1688.336025
9.140000	1756.640251
9.150000	1802.674062
9.160000	1877.088116
9.170000	1954.918178
9.180000	2043.738580
9.190000	2125.203787
9.200000	2184.510899
9.210000	2267.768249
9.220000	2320.116878
9.230000	2361.648947
9.240000	2435.897002
9.250000	2483.355783
9.260000	2504.951607
9.270000	2554.315222
9.280000	2611.912434
9.290000	2689.467001
9.300000	2750.847609
9.310000	2751.208548
9.320000	2751.208548
9.330000	2751.208548
9.340000	2583.115181
9.350000	2196.190538
9.360000	1522.752524
9.370000	642.678213
9.380000	-39.619200
9.390000	-369.421188
9.400000	-552.884209
9.410000	-608.704362
9.420000	-608.704362
9.430000	-608.704362
9.440000	-499.778960
9.450000	-352.933447
9.460000	-113.628622
9.470000	124.522585
9.480000	289.672698
9.490000	440.427291
9.500000	589.938729
9.510000	732.368564
9.520000	871.318583
9.530000	992.347341
9.540000	1103.847378
9.550000	1211.403790
9.560000	1274.333628
9.570000	1313.713543
9.580000	1341.878681
9.590000	1395.171176
9.600000	1412.236466
9.610000	1508.193682
9.620000	1683.358213
9.630000	1822.978521
9.640000	1869.199708
9.650000	1869.199708
9.660000	1869.199708
9.670000	1804.058707
9.680000	1699.813728
9.690000	1562.132657
9.700000	1441.622913
9.710000	1353.179261
9.720000	1261.363595
9.730000	1139.318160
9.740000	994.265590
9.750000	810.460658
9.760000	602.316062
9.770000	331.522956
9.780000	22.602661
9.790000	-383.582009
9.800000	-950.059969
9.810000	-1720.573593
9.820000	-2514.045754
9.830000	-3069.286821
9.840000	-3531.089309
9.850000	-4070.014551
9.860000	-4551.238822
9.870000	-4804.590892
9.880000	-4890.969632
9.890000	-4915.739752
9.900000	-4915.739752
9.910000	-4915.739752
9.920000	-4698.692474
9.930000	-4370.348787
9.940000	-4005.125899
9.950000	-3626.771120
9.960000	-3318.676325
9.970000	-3050.835871
9.980000	-2818.249971
9.990000	-2629.894193
10.000000	-2457.677624
10.010000	-2329.061517
10.020000	-2246.994970
10.030000	-2178.086622
10.040000	-2121.359501
10.050000	-2092.115143
10.060000	-2046.520856
10.070000	-1967.176024
10.080000	-1863.716739
10.090000	-1758.231874
10.100000	-1650.813458
10.110000	-1542.251364
10.120000	-1475.989514
10.130000	-1422.031782
10.140000	-1383.218836
10.150000	-1365.785029
10.160000	-1311.234304
10.170000	-1271.806769
10.180000	-1256.094642
10.190000	-1249.730600
10.200000	-1249.663531
10.210000	-1244.938624
10.220000	-1242.668754
10.230000	-1231.642569
10.240000	-1231.519827
10.250000	-1231.385439
10.260000	-1219.062684
10.270000	-1179.360547
10.280000	-1128.793543
10.290000	-1071.135341
10.300000	-1003.475055
10.310000	-944.939983
10.320000	-870.003538
10.330000	-762.740908
10.340000	-697.750850
10.350000	-642.217290
10.360000	-587.535416
10.370000	-542.713075
10.380000	-525.314782
10.390000	-495.021442
10.400000	-452.177658
10.410000	-421.368471
10.420000	-391.916021
10.430000	-354.692346
10.440000	-300.627382
10.450000	-249.067356
10.460000	-249.067356
10.470000	-249.067356
10.480000	-283.678601
10.490000	-325.015971
10.500000	-386.122349
10.510000	-407.702515
10.520000	-412.298837
10.530000	-424.689083
10.540000	-459.102698
10.550000	-468.221454
10.560000	-468.221454
10.570000	-468.221454
10.580000	-455.054395
10.590000	-454.485383
10.600000	-440.376569
10.610000	-426.836613
10.620000	-401.603281
10.630000	-380.241445
10.640000	-372.677354
10.650000	-369.750785
10.660000	-363.767409
10.670000	-358.202287
10.680000	-357.757668
10.690000	-347.594199
10.700000	-337.828064
10.710000	-324.927346
10.720000	-323.928364
10.730000	-320.157982
10.740000	-301.013617
10.750000	-270.413436
10.760000	-251.130275
10.770000	-230.551494
10.780000	-188.205312
10.790000	-163.835073
10.800000	-163.835073
10.810000	-163.835073
10.820000	-182.223828
10.830000	-235.054150
10.840000	-289.374962
10.850000	-341.025360
10.860000	-355.423837
10.870000	-355.423837
10.880000	-355.423837
10.890000	-342.368119
10.900000	-339.239191
10.910000	-338.207910
10.920000	-337.409168
10.930000	-337.409168
10.940000	-338.207910
10.950000	-345.456891
10.960000	-370.029126
10.970000	-383.481523
10.980000	-384.808581
10.990000	-387.461321
11.000000	-387.461321
11.010000	-384.808581
11.020000	-377.607349
11.030000	-362.502281
11.040000	-355.406454
11.050000	-338.441681
11.060000	-330.290056
11.070000	-325.189242
11.080000	-325.189242
11.090000	-325.189242
11.100000	-325.189242
11.110000	-325.314030
11.120000	-329.721085
11.130000	-329.721085
11.140000	-345.314085
11.150000	-397.950349
11.160000	-430.150516
11.170000	-484.835559
11.180000	-537.787876
11.190000	-543.526627
11.200000	-543.526627
11.210000	-543.526627
11.220000	-532.236373
11.230000	-511.316857
11.240000	-486.966004
11.250000	-465.092182
11.260000	-451.681805
11.270000	-434.804315
11.280000	-434.436049
11.290000	-431.463156
11.300000	-429.518251
11.310000	-429.376671
11.320000	-427.323872
11.330000	-427.323872
11.340000	-408.780071
11.350000	-380.500744
11.360000	-360.035843
11.370000	-348.703394
11.380000	-348.703394
11.390000	-348.703394
11.400000	-359.049786
11.410000	-359.049786
11.420000	-359.049786
11.430000	-297.027143
11.440000	-236.912128
11.450000	-201.444129
11.460000	-201.444129
11.470000	-201.444129
11.480000	-218.256269
11.490000	-246.444442
11.500000	-299.035364
11.510000	-351.736104
11.520000	-367.766970
11.530000	-387.225729
11.540000	-397.850286
11.550000	-397.850286
11.560000	-397.850286
11.570000	-389.360547
11.580000	-388.293136
11.590000	-367.876157
11.600000	-359.883582
11.610000	-359.883582
11.620000	-359.644299
11.630000	-359.644299
11.640000	-359.644299
11.650000	-357.559699
11.660000	-343.323186
11.670000	-319.611226
11.680000	-307.052861
11.690000	-302.772772
11.700000	-275.691643
11.710000	-268.122433
11.720000	-256.134985
11.730000	-244.537490
11.740000	-220.516352
11.750000	-191.995889
11.760000	-155.853720
11.770000	-126.488709
11.780000	-99.124675
11.790000	-61.948409
11.800000	-47.732148
11.810000	-47.732148
11.820000	-47.732148
11.830000	-88.860715
11.840000	-128.863710
11.850000	-154.371780
11.860000	-164.858796
11.870000	-164.858796
11.880000	-164.858796
11.890000	-147.215516
11.900000	-126.525332
11.910000	-103.504742
11.920000	-77.814536
11.930000	-54.795070
11.940000	-26.142788
11.950000	-25.048707
11.960000	-23.542392
11.970000	-23.305328
11.980000	-23.305328
11.990000	-12.821898
12.000000	-9.535512
12.010000	6.014913
12.020000	45.227172
12.030000	97.807218
12.040000	140.970679
12.050000	171.668917
12.060000	205.781419
12.070000	233.475295
12.080000	248.617677
12.090000	263.347266
12.100000	278.438182
12.110000	302.255599
12.120000	333.247009
12.130000	360.152879
12.140000	360.152879
12.150000	360.152879
12.160000	336.060524
12.170000	288.895108
12.180000	261.036814
12.190000	222.668487
12.200000	221.544745
12.210000	221.544745
12.220000	221.544745
12.230000	247.870489
12.240000	276.784119
12.250000	276.784119
12.260000	276.784119
12.270000	252.076767
12.280000	105.446364
12.290000	-88.238860
12.300000	-268.062968
12.310000	-415.655199
12.320000	-513.558650
12.330000	-634.302512
12.340000	-784.858071
12.350000	-920.792413
12.360000	-971.068167
12.370000	-1009.886279
12.380000	-1009.886279
12.390000	-1009.886279
12.400000	-964.326347
12.410000	-900.377205
12.420000	-799.591418
12.430000	-799.591418
12.440000	-799.591418
12.450000	-925.075641
12.460000	-1149.129145
12.470000	-1534.615384
12.480000	-1956.942964
12.490000	-2496.701526
12.500000	-2904.061813
12.510000	-2904.061813
12.520000	-2904.061813
12.530000	-2648.584772
12.540000	-2373.727105
12.550000	-2201.828305
12.560000	-2041.787887
12.570000	-1937.423891
12.580000	-1794.450603
12.590000	-1672.423003
12.600000	-1516.780615
12.610000	-1384.709479
12.620000	-1258.886135
12.630000	-1161.083191
12.640000	-1049.797412
12.650000	-952.625925
12.660000	-812.454933
12.670000	-655.375768
12.680000	-499.067594
12.690000	-391.185849
12.700000	-265.344593
12.710000	-167.281097
12.720000	-77.419067
12.730000	-1.422181
12.740000	63.553667
12.750000	111.436440
12.760000	144.574074
12.770000	188.383323
12.780000	266.615160
12.790000	345.196993
12.800000	424.777565
12.810000	495.006756
12.820000	595.102762
12.830000	684.624723
12.840000	781.615923
12.850000	855.135822
12.860000	906.244981
12.870000	954.726675
12.880000	976.782992
12.890000	994.472446
12.900000	1008.291062
12.910000	1020.251970
12.920000	1023.805497
12.930000	1026.099291
12.940000	1026.099291
12.950000	1026.099291
12.960000	1021.100450
12.970000	987.510409
12.980000	938.976478
12.990000	893.212005
13.000000	846.826590
13.010000	809.983116
13.020000	776.568889
13.030000	776.568889
13.040000	776.568889
13.050000	818.582370
13.060000	844.503255
13.070000	858.451156
13.080000	859.462101
13.090000	859.462101
13.100000	859.462101
13.110000	816.269570
13.120000	767.527175
13.130000	706.182921
13.140000	648.691782
13.150000	625.168930
13.160000	611.655916
13.170000	611.655916
13.180000	611.655916
13.190000	637.619777
13.200000	655.596986
13.210000	697.047198
13.220000	735.471508
13.230000	735.471508
13.240000	735.471508
13.250000	717.853866
13.260000	707.593838
13.270000	698.215126
13.280000	694.784854
13.290000	691.583852
13.300000	681.233967
13.310000	680.005136
13.320000	677.492932
13.330000	677.492932
13.340000	680.940356
13.350000	680.940356
13.360000	701.012451
13.370000	720.351626
13.380000	723.825259
13.390000	728.485996
13.400000	733.075292
13.410000	748.241678
13.420000	772.734059
13.430000	786.632218
13.440000	799.512083
13.450000	799.512083
13.460000	799.512083
13.470000	791.554706
13.480000	732.010812
13.490000	732.010812
13.500000	732.010812
13.510000	784.058367
13.520000	869.358917
13.530000	945.719095
13.540000	1017.235584
13.550000	1092.430402
13.560000	1139.038638
13.570000	1165.291325
13.580000	1175.870306
13.590000	1176.192597
13.600000	1176.754212
13.610000	1197.268615
13.620000	1197.268615
13.630000	1197.268615
13.640000	1153.334244
13.650000	1099.398585
13.660000	1098.167030
13.670000	1090.581673
13.680000	1090.581673
13.690000	1098.167030
13.700000	1099.378648
13.710000	1135.573000
13.720000	1173.526821
13.730000	1188.604171
13.740000	1194.585211
13.750000	1199.831868
13.760000	1202.849266
13.770000	1204.294562
13.780000	1207.457350
13.790000	1218.445825
13.800000	1222.275269
13.810000	1238.624575
13.820000	1247.615526
13.830000	1247.615526
13.840000	1247.615526
13.850000	1237.315088
13.860000	1213.330323
13.870000	1176.543060
13.880000	1123.876194
13.890000	1123.876194
13.900000	1123.876194
13.910000	1129.564714
13.920000	1198.615130
13.930000	1242.888384
13.940000	1290.350106
13.950000	1349.189995
13.960000	1389.011052
13.970000	1438.686033
13.980000	1507.649926
13.990000	1586.160384
14.000000	1632.230885
14.010000	1679.873767
14.020000	1708.692343
14.030000	1733.714014
14.040000	1771.186341
14.050000	1812.514830
14.060000	1859.737941
14.070000	1911.333853
14.080000	1954.285532
14.090000	2034.341407
14.100000	2102.599839
14.110000	2169.538272
14.120000	2247.946247
14.130000	2359.785594
14.140000	2470.161260
14.150000	2575.142215
14.160000	2702.487036
14.170000	2784.259186
14.180000	2844.086928
14.190000	2844.086928
14.200000	2844.086928
14.210000	2835.336309
14.220000	2773.423599
14.230000	2688.484300
14.240000	2571.024548
14.250000	2317.391906
14.260000	1956.005773
14.270000	1347.856475
14.280000	615.722111
14.290000	-14.380048
14.300000	-498.045756
14.310000	-843.747943
14.320000	-1043.756010
14.330000	-1063.520180
14.340000	-1063.520180
14.350000	-1063.520180
14.360000	-1043.339300
14.370000	-1033.854660
14.380000	-979.889507
14.390000	-854.258022
14.400000	-747.756466
14.410000	-652.383434
14.420000	-577.665668
14.430000	-500.413776
14.440000	-390.551426
14.450000	-286.628759
14.460000	-201.363063
14.470000	-99.710068
14.480000	-28.397473
14.490000	60.469659
14.500000	60.469659
14.510000	60.469659
14.520000	57.117967
14.530000	8.983311
14.540000	8.023953
14.550000	4.948484
14.560000	-5.953923
14.570000	-14.045674
14.580000	-37.014503
14.590000	-37.895302
14.600000	-65.316424
14.610000	-127.641266
14.620000	-193.516858
14.630000	-202.315093
14.640000	-211.049346
14.650000	-211.049346
14.660000	-211.049346
14.670000	-142.774575
14.680000	-7.541370
14.690000	81.126698
14.700000	141.490106
14.710000	190.009419
14.720000	190.009419
14.730000	190.009419
14.740000	189.623998
14.750000	168.592183
14.760000	161.496268
14.770000	152.449615
14.780000	136.379956
14.790000	105.280027
14.800000	51.244292
14.810000	-15.861055
14.820000	-93.933678
14.830000	-169.993918
14.840000	-238.153455
14.850000	-289.140493
14.860000	-309.385106
14.870000	-323.416060
14.880000	-323.553314
14.890000	-323.553314
14.900000	-323.553314
14.910000	-332.801595
14.920000	-339.584444
14.930000	-339.584444
14.940000	-445.267704
14.950000	-548.693222
14.960000	-679.930447
14.970000	-808.667119
14.980000	-874.542269
14.990000	-942.016100
15.000000	-998.976671
15.010000	-1037.409861
15.020000	-1044.993291
15.030000	-1044.993291
15.040000	-1044.993291
15.050000	-1036.893030
15.060000	-1036.893030
15.070000	-1036.893030
15.080000	-1064.051175
15.090000	-1107.561934
15.100000	-1131.462851
15.110000	-1143.390092
15.120000	-1143.390092
15.130000	-1143.390092
15.140000	-1138.653845
15.150000	-1131.780036
15.160000	-1120.390646
15.170000	-1109.524540
15.180000	-1103.167848
15.190000	-1094.282572
15.200000	-1084.830028
15.210000	-1084.830028
15.220000	-1084.830028
15.230000	-1121.050848
15.240000	-1156.663743
15.250000	-1218.117560
15.260000	-1275.389559
15.270000	-1365.415840
15.280000	-1530.177340
15.290000	-1719.509588
15.300000	-1866.969394
15.310000	-2004.924133
15.320000	-2172.830741
15.330000	-2302.092121
15.340000	-2395.939981
15.350000	-2456.307528
15.360000	-2517.188623
15.370000	-2565.445174
15.380000	-2590.496310
15.390000	-2591.662351
15.400000	-2606.962925
15.410000	-2636.829208
15.420000	-2646.385753
15.430000	-2646.385753
15.440000	-2646.385753
15.450000	-2644.712293
15.460000	-2603.166344
15.470000	-2587.321847
15.480000	-2573.501036
15.490000	-2553.027197
15.500000	-2529.925345
15.510000	-2506.783451
15.520000	-2506.460284
15.530000	-2497.445418
15.540000	-2482.143487
15.550000	-2450.127313
15.560000	-2415.950515
15.570000	-2381.830563
15.580000	-2331.762743
15.590000	-2282.679523
15.600000	-2235.586452
15.610000	-2212.641772
15.620000	-2212.641772
15.630000	-2212.641772
15.640000	-2232.305026
15.650000	-2241.403716
15.660000	-2241.403716
15.670000	-2241.403716
15.680000	-2238.564030
15.690000	-2238.564030
15.700000	-2238.564030
15.710000	-2290.476653
15.720000	-2290.476653
15.730000	-2290.476653
15.740000	-2185.455911
15.750000	-2073.915704
15.760000	-1998.673864
15.770000	-1922.186785
15.780000	-1831.010486
15.790000	-1771.674782
15.800000	-1721.208117
15.810000	-1673.260024
15.820000	-1621.456959
15.830000	-1569.925050
15.840000	-1517.742545
15.850000	-1468.653148
15.860000	-1433.096421
15.870000	-1383.325897
15.880000	-1328.601091
15.890000	-1264.008487
15.900000	-1202.202384
15.910000	-1137.689201
15.920000	-1082.900469
15.930000	-1031.365138
15.940000	-1016.463447
15.950000	-1016.463447
15.960000	-1016.463447
15.970000	-1056.940523
15.980000	-1119.212647
15.990000	-1169.764734
16.000000	-1171.850681
16.010000	-1171.850681
16.020000	-1171.850681
16.030000	-1158.806894
16.040000	-1123.615549
16.050000	-1065.963542
16.060000	-1009.487280
16.070000	-947.076310
16.080000	-883.431497
16.090000	-824.231282
16.100000	-789.453976
16.110000	-722.213586
16.120000	-666.792222
16.130000	-616.092125
16.140000	-560.159423
16.150000	-506.053632
16.160000	-435.492699
16.170000	-372.165529
16.180000	-293.734104
16.190000	-213.409038
16.200000	-149.021602
16.210000	-98.631067
16.220000	-56.330454
16.230000	-10.870093
16.240000	24.261656
16.250000	50.902461
16.260000	84.862205
16.270000	115.573210
16.280000	116.970546
16.290000	116.970546
16.300000	116.970546
16.310000	97.973926
16.320000	56.309822
16.330000	11.825463
16.340000	-1.336963
16.350000	-5.502843
16.360000	-5.502843
16.370000	-5.502843
16.380000	20.425902
16.390000	43.666492
16.400000	69.953441
16.410000	94.074416
16.420000	119.484049
16.430000	137.428649
16.440000	158.046959
16.450000	162.684782
16.460000	165.682042
16.470000	170.894242
16.480000	184.305665
16.490000	201.057180
16.500000	219.923094
16.510000	240.205961
16.520000	271.553894
16.530000	279.218323
16.540000	284.324236
16.550000	297.187637
16.560000	317.039919
16.570000	320.059625
16.580000	320.059625
16.590000	317.039919
16.600000	229.691065
16.610000	214.359490
16.620000	203.286589
16.630000	201.918643
16.640000	201.918643
16.650000	201.918643
16.660000	204.688493
16.670000	204.688493
16.680000	204.688493
16.690000	198.623447
16.700000	191.066422
16.710000	186.700953
16.720000	178.735509
16.730000	157.618144
16.740000	157.618144
16.750000	157.618144
16.760000	171.948150
16.770000	196.464475
16.780000	232.120920
16.790000	250.768616
16.800000	262.398563
16.810000	288.103893
16.820000	314.390993
16.830000	315.585657
16.840000	324.969692
16.850000	338.545608
16.860000	338.963167
16.870000	338.963167
16.880000	338.963167
16.890000	308.675929
16.900000	272.408769
16.910000	229.819171
16.920000	210.944081
16.930000	197.743246
16.940000	197.743246
16.950000	197.743246
16.960000	205.295275
16.970000	231.735942
16.980000	246.863762
16.990000	257.358668
17.000000	261.852018
17.010000	261.852018
17.020000	257.358668
17.030000	262.726592
17.040000	256.591954
17.050000	256.591954
17.060000	262.077516
17.070000	262.726592
17.080000	271.984692
17.090000	302.507263
17.100000	310.228754
17.110000	327.159698
17.120000	340.365363
17.130000	356.883450
17.140000	374.493472
17.150000	380.596088
17.160000	409.769012
17.170000	425.130774
17.180000	430.174216
17.190000	451.748839
17.200000	451.748839
17.210000	451.748839
17.220000	439.691016
17.230000	399.310857
17.240000	346.888623
17.250000	282.186899
17.260000	253.241153
17.270000	230.873641
17.280000	211.687698
17.290000	209.165448
17.300000	209.165448
17.310000	209.165448
17.320000	214.849549
17.330000	229.792408
17.340000	230.561121
17.350000	230.561121
17.360000	232.833400
17.370000	232.833400
17.380000	227.900825
17.390000	224.285233
17.400000	224.579174
17.410000	224.579174
17.420000	224.579174
17.430000	238.208947
17.440000	243.432178
17.450000	253.995565
17.460000	276.295740
17.470000	298.763989
17.480000	313.200106
17.490000	317.581335
17.500000	329.189850
17.510000	343.371183
17.520000	355.212033
17.530000	386.267273
17.540000	411.139193
17.550000	411.139193
17.560000	411.139193
17.570000	379.411500
17.580000	333.972721
17.590000	264.467329
17.600000	206.118351
17.610000	185.536115
17.620000	167.130128
17.630000	154.750585
17.640000	143.154658
17.650000	143.154658
17.660000	143.154658
17.670000	153.318090
17.680000	161.668580
17.690000	162.308272
17.700000	189.550079
17.710000	198.825145
17.720000	198.825145
17.730000	202.999082
17.740000	204.993667
17.750000	207.309034
17.760000	211.807188
17.770000	213.747977
17.780000	233.243497
17.790000	245.105671
17.800000	250.796528
17.810000	257.523020
17.820000	268.382499
17.830000	278.964324
17.840000	290.027591
17.850000	295.431945
17.860000	302.755974
17.870000	323.957548
17.880000	330.419208
17.890000	349.684032
17.900000	374.032558
17.910000	398.465287
17.920000	398.465287
17.930000	398.465287
17.940000	390.488820
17.950000	347.056466
17.960000	291.341451
17.970000	244.962241
17.980000	210.042306
17.990000	210.042306
18.000000	210.042306
18.010000	211.872432
18.020000	214.135019
18.030000	232.824825
18.040000	236.885300
18.050000	237.316241
18.060000	242.164448
18.070000	244.430398
18.080000	248.957410
18.090000	249.227703
18.100000	250.492494
18.110000	253.601644
18.120000	266.615826
18.130000	274.967594
18.140000	291.869912
18.150000	303.313522
18.160000	333.283387
18.170000	354.574175
18.180000	371.839977
18.190000	372.461106
18.200000	378.860857
18.210000	391.318952
18.220000	403.946253
18.230000	409.919379
18.240000	427.540114
18.250000	442.487759
18.260000	442.487759
18.270000	442.487759
18.280000	407.985489
18.290000	363.879597
18.300000	305.591536
18.310000	245.860969
18.320000	208.286781
18.330000	174.787486
18.340000	163.140387
18.350000	148.657488
18.360000	148.657488
18.370000	148.657488
18.380000	158.272488
18.390000	169.414318
18.400000	169.414318
18.410000	172.477666
18.420000	177.740813
18.430000	182.407453
18.440000	185.496933
18.450000	191.267776
18.460000	210.481099
18.470000	246.825504
18.480000	286.480416
18.490000	307.424180
18.500000	324.645087
18.510000	345.064632
18.520000	380.888430
18.530000	389.619223
18.540000	413.428931
18.550000	432.067194
18.560000	445.088874
18.570000	469.628712
18.580000	488.720631
18.590000	504.307848
18.600000	526.440545
18.610000	540.986662
18.620000	545.256247
18.630000	545.256247
18.640000	545.256247
18.650000	516.517646
18.660000	484.080794
18.670000	447.530171
18.680000	439.062343
18.690000	432.449838
18.700000	432.449838
18.710000	432.449838
18.720000	436.244949
18.730000	462.692221
18.740000	482.337926
18.750000	500.997692
18.760000	517.480433
18.770000	539.396265
18.780000	541.938060
18.790000	545.613078
18.800000	557.318434
18.810000	557.880199
18.820000	561.380272
18.830000	576.964760
18.840000	600.686787
18.850000	619.648955
18.860000	640.166931
18.870000	656.369978
18.880000	688.790009
18.890000	708.024382
18.900000	732.615410
18.910000	768.715500
18.920000	804.462176
18.930000	841.514695
18.940000	873.357520
18.950000	903.412301
18.960000	938.332938
18.970000	968.336032
18.980000	995.412037
18.990000	1029.352596
19.000000	1029.352596
19.010000	1029.352596
19.020000	1026.671611
19.030000	1020.729041
19.040000	1014.914461
19.050000	1014.914461
19.060000	1014.914461
19.070000	1030.688908
19.080000	1072.111640
19.090000	1148.301731
19.100000	1233.284121
19.110000	1360.148457
19.120000	1498.353492
19.130000	1578.961354
19.140000	1651.820712
19.150000	1723.727550
19.160000	1781.304014
19.170000	1784.258286
19.180000	1784.258286
19.190000	1784.258286
19.200000	1706.000951
19.210000	1635.882251
19.220000	1350.476758
19.230000	858.213823
19.240000	515.980291
19.250000	376.781272
19.260000	336.121593
19.270000	317.157385
19.280000	317.157385
19.290000	317.157385
19.300000	344.072204
19.310000	379.142895
19.320000	512.749418
19.330000	721.886183
19.340000	917.313743
19.350000	1095.934916
19.360000	1237.900724
19.370000	1370.180719
19.380000	1504.514158
19.390000	1665.530006
19.400000	1775.915472
19.410000	1784.632209
19.420000	1796.672054
19.430000	1798.055977
19.440000	1829.029042
19.450000	1829.029042
19.460000	1836.253965
19.470000	1853.211300
19.480000	1872.788153
19.490000	1947.772088
19.500000	2034.637608
19.510000	2110.552525
19.520000	2166.589753
19.530000	2191.390424
19.540000	2209.704847
19.550000	2209.704847
19.560000	2209.704847
19.570000	2174.236496
19.580000	2110.951706
19.590000	2062.361461
19.600000	1991.985658
19.610000	1933.740573
19.620000	1895.007050
19.630000	1846.077652
19.640000	1770.123143
19.650000	1678.551101
19.660000	1571.265930
19.670000	1414.991168
19.680000	1267.716593
19.690000	1131.333807
19.700000	1017.249473
19.710000	939.739837
19.720000	890.776021
19.730000	843.147527
19.740000	771.361035
19.750000	706.764487
19.760000	644.900253
19.770000	576.419952
19.780000	530.596875
19.790000	493.006107
19.800000	441.321884
19.810000	391.747548
19.820000	356.083638
19.830000	312.444675
19.840000	274.991972
19.850000	245.153771
19.860000	202.887640
19.870000	159.995997
19.880000	112.785774
19.890000	59.888994
19.900000	27.804189
19.910000	-6.310425
19.920000	-50.093182
19.930000	-94.421996
19.940000	-127.943252
19.950000	-157.543136
19.960000	-185.741443
19.970000	-221.643118
19.980000	-275.504192
19.990000	-313.584296
20.000000	-361.392347
20.010000	-391.342956
20.020000	-430.394253
20.030000	-460.943803
20.040000	-488.424634
20.050000	-523.524915
20.060000	-555.362226
20.070000	-592.125487
20.080000	-642.268240
20.090000	-720.712132
20.100000	-836.126000
20.110000	-967.185927
20.120000	-1091.952196
20.130000	-1183.617076
20.140000	-1257.866420
20.150000	-1328.013608
20.160000	-1358.542018
20.170000	-1358.542018
20.180000	-1358.542018
20.190000	-1313.820724
20.200000	-1274.174588
20.210000	-1201.200079
20.220000	-1101.907653
20.230000	-1062.773975
20.240000	-1035.246643
20.250000	-988.373509
20.260000	-967.983453
20.270000	-958.962513
20.280000	-951.729669
20.290000	-928.508258
20.300000	-887.484013
20.310000	-839.891465
20.320000	-809.043041
20.330000	-769.120839
20.340000	-715.642227
20.350000	-681.434694
20.360000	-663.124430
20.370000	-644.696712
20.380000	-625.632507
20.390000	-600.930160
20.400000	-574.148262
20.410000	-539.121488
20.420000	-539.121488
20.430000	-539.121488
20.440000	-544.321514
20.450000	-569.280125
20.460000	-585.869393
20.470000	-592.367673
20.480000	-592.367673
20.490000	-593.409248
20.500000	-596.430457
20.510000	-596.504284
20.520000	-611.437998
20.530000	-630.636271
20.540000	-664.895928
20.550000	-683.644731
20.560000	-698.460086
20.570000	-701.590927
20.580000	-701.590927
20.590000	-701.590927
20.600000	-483.543617
20.610000	-436.367694
20.620000	-429.552696
20.630000	-376.604993
20.640000	-376.571169
20.650000	-376.571169
20.660000	-376.571169
20.670000	-407.351914
20.680000	-450.288056
20.690000	-493.049462
20.700000	-493.049462
20.710000	-493.049462
20.720000	-480.554643
20.730000	-458.745196
20.740000	-431.092583
20.750000	-399.637013
20.760000	-376.655690
20.770000	-369.512685
20.780000	-330.063985
20.790000	-316.678843
20.800000	-308.252231
20.810000	-289.860501
20.820000	-267.496736
20.830000	-251.051962
20.840000	-219.656135
20.850000	-211.405041
20.860000	-179.582535
20.870000	-167.004249
20.880000	-167.004249
20.890000	-167.004249
20.900000	-527.802290
20.910000	-750.140873
20.920000	-955.443815
20.930000	-1150.934350
20.940000	-1300.969746
20.950000	-1424.881218
20.960000	-1467.433975
20.970000	-1467.433975
20.980000	-1467.433975
20.990000	-1430.551612
21.000000	-1380.396246
21.010000	-1328.058924
21.020000	-1245.254357
21.030000	-1190.809678
21.040000	-1128.856743
21.050000	-1072.700028
21.060000	-1004.377962
21.070000	-949.715510
21.080000	-893.792295
21.090000	-816.722525
21.100000	-755.367803
21.110000	-681.556372
21.120000	-619.091646
21.130000	-561.312253
21.140000	-486.780737
21.150000	-414.184291
21.160000	-341.418789
21.170000	-288.122223
21.180000	-212.895485
21.190000	-154.286129
21.200000	-129.319571
21.210000	-111.352445
21.220000	-111.352445
21.230000	-111.352445
21.240000	-128.381909
21.250000	-128.381909
21.260000	-128.381909
21.270000	-127.565152
21.280000	-114.324228
21.290000	-97.652422
21.300000	-74.841356
21.310000	-51.770884
21.320000	-12.305717
21.330000	3.949768
21.340000	24.406094
21.350000	24.406094
21.360000	24.406094
21.370000	24.240669
21.380000	15.842228
21.390000	11.240118
21.400000	11.240118
21.410000	11.240118
21.420000	16.720094
21.430000	17.426577
21.440000	25.263994
21.450000	37.130512
21.460000	49.099813
21.470000	54.904739
21.480000	58.533395
21.490000	66.032271
21.500000	81.595491
21.510000	99.544342
21.520000	107.247564
21.530000	124.134755
21.540000	126.072320
21.550000	126.072320
21.560000	126.072320
21.570000	74.711036
21.580000	52.531130
21.590000	46.794365
21.600000	46.794365
21.610000	46.794365
21.620000	92.823755
21.630000	126.006513
21.640000	136.660567
21.650000	140.747175
21.660000	140.747175
21.670000	140.747175
21.680000	130.373287
21.690000	125.241978
21.700000	120.923900
21.710000	119.929482
21.720000	119.929482
21.730000	119.929482
21.740000	121.274131
21.750000	125.605980
21.760000	129.461190
21.770000	143.324858
21.780000	163.324063
21.790000	181.339519
21.800000	203.212656
21.810000	243.365002
21.820000	272.969603
21.830000	303.488159
21.840000	333.678552
21.850000	357.585140
21.860000	388.426810
21.870000	424.628004
21.880000	424.628004
21.890000	424.628004
21.900000	359.771016
21.910000	348.565872
21.920000	347.261719
21.930000	345.127620
21.940000	345.127620
21.950000	339.835440
21.960000	339.835440
21.970000	349.372191
21.980000	350.157235
21.990000	355.115195
22.000000	365.303115
22.010000	391.745486
22.020000	408.450387
22.030000	419.168843
22.040000	433.597967
22.050000	440.518559
22.060000	450.789821
22.070000	467.831300
22.080000	476.915113
22.090000	493.209252
22.100000	515.979644
22.110000	530.531589
22.120000	554.114452
22.130000	554.114452
22.140000	554.114452
22.150000	539.889145
22.160000	505.545411
22.170000	476.948341
22.180000	422.700810
22.190000	385.191311
22.200000	370.738040
22.210000	364.356453
22.220000	351.757641
22.230000	351.757641
22.240000	351.757641
22.250000	370.770693
22.260000	388.605149
22.270000	402.051551
22.280000	430.412076
22.290000	430.479463
22.300000	441.168186
22.310000	453.425012
22.320000	464.727148
22.330000	470.060896
22.340000	476.838417
22.350000	481.830930
22.360000	497.709969
22.370000	510.824617
22.380000	542.654598
22.390000	566.662745
22.400000	585.655877
22.410000	601.473999
22.420000	608.612489
22.430000	622.317473
22.440000	627.368826
22.450000	636.485406
22.460000	638.116664
22.470000	638.116664
22.480000	627.368826
22.490000	623.018336
22.500000	564.463162
22.510000	345.752940
22.520000	-53.806235
22.530000	-499.112329
22.540000	-861.120366
22.550000	-1119.304068
22.560000	-1260.483404
22.570000	-1304.977165
22.580000	-1304.977165
22.590000	-1304.977165
22.600000	-1214.273204
22.610000	-1118.391919
22.620000	-1034.675701
22.630000	-968.805389
22.640000	-899.033867
22.650000	-849.375802
22.660000	-804.314957
22.670000	-768.032051
22.680000	-728.583733
22.690000	-681.741691
22.700000	-625.892116
22.710000	-562.492412
22.720000	-505.267051
22.730000	-438.194505
22.740000	-379.770070
22.750000	-320.854182
22.760000	-258.323299
22.770000	-190.551861
22.780000	-131.954670
22.790000	-54.166321
22.800000	35.280888
22.810000	99.102832
22.820000	149.617818
22.830000	197.331950
22.840000	235.873138
22.850000	259.782781
22.860000	259.782781
22.870000	259.782781
22.880000	248.248120
22.890000	222.836918
22.900000	197.518615
22.910000	197.518615
22.920000	197.518615
22.930000	212.971283
22.940000	222.615824
22.950000	233.117133
22.960000	255.563664
22.970000	276.156720
22.980000	299.523992
22.990000	311.105270
23.000000	331.542451
23.010000	340.903608
23.020000	358.630058
23.030000	385.611775
23.040000	395.603693
23.050000	409.409495
23.060000	428.484286
23.070000	462.188796
23.080000	496.259627
23.090000	513.920591
23.100000	536.097673
23.110000	571.577956
23.120000	589.786273
23.130000	614.342586
23.140000	642.360230
23.150000	674.073692
23.160000	718.917097
23.170000	749.661476
23.180000	776.533947
23.190000	799.177022
23.200000	825.686187
23.210000	825.686187
23.220000	825.686187
23.230000	788.055274
23.240000	740.102382
23.250000	686.520320
23.260000	644.507703
23.270000	623.919662
23.280000	611.804531
23.290000	607.600913
23.300000	603.295034
23.310000	603.081109
23.320000	594.258245
23.330000	579.967812
23.340000	554.312473
23.350000	492.246348
23.360000	182.807535
23.370000	-401.018775
23.380000	-1056.114561
23.390000	-1760.831909
23.400000	-2300.556601
23.410000	-2658.237949
23.420000	-2872.201352
23.430000	-2872.201352
23.440000	-2872.201352
23.450000	-2785.868714
23.460000	-2627.015663
23.470000	-2400.038931
23.480000	-2157.244459
23.490000	-1894.105551
23.500000	-1652.653832
23.510000	-1449.154290
23.520000	-1243.962714
23.530000	-1068.451316
23.540000	-921.235018
23.550000	-797.793272
23.560000	-706.596690
23.570000	-640.145189
23.580000	-585.998750
23.590000	-528.542469
23.600000	-446.439302
23.610000	-370.136307
23.620000	-268.765895
23.630000	-172.953600
23.640000	-96.099849
23.650000	2.322441
23.660000	91.314856
23.670000	156.589378
23.680000	231.806145
23.690000	296.652858
23.700000	322.218489
23.710000	341.831845
23.720000	362.502994
23.730000	379.924078
23.740000	404.772873
23.750000	424.897705
23.760000	442.024843
23.770000	447.539590
23.780000	447.539590
23.790000	458.817754
23.800000	475.038444
23.810000	475.038444
23.820000	475.038444
23.830000	475.038444
23.840000	470.551156
23.850000	366.371103
23.860000	-120.645161
23.870000	-696.028064
23.880000	-1005.735561
23.890000	-1125.665951
23.900000	-1331.432500
23.910000	-1479.209967
23.920000	-1492.372292
23.930000	-1492.372292
23.940000	-1492.372292
23.950000	-1455.394823
23.960000	-1339.977516
23.970000	-1251.668862
23.980000	-1174.706548
23.990000	-1109.045063
24.000000	-1040.455687
24.010000	-961.499032
24.020000	-894.345324
24.030000	-851.987014
24.040000	-851.987014
24.050000	-851.987014
24.060000	-868.190780
24.070000	-899.086434
24.080000	-922.323084
24.090000	-922.323084
24.100000	-922.323084
24.110000	-902.397253
24.120000	-858.542487
24.130000	-789.239005
24.140000	-711.742921
24.150000	-626.092805
24.160000	-521.974232
24.170000	-425.104854
24.180000	-341.209882
24.190000	-275.173805
24.200000	-226.489897
24.210000	-198.311941
24.220000	-188.815325
24.230000	-188.815325
24.240000	-188.815325
24.250000	-218.654327
24.260000	-255.685411
24.270000	-307.119769
24.280000	-355.995489
24.290000	-393.666798
24.300000	-405.347392
24.310000	-409.204054
24.320000	-413.663266
24.330000	-413.663266
24.340000	-413.663266
24.350000	-419.732120
24.360000	-421.065207
24.370000	-438.597315
24.380000	-459.448381
24.390000	-492.373648
24.400000	-543.210973
24.410000	-583.112636
24.420000	-614.116230
24.430000	-626.878112
24.440000	-637.148061
24.450000	-646.662655
24.460000	-668.607903
24.470000	-671.105313
24.480000	-671.105313
24.490000	-671.105313
24.500000	-671.105313
24.510000	-715.309183
24.520000	-791.661446
24.530000	-854.722275
24.540000	-913.597942
24.550000	-956.133333
24.560000	-1002.679936
24.570000	-1031.999689
24.580000	-1035.067738
24.590000	-1035.414421
24.600000	-1035.067738
24.610000	-1031.999689
24.620000	-1017.381077
24.630000	-988.949115
24.640000	-952.734517
24.650000	-952.734517
24.660000	-951.998081
24.670000	-945.632598
24.680000	-942.257725
24.690000	-921.350367
24.700000	-919.554870
24.710000	-912.244441
24.720000	-874.905391
24.730000	-844.359794
24.740000	-825.220007
24.750000	-787.432237
24.760000	-745.709617
24.770000	-715.558628
24.780000	-715.558628
24.790000	-715.558628
24.800000	-691.192237
24.810000	-677.350815
24.820000	-677.350815
24.830000	-636.912977
24.840000	-609.677586
24.850000	-576.510955
24.860000	-539.110709
24.870000	-534.254107
24.880000	-523.385433
24.890000	-521.191681
24.900000	-511.623601
24.910000	-510.263671
24.920000	-490.793892
24.930000	-466.491284
24.940000	-442.989727
24.950000	-410.723347
24.960000	-383.295051
24.970000	-353.944991
24.980000	-323.666831
24.990000	-289.199761
25.000000	-259.115570
25.010000	-227.458734
25.020000	-199.639273
25.030000	-177.751993
25.040000	-177.751993
25.050000	-177.751993
25.060000	-211.720385
25.070000	-256.567777
25.080000	-314.346838
25.090000	-366.955569
25.100000	-384.983080
25.110000	-404.563867
25.120000	-424.557052
25.130000	-444.212976
25.140000	-448.130142
25.150000	-448.657171
25.160000	-449.894009
25.170000	-453.160752
25.180000	-453.160752
25.190000	-461.855327
25.200000	-467.669228
25.210000	-472.882378
25.220000	-481.839192
25.230000	-481.839192
25.240000	-481.839192
25.250000	-481.601716
25.260000	-479.306291
25.270000	-476.058357
25.280000	-463.050576
25.290000	-454.195858
25.300000	-444.980541
25.310000	-433.133038
25.320000	-415.941404
25.330000	-383.080985
25.340000	-364.042866
25.350000	-344.940600
25.360000	-315.183749
25.370000	-286.892519
25.380000	-286.892519
25.390000	-286.892519
25.400000	-311.214864
25.410000	-332.239196
25.420000	-388.330581
25.430000	-430.217873
25.440000	-442.566297
25.450000	-443.592388
25.460000	-443.592388
25.470000	-443.592388
25.480000	-426.790618
25.490000	-410.911000
25.500000	-379.835307
25.510000	-359.368295
25.520000	-346.824809
25.530000	-312.774717
25.540000	-312.067897
25.550000	-311.962184
25.560000	-303.397167
25.570000	-295.219487
25.580000	-290.731374
25.590000	-262.411806
25.600000	-248.264734
25.610000	-224.452964
25.620000	-192.887006
25.630000	-170.553226
25.640000	-145.446851
25.650000	-122.717305
25.660000	-94.988495
25.670000	-94.988495
25.680000	-94.988495
25.690000	-106.001904
25.700000	-106.001904
25.710000	-106.001904
25.720000	-97.896144
25.730000	-34.242049
25.740000	-34.242049
25.750000	-34.242049
25.760000	-72.803517
25.770000	-110.003561
25.780000	-137.839685
25.790000	-161.873430
25.800000	-188.628158
25.810000	-188.628158
25.820000	-188.628158
25.830000	-174.246890
25.840000	-168.529527
25.850000	-152.059737
25.860000	-150.746243
25.870000	-144.920922
25.880000	-126.038025
25.890000	-124.905741
25.900000	224.782361
25.910000	250.061459
25.920000	253.637766
25.930000	281.572159
25.940000	284.979630
25.950000	316.834018
25.960000	337.633087
25.970000	376.283379
25.980000	377.054204
25.990000	414.090083
26.000000	421.184753
26.010000	422.091455
26.020000	426.104485
26.030000	431.064003
26.040000	440.215435
26.050000	461.106038
26.060000	461.126424
26.070000	482.357816
26.080000	503.869429
26.090000	533.694710
26.100000	553.546183
26.110000	582.139754
26.120000	597.117112
26.130000	616.703720
26.140000	645.658976
26.150000	664.208685
26.160000	693.321582
26.170000	713.612105
26.180000	724.044327
26.190000	734.823027
26.200000	734.823027
26.210000	734.823027
26.220000	720.023496
26.230000	683.494039
26.240000	656.635353
26.250000	648.754076
26.260000	648.754076
26.270000	648.754076
26.280000	658.802554
26.290000	681.478522
26.300000	706.328670
26.310000	740.265837
26.320000	763.797823
26.330000	790.158983
26.340000	828.898071
26.350000	829.274210
26.360000	841.054047
26.370000	851.472512
26.380000	866.909424
26.390000	886.042913
26.400000	888.714188
26.410000	889.734360
26.420000	901.600133
26.430000	914.315172
26.440000	930.534499
26.450000	967.974877
26.460000	990.340987
26.470000	997.755386
26.480000	1008.217659
26.490000	1035.545792
26.500000	1047.990850
26.510000	1053.467092
26.520000	1060.737479
26.530000	1060.737479
26.540000	1060.737479
26.550000	1032.113979
26.560000	996.732360
26.570000	950.919119
26.580000	901.780616
26.590000	872.793222
26.600000	839.722057
26.610000	830.813095
26.620000	830.813095
26.630000	830.813095
26.640000	830.830772
26.650000	833.611327
26.660000	841.678338
26.670000	841.678338
26.680000	841.678338
26.690000	830.776433
26.700000	829.761985
26.710000	825.973617
26.720000	816.105150
26.730000	805.903148
26.740000	799.206266
26.750000	784.133718
26.760000	784.133718
26.770000	784.133718
26.780000	799.657571
26.790000	801.239381
26.800000	809.257805
26.810000	811.018890
26.820000	814.513288
26.830000	831.265571
26.840000	840.972563
26.850000	866.262017
26.860000	868.420550
26.870000	868.420550
26.880000	866.262017
26.890000	839.382012
26.900000	782.622205
26.910000	741.874338
26.920000	709.855817
26.930000	682.404039
26.940000	672.164450
26.950000	660.877760
26.960000	660.877760
26.970000	660.877760
26.980000	665.089631
26.990000	665.231659
27.000000	671.227195
27.010000	671.227195
27.020000	665.231659
27.030000	663.594926
27.040000	653.990006
27.050000	647.970592
27.060000	630.726018
27.070000	623.474357
27.080000	618.018393
27.090000	614.090810
27.100000	613.736637
27.110000	614.090810
27.120000	618.018393
27.130000	618.444500
27.140000	635.365630
27.150000	655.201320
27.160000	682.063123
27.170000	704.945521
27.180000	755.907752
27.190000	784.491887
27.200000	815.989183
27.210000	850.999127
27.220000	851.994523
27.230000	913.898710
27.240000	913.898710
27.250000	913.898710
27.260000	904.867127
27.270000	904.867127
27.280000	904.867127
27.290000	904.867127
27.300000	904.867127
27.310000	902.693655
27.320000	895.894219
27.330000	871.181975
27.340000	869.470480
27.350000	860.502113
27.360000	836.013559
27.370000	833.126372
27.380000	833.126372
27.390000	836.013559
27.400000	961.276667
27.410000	982.437974
27.420000	982.437974
27.430000	982.437974
27.440000	971.777677
27.450000	942.472969
27.460000	897.409687
27.470000	861.203004
27.480000	821.966467
27.490000	807.065656
27.500000	797.038117
27.510000	797.038117
27.520000	797.038117
27.530000	822.162289
27.540000	834.040643
27.550000	840.450049
27.560000	846.277777
27.570000	846.277777
27.580000	846.277777
27.590000	846.129770
27.600000	835.829286
27.610000	834.351588
27.620000	815.179496
27.630000	805.517957
27.640000	805.517957
27.650000	805.517957
27.660000	808.992733
27.670000	825.304172
27.680000	834.623421
27.690000	835.447616
27.700000	850.009426
27.710000	869.854518
27.720000	894.623222
27.730000	923.099095
27.740000	956.260799
27.750000	992.353566
27.760000	1022.896950
27.770000	1022.896950
27.780000	1022.896950
27.790000	1019.123050
27.800000	980.058036
27.810000	940.451887
27.820000	907.758040
27.830000	903.834667
27.840000	893.496841
27.850000	891.559705
27.860000	885.322142
27.870000	885.322142
27.880000	864.795417
27.890000	857.261671
27.900000	852.940756
27.910000	841.209863
27.920000	817.112184
27.930000	804.246557
27.940000	771.141970
27.950000	759.493353
27.960000	729.957854
27.970000	716.950931
27.980000	707.651720
27.990000	707.651720
28.000000	707.651720
28.010000	718.848480
28.020000	723.044271
28.030000	732.139064
28.040000	736.852953
28.050000	743.896879
28.060000	743.896879
28.070000	744.822006
28.080000	746.254667
28.090000	774.110912
28.100000	1179.662552
28.110000	1350.531485
28.120000	1454.736783
28.130000	1607.014142
28.140000	1720.256045
28.150000	1865.931179
28.160000	1976.391472
28.170000	2076.098872
28.180000	2134.372512
28.190000	2206.499135
28.200000	2206.499135
28.210000	2206.499135
28.220000	2074.562271
28.230000	1839.807458
28.240000	1592.164056
28.250000	1054.639432
28.260000	498.262812
28.270000	133.295577
28.280000	-190.638597
28.290000	-503.728545
28.300000	-777.389676
28.310000	-941.650813
28.320000	-1126.703054
28.330000	-1217.218412
28.340000	-1217.218412
28.350000	-1217.218412
28.360000	-1191.908707
28.370000	-1191.908707
28.380000	-1191.908707
28.390000	-1265.953211
28.400000	-1320.027741
28.410000	-1345.833704
28.420000	-1429.425305
28.430000	-1584.535586
28.440000	-1740.612031
28.450000	-1986.697091
28.460000	-2313.550714
28.470000	-2712.883709
28.480000	-3119.355794
28.490000	-3405.924525
28.500000	-3689.856112
28.510000	-3931.559287
28.520000	-4042.088339
28.530000	-4042.088339
28.540000	-4042.088339
28.550000	-3998.091940
28.560000	-3991.751174
28.570000	-3952.638155
28.580000	-3865.593700
28.590000	-3789.415737
28.600000	-3723.301087
28.610000	-3646.166477
28.620000	-3579.153582
28.630000	-3530.912293
28.640000	-3494.994222
28.650000	-3439.618351
28.660000	-3344.897534
28.670000	-3146.231768
28.680000	-2892.141849
28.690000	-2655.943716
28.700000	-2324.905700
28.710000	-1948.130770
28.720000	-1688.011392
28.730000	-1476.716231
28.740000	-1206.036960
28.750000	-922.758196
28.760000	-687.130337
28.770000	-526.741290
28.780000	-432.152866
28.790000	-313.534428
28.800000	-149.393939
28.810000	-7.603856
28.820000	106.505928
28.830000	193.311556
28.840000	266.411284
28.850000	378.302989
28.860000	468.083919
28.870000	468.083919
28.880000	468.083919
28.890000	365.866816
28.900000	263.814266
28.910000	150.673265
28.920000	57.630339
28.930000	-36.695516
28.940000	-116.482268
28.950000	-162.084671
28.960000	-162.817485
28.970000	-162.817485
28.980000	-162.817485
28.990000	-144.126189
29.000000	-129.020746
29.010000	-84.573704
29.020000	-55.468119
29.030000	-36.916300
29.040000	-10.910142
29.050000	-10.778610
29.060000	-10.778610
29.070000	-10.778610
29.080000	-10.778610
29.090000	-10.778610
