Time(s)	RED_denoised_median
0.000000	-264.547036
0.010000	-264.547036
0.020000	-264.547036
0.030000	-255.117044
0.040000	-252.752704
0.050000	-230.257627
0.060000	-213.913070
0.070000	-186.624839
0.080000	-161.812986
0.090000	-160.024906
0.100000	-154.596199
0.110000	-143.505314
0.120000	-122.385317
0.130000	-113.069717
0.140000	-99.080932
0.150000	-75.677761
0.160000	-67.869349
0.170000	-52.163368
0.180000	-31.741487
0.190000	-9.658771
0.200000	24.413306
0.210000	48.748276
0.220000	87.685430
0.230000	122.026868
0.240000	155.010617
0.250000	161.451701
0.260000	161.451701
0.270000	161.451701
0.280000	88.716099
0.290000	-6.334617
0.300000	-73.810424
0.310000	-116.271359
0.320000	-134.218179
0.330000	-135.340430
0.340000	-138.938583
0.350000	-138.938583
0.360000	-138.938583
0.370000	-136.858817
0.380000	-110.296343
0.390000	-103.519878
0.400000	-103.519878
0.410000	-91.707588
0.420000	-92.323976
0.430000	-98.146575
0.440000	-92.323976
0.450000	-90.392228
0.460000	-71.985149
0.470000	-40.072815
0.480000	-15.611520
0.490000	23.096132
0.500000	43.613082
0.510000	72.426899
0.520000	117.787895
0.530000	140.628326
0.540000	183.186967
0.550000	213.627567
0.560000	245.712865
0.570000	284.605089
0.580000	312.177018
0.590000	341.671309
0.600000	371.603575
0.610000	401.744138
0.620000	425.014795
0.630000	444.849622
0.640000	475.459701
0.650000	488.843555
0.660000	522.088067
0.670000	522.088067
0.680000	522.088067
0.690000	490.641452
0.700000	400.214116
0.710000	314.807246
0.720000	216.553948
0.730000	161.181874
0.740000	144.736839
0.750000	115.432382
0.760000	84.099241
0.770000	56.677259
0.780000	55.933519
0.790000	46.711507
0.800000	43.481735
0.810000	36.385134
0.820000	32.915812
0.830000	16.770666
0.840000	-5.799365
0.850000	-23.820860
0.860000	-41.336610
0.870000	-43.928861
0.880000	-43.928861
0.890000	-41.336610
0.900000	-41.336610
0.910000	-43.928861
0.920000	-53.701831
0.930000	-53.701831
0.940000	-63.922310
0.950000	-54.382362
0.960000	-53.701831
0.970000	-48.531736
0.980000	-54.382362
0.990000	-54.382362
1.000000	-68.227753
1.010000	-68.227753
1.020000	-68.227753
1.030000	-55.941411
1.040000	-32.665374
1.050000	-17.636979
1.060000	9.020135
1.070000	24.566383
1.080000	67.891166
1.090000	95.560166
1.100000	140.990081
1.110000	162.364397
1.120000	188.299802
1.130000	222.116781
1.140000	239.551665
1.150000	246.971471
1.160000	253.830454
1.170000	256.809794
1.180000	271.544665
1.190000	272.182037
1.200000	285.715788
1.210000	288.762754
1.220000	288.762754
1.230000	288.762754
1.240000	212.900269
1.250000	138.609249
1.260000	74.383627
1.270000	30.481910
1.280000	30.481910
1.290000	30.481910
1.300000	46.398850
1.310000	49.058508
1.320000	56.267005
1.330000	62.156523
1.340000	62.636584
1.350000	82.330035
1.360000	89.902740
1.370000	92.158650
1.380000	102.690357
1.390000	122.978320
1.400000	142.469490
1.410000	167.870208
1.420000	197.249963
1.430000	205.724357
1.440000	222.203736
1.450000	234.491395
1.460000	257.257335
1.470000	284.227181
1.480000	324.379340
1.490000	348.885881
1.500000	371.645682
1.510000	406.571837
1.520000	418.805519
1.530000	428.436393
1.540000	453.988962
1.550000	479.233623
1.560000	479.233623
1.570000	479.233623
1.580000	475.413784
1.590000	387.945501
1.600000	295.887195
1.610000	214.713150
1.620000	160.391578
1.630000	151.517831
1.640000	120.689780
1.650000	120.689780
1.660000	120.689780
1.670000	127.870205
1.680000	131.985687
1.690000	143.252652
1.700000	155.355478
1.710000	155.355478
1.720000	155.355478
1.730000	146.954538
1.740000	138.487162
1.750000	128.449922
1.760000	104.581502
1.770000	104.581502
1.780000	104.581502
1.790000	114.962187
1.800000	313.037853
1.810000	336.338446
1.820000	371.034567
1.830000	377.127177
1.840000	412.333511
1.850000	434.676112
1.860000	459.824989
1.870000	460.140468
1.880000	460.140468
1.890000	460.140468
1.900000	134.818450
1.910000	124.356760
1.920000	124.356760
1.930000	134.818450
1.940000	134.818450
1.950000	132.996641
1.960000	132.996641
1.970000	106.904298
1.980000	106.099332
1.990000	95.716083
2.000000	96.310420
2.010000	95.640504
2.020000	95.640504
2.030000	96.310420
2.040000	103.924779
2.050000	110.675295
2.060000	127.637561
2.070000	159.728838
2.080000	193.337107
2.090000	224.847642
2.100000	242.999675
2.110000	245.059258
2.120000	297.065103
2.130000	338.786711
2.140000	341.223528
2.150000	354.824965
2.160000	378.278581
2.170000	431.961723
2.180000	461.166470
2.190000	491.357874
2.200000	509.989276
2.210000	535.879617
2.220000	548.544367
2.230000	548.544367
2.240000	548.544367
2.250000	476.101206
2.260000	376.434671
2.270000	265.787477
2.280000	196.464247
2.290000	129.262743
2.300000	87.542197
2.310000	81.917986
2.320000	71.662460
2.330000	71.356337
2.340000	71.356337
2.350000	71.356337
2.360000	91.999737
2.370000	91.999737
2.380000	91.999737
2.390000	62.432191
2.400000	58.178962
2.410000	56.720758
2.420000	52.019181
2.430000	41.430071
2.440000	41.430071
2.450000	41.430071
2.460000	69.874507
2.470000	102.762921
2.480000	102.835047
2.490000	106.486474
2.500000	143.673926
2.510000	161.954920
2.520000	199.877075
2.530000	233.293688
2.540000	259.180841
2.550000	311.777485
2.560000	337.285571
2.570000	386.591652
2.580000	441.242780
2.590000	470.414841
2.600000	513.435740
2.610000	561.148006
2.620000	589.631366
2.630000	613.028992
2.640000	623.810804
2.650000	655.064936
2.660000	662.884109
2.670000	662.884109
2.680000	662.884109
2.690000	615.506589
2.700000	520.907525
2.710000	433.017169
2.720000	374.889827
2.730000	352.524621
2.740000	340.830477
2.750000	332.123644
2.760000	319.814305
2.770000	319.814305
2.780000	319.814305
2.790000	335.447005
2.800000	361.081074
2.810000	361.081074
2.820000	361.081074
2.830000	355.437718
2.840000	318.037555
2.850000	314.900136
2.860000	306.509566
2.870000	274.464400
2.880000	274.464400
2.890000	274.464400
2.900000	266.934600
2.910000	266.934600
2.920000	276.370542
2.930000	276.370542
2.940000	276.370542
2.950000	284.878930
2.960000	297.083533
2.970000	309.681588
2.980000	328.866295
2.990000	362.532585
3.000000	382.593869
3.010000	392.513845
3.020000	393.358433
3.030000	419.630484
3.040000	460.040731
3.050000	468.695546
3.060000	473.229865
3.070000	475.582059
3.080000	475.582059
3.090000	473.229865
3.100000	450.389166
3.110000	373.331382
3.120000	259.669324
3.130000	196.509874
3.140000	120.579439
3.150000	65.998790
3.160000	41.462576
3.170000	32.466779
3.180000	32.466779
3.190000	32.466779
3.200000	38.356227
3.210000	44.534255
3.220000	66.828297
3.230000	70.572098
3.240000	70.572098
3.250000	66.828297
3.260000	64.616721
3.270000	57.332953
3.280000	29.883968
3.290000	28.110135
3.300000	28.110135
3.310000	20.383939
3.320000	20.383939
3.330000	27.204170
3.340000	29.671958
3.350000	62.973006
3.360000	73.594671
3.370000	77.866184
3.380000	105.055228
3.390000	126.641868
3.400000	145.643555
3.410000	163.454167
3.420000	180.269590
3.430000	198.312955
3.440000	216.928560
3.450000	240.225595
3.460000	252.323473
3.470000	252.323473
3.480000	252.323473
3.490000	192.044455
3.500000	112.327272
3.510000	22.870468
3.520000	-49.581940
3.530000	-87.403944
3.540000	-95.310195
3.550000	-107.372564
3.560000	-107.372564
3.570000	-116.583654
3.580000	-116.583654
3.590000	-107.372564
3.600000	-110.605843
3.610000	-110.605843
3.620000	-102.757709
3.630000	-90.611769
3.640000	-73.517675
3.650000	-53.325874
3.660000	-32.413545
3.670000	-8.989648
3.680000	-5.336734
3.690000	4.517834
3.700000	39.760076
3.710000	71.933019
3.720000	83.926528
3.730000	96.490586
3.740000	121.105835
3.750000	121.105835
3.760000	121.105835
3.770000	71.332461
3.780000	-5.003808
3.790000	-84.253904
3.800000	-171.497921
3.810000	-243.725391
3.820000	-268.929686
3.830000	-283.070089
3.840000	-291.147774
3.850000	-291.368786
3.860000	-291.147774
3.870000	-288.693776
3.880000	-288.693776
3.890000	-254.014267
3.900000	-253.146807
3.910000	-253.146807
3.920000	-254.014267
3.930000	-266.932444
3.940000	-266.932444
3.950000	-272.154446
3.960000	-266.932444
3.970000	-261.949629
3.980000	-254.619670
3.990000	-236.877549
4.000000	-212.104967
4.010000	-193.719057
4.020000	-186.530337
4.030000	-149.398120
4.040000	-127.155653
4.050000	-104.876910
4.060000	-61.728653
4.070000	-50.521925
4.080000	-50.521925
4.090000	-50.521925
4.100000	-135.618448
4.110000	-183.958315
4.120000	-213.006090
4.130000	-233.457696
4.140000	-239.312141
4.150000	-239.312141
4.160000	-239.312141
4.170000	-237.779879
4.180000	-234.435002
4.190000	-234.435002
4.200000	-237.779879
4.210000	-252.270409
4.220000	-279.999657
4.230000	-293.761287
4.240000	-309.017885
4.250000	-319.682406
4.260000	-319.941214
4.270000	-319.941214
4.280000	-319.682406
4.290000	-311.122859
4.300000	-297.590848
4.310000	-264.455325
4.320000	-249.546649
4.330000	-222.565453
4.340000	-187.561588
4.350000	-159.670833
4.360000	-135.490419
4.370000	-97.702809
4.380000	-32.393415
4.390000	20.151525
4.400000	56.840923
4.410000	101.113899
4.420000	144.021474
4.430000	195.162381
4.440000	319.388944
4.450000	609.322290
4.460000	896.073308
4.470000	1052.310849
4.480000	1052.310849
4.490000	1067.673678
4.500000	1098.028659
4.510000	1052.310849
4.520000	1047.011871
4.530000	1047.011871
4.540000	548.790687
4.550000	61.905329
4.560000	-193.840809
4.570000	-377.206226
4.580000	-485.907194
4.590000	-485.907194
4.600000	-485.907194
4.610000	-479.443795
4.620000	-479.420535
4.630000	-445.920772
4.640000	-374.998366
4.650000	-348.599404
4.660000	-319.186353
4.670000	-164.037373
4.680000	22.062381
4.690000	239.821015
4.700000	544.494973
4.710000	778.127794
4.720000	836.108036
4.730000	862.354952
4.740000	864.156037
4.750000	875.041870
4.760000	875.041870
4.770000	875.041870
4.780000	527.931305
4.790000	243.003758
4.800000	107.686275
4.810000	81.564701
4.820000	75.345041
4.830000	66.835471
4.840000	75.345041
4.850000	81.564701
4.860000	112.906063
4.870000	183.901426
4.880000	183.901426
4.890000	193.513210
4.900000	198.173611
4.910000	198.173611
4.920000	213.455467
4.930000	238.004009
4.940000	315.031832
4.950000	482.499665
4.960000	694.409580
4.970000	833.832382
4.980000	920.193610
4.990000	972.194776
5.000000	1004.999474
5.010000	1009.144573
5.020000	1009.144573
5.030000	1009.144573
5.040000	917.262904
5.050000	697.716232
5.060000	425.209607
5.070000	203.397987
5.080000	89.072113
5.090000	80.033189
5.100000	79.378494
5.110000	23.114816
5.120000	23.114816
5.130000	23.114816
5.140000	44.876541
5.150000	59.824653
5.160000	61.542788
5.170000	63.278251
5.180000	108.788517
5.190000	214.154108
5.200000	398.692031
5.210000	610.863609
5.220000	787.591936
5.230000	1018.019098
5.240000	1224.060270
5.250000	1297.118332
5.260000	1314.065369
5.270000	1354.251534
5.280000	1408.855256
5.290000	1408.855256
5.300000	1408.855256
5.310000	1340.226438
5.320000	1094.901104
5.330000	879.571084
5.340000	722.739059
5.350000	569.712525
5.360000	351.562943
5.370000	195.417203
5.380000	102.064312
5.390000	-1.055372
5.400000	-28.977742
5.410000	-54.938810
5.420000	-88.822429
5.430000	-123.753130
5.440000	-123.753130
5.450000	-123.753130
5.460000	-101.590173
5.470000	-12.098755
5.480000	92.442180
5.490000	205.305198
5.500000	445.841963
5.510000	650.954250
5.520000	790.627861
5.530000	894.788238
5.540000	910.914387
5.550000	910.914387
5.560000	910.914387
5.570000	894.881338
5.580000	814.347162
5.590000	727.138074
5.600000	611.702817
5.610000	386.247229
5.620000	134.530732
5.630000	134.530732
5.640000	134.530732
5.650000	139.094402
5.660000	139.094402
5.670000	162.222834
5.680000	164.097939
5.690000	183.764217
5.700000	228.444695
5.710000	228.444695
5.720000	228.444695
5.730000	221.980801
5.740000	220.566069
5.750000	193.827953
5.760000	78.478180
5.770000	-49.534693
5.780000	-172.167471
5.790000	-321.021915
5.800000	-430.534823
5.810000	-493.558086
5.820000	-493.558086
5.830000	-493.558086
5.840000	-488.980232
5.850000	-462.288780
5.860000	-390.158759
5.870000	-327.224544
5.880000	-322.312611
5.890000	-314.851440
5.900000	-308.635175
5.910000	-282.401766
5.920000	-277.121230
5.930000	-271.774718
5.940000	-271.133025
5.950000	-269.667293
5.960000	-265.176064
5.970000	-233.465323
5.980000	-232.885869
5.990000	-228.540287
6.000000	-219.684538
6.010000	-217.643765
6.020000	-183.340440
6.030000	-140.916849
6.040000	-116.999434
6.050000	-88.048718
6.060000	-51.713490
6.070000	-14.201258
6.080000	22.586819
6.090000	30.576556
6.100000	58.098926
6.110000	80.154611
6.120000	80.154611
6.130000	80.154611
6.140000	55.280779
6.150000	-35.767681
6.160000	-124.987933
6.170000	-206.319865
6.180000	-259.217298
6.190000	-278.916132
6.200000	-300.557299
6.210000	-321.409711
6.220000	-325.863550
6.230000	-325.863550
6.240000	-332.838007
6.250000	-332.838007
6.260000	-332.838007
6.270000	-332.838007
6.280000	-339.142306
6.290000	-358.207111
6.300000	-362.522914
6.310000	-377.765554
6.320000	-377.765554
6.330000	-377.767223
6.340000	-377.765554
6.350000	-369.898128
6.360000	-344.712849
6.370000	-343.689217
6.380000	-343.689217
6.390000	-344.712849
6.400000	-519.826799
6.410000	-538.035839
6.420000	-540.494058
6.430000	-554.441256
6.440000	-564.983562
6.450000	-564.983562
6.460000	-554.441256
6.470000	-553.227126
6.480000	-538.231060
6.490000	-518.966535
6.500000	-498.498736
6.510000	-484.728379
6.520000	-447.671732
6.530000	-428.695778
6.540000	-387.630575
6.550000	-372.916555
6.560000	-350.372701
6.570000	-315.228522
6.580000	-302.233985
6.590000	-287.389939
6.600000	-240.088121
6.610000	-221.815503
6.620000	-196.686208
6.630000	-177.386057
6.640000	-177.386057
6.650000	-177.386057
6.660000	-190.759362
6.670000	-274.733011
6.680000	-345.144675
6.690000	-416.595042
6.700000	-474.462614
6.710000	-520.515153
6.720000	-567.513946
6.730000	-567.513946
6.740000	-567.513946
6.750000	-565.890031
6.760000	-549.100279
6.770000	-522.633981
6.780000	-519.510360
6.790000	-519.510360
6.800000	-517.505706
6.810000	-519.510360
6.820000	-521.754952
6.830000	-534.237957
6.840000	-534.237957
6.850000	-534.237957
6.860000	-530.557830
6.870000	-518.233611
6.880000	-503.733703
6.890000	-499.723451
6.900000	-472.954314
6.910000	-450.103499
6.920000	-416.076294
6.930000	-402.628432
6.940000	-368.012707
6.950000	-350.389255
6.960000	-312.759208
6.970000	-301.395406
6.980000	-301.395406
6.990000	-301.395406
7.000000	-444.512301
7.010000	-445.564260
7.020000	-445.564260
7.030000	-444.512301
7.040000	-441.923643
7.050000	-428.214416
7.060000	-416.276391
7.070000	-403.651615
7.080000	-382.632279
7.090000	-362.152150
7.100000	-344.988956
7.110000	-324.644971
7.120000	-293.359991
7.130000	-257.193636
7.140000	-219.742205
7.150000	-184.760740
7.160000	-162.159383
7.170000	-151.317031
7.180000	-118.503792
7.190000	-92.062027
7.200000	-65.771541
7.210000	-48.867793
7.220000	-48.867793
7.230000	-48.867793
7.240000	-78.197101
7.250000	-164.688420
7.260000	-253.396534
7.270000	-337.629707
7.280000	-382.537286
7.290000	-416.764094
7.300000	-437.610696
7.310000	-446.929773
7.320000	-446.929773
7.330000	-446.929773
7.340000	-444.833594
7.350000	-441.363399
7.360000	-438.825806
7.370000	-438.825806
7.380000	-438.825806
7.390000	-451.064726
7.400000	-452.920098
7.410000	-457.094114
7.420000	-457.703106
7.430000	-457.703106
7.440000	-457.094114
7.450000	-427.627698
7.460000	-420.836655
7.470000	-415.973467
7.480000	-381.962576
7.490000	-349.507976
7.500000	-341.084943
7.510000	-306.862923
7.520000	-272.433478
7.530000	-261.230944
7.540000	-243.655329
7.550000	-191.622085
7.560000	-161.127048
7.570000	-133.827960
7.580000	-105.656856
7.590000	-78.067859
7.600000	-47.190870
7.610000	-23.365588
7.620000	-9.723860
7.630000	-9.723860
7.640000	-9.723860
7.650000	-53.001198
7.660000	-135.750174
7.670000	-225.526830
7.680000	-311.127905
7.690000	-373.048224
7.700000	-457.705229
7.710000	-473.208243
7.720000	-473.208243
7.730000	-473.208243
7.740000	-471.622989
7.750000	-463.481551
7.760000	-446.816285
7.770000	-445.468399
7.780000	-424.132521
7.790000	-410.378859
7.800000	-380.655791
7.810000	-361.099612
7.820000	-332.071276
7.830000	-311.942640
7.840000	-267.362506
7.850000	-248.031511
7.860000	-199.385024
7.870000	-175.436185
7.880000	-149.202593
7.890000	-113.913806
7.900000	-84.096010
7.910000	-70.398054
7.920000	-31.864888
7.930000	-5.112470
7.940000	23.487200
7.950000	34.064158
7.960000	46.735849
7.970000	46.735849
7.980000	46.735849
7.990000	-27.440260
8.000000	-325.054564
8.010000	-325.054564
8.020000	-325.054564
8.030000	-318.263331
8.040000	-285.872700
8.050000	-271.145773
8.060000	-244.506819
8.070000	-212.142391
8.080000	-189.181360
8.090000	-162.076011
8.100000	-132.914516
8.110000	-114.053410
8.120000	-83.568996
8.130000	-61.160508
8.140000	-40.166355
8.150000	-20.300299
8.160000	3.233590
8.170000	7.468677
8.180000	49.839481
8.190000	79.926642
8.200000	79.926642
8.210000	79.926642
8.220000	44.612301
8.230000	-47.774345
8.240000	-139.159411
8.250000	-202.813490
8.260000	-263.085504
8.270000	-297.738676
8.280000	-300.068148
8.290000	-303.788665
8.300000	-303.788665
8.310000	-303.788665
8.320000	-298.115576
8.330000	-287.635045
8.340000	-280.967796
8.350000	-280.967796
8.360000	-280.967796
8.370000	-287.982407
8.380000	-298.800706
8.390000	-300.595592
8.400000	-310.212586
8.410000	-310.212586
8.420000	-300.595592
8.430000	-298.142924
8.440000	-286.881007
8.450000	-268.560950
8.460000	-244.623999
8.470000	-228.022231
8.480000	-228.022231
8.490000	-228.022231
8.500000	-196.281192
8.510000	-194.247431
8.520000	-194.247431
8.530000	-188.357320
8.540000	-160.730104
8.550000	-154.950544
8.560000	-56.802959
8.570000	77.311544
8.580000	209.780562
8.590000	312.178762
8.600000	314.049182
8.610000	314.049182
8.620000	312.736627
8.630000	312.178762
8.640000	265.027962
8.650000	172.408217
8.660000	128.250215
8.670000	83.251966
8.680000	83.251966
8.690000	83.251966
8.700000	261.347998
8.710000	561.406643
8.720000	798.271576
8.730000	963.037441
8.740000	1004.069956
8.750000	1046.145047
8.760000	1113.584833
8.770000	1164.249462
8.780000	1164.249462
8.790000	1164.249462
8.800000	1110.524924
8.810000	1035.184580
8.820000	886.961165
8.830000	606.089387
8.840000	395.110945
8.850000	336.658003
8.860000	282.620176
8.870000	205.638513
8.880000	191.581489
8.890000	190.509975
8.900000	186.128737
8.910000	163.266304
8.920000	163.266304
8.930000	163.266304
8.940000	232.394981
8.950000	334.132029
8.960000	484.993813
8.970000	628.791743
8.980000	854.986395
8.990000	1065.931297
9.000000	1212.104927
9.010000	1312.252144
9.020000	1424.324953
9.030000	1424.324953
9.040000	1424.324953
9.050000	1342.219402
9.060000	1096.497456
9.070000	911.669995
9.080000	805.439920
9.090000	601.581640
9.100000	90.112784
9.110000	88.187346
9.120000	88.187346
9.130000	90.112784
9.140000	160.710852
9.150000	200.594330
9.160000	257.733400
9.170000	308.765791
9.180000	308.765791
9.190000	308.765791
9.200000	173.093568
9.210000	83.301716
9.220000	77.703112
9.230000	72.971717
9.240000	72.971717
9.250000	72.971717
9.260000	72.971717
9.270000	75.199532
9.280000	78.182167
9.290000	80.513632
9.300000	80.513632
9.310000	79.083704
9.320000	78.182167
9.330000	35.348960
9.340000	32.667611
9.350000	0.316760
9.360000	-12.384209
9.370000	-17.003183
9.380000	-17.003183
9.390000	-12.384209
9.400000	-10.600002
9.410000	-2.592518
9.420000	16.514788
9.430000	23.226438
9.440000	53.887761
9.450000	61.794051
9.460000	88.068478
9.470000	92.505340
9.480000	92.505340
9.490000	88.068478
9.500000	-238.018409
9.510000	-238.092606
9.520000	-258.842499
9.530000	-262.008856
9.540000	-265.761287
9.550000	-279.203200
9.560000	-281.334989
9.570000	-284.296099
9.580000	-281.334989
9.590000	-281.334989
9.600000	-281.263478
9.610000	-267.435328
9.620000	-239.205194
9.630000	-221.663378
9.640000	-213.083315
9.650000	-183.824876
9.660000	-132.047962
9.670000	-115.159324
9.680000	-110.590321
9.690000	-110.590321
9.700000	-110.590321
9.710000	-177.795265
9.720000	-208.565640
9.730000	-225.084705
9.740000	-257.573608
9.750000	-267.195090
9.760000	-267.195090
9.770000	-267.195090
9.780000	-264.875258
9.790000	-257.487343
9.800000	-75.446088
9.810000	-38.083205
9.820000	-15.794783
9.830000	-1.025216
9.840000	44.931109
9.850000	63.755285
9.860000	82.881491
9.870000	82.881491
9.880000	82.881491
9.890000	21.783693
9.900000	-367.501292
9.910000	-377.773935
9.920000	-381.556553
9.930000	-383.322155
9.940000	-391.966148
9.950000	-411.817453
9.960000	-413.085030
9.970000	-421.236675
9.980000	-421.236675
9.990000	-421.236675
10.000000	-395.523162
10.010000	-388.046202
10.020000	-380.563567
10.030000	-369.615360
10.040000	-362.017976
10.050000	-323.627098
10.060000	-300.704734
10.070000	-274.471702
10.080000	-251.472550
10.090000	-203.231622
10.100000	-203.231622
10.110000	-203.231622
10.120000	-208.253075
10.130000	-268.506975
10.140000	-332.663464
10.150000	-347.625548
10.160000	-357.351862
10.170000	-364.642500
10.180000	-364.642500
10.190000	-364.642500
10.200000	-355.585265
10.210000	-346.066329
10.220000	-335.917795
10.230000	-334.616512
10.240000	-334.616512
10.250000	-334.616512
10.260000	-346.119344
10.270000	-346.119344
10.280000	-346.119344
10.290000	-350.704359
10.300000	-351.761261
10.310000	-344.670003
10.320000	-339.880703
10.330000	-321.522472
10.340000	-295.767771
10.350000	-268.397494
10.360000	-222.756020
10.370000	-205.456965
10.380000	-166.489498
10.390000	-122.710647
10.400000	-91.234175
10.410000	-63.905359
10.420000	-35.998637
10.430000	0.899757
10.440000	39.182661
10.450000	59.662894
10.460000	70.428764
10.470000	70.428764
10.480000	70.428764
10.490000	21.395509
10.500000	-65.516224
10.510000	-149.605672
10.520000	-211.534211
10.530000	-248.662381
10.540000	-270.595429
10.550000	-283.719784
10.560000	-286.734552
10.570000	-286.734552
10.580000	-286.734552
10.590000	-268.821652
10.600000	-251.911110
10.610000	-251.911110
10.620000	-251.911110
10.630000	-252.145606
10.640000	-272.813689
10.650000	-275.293825
10.660000	-290.952772
10.670000	-290.952772
10.680000	-290.952772
10.690000	-286.522696
10.700000	-280.103269
10.710000	-258.680721
10.720000	-231.221384
10.730000	-212.863766
10.740000	-187.260993
10.750000	-145.073929
10.760000	-123.436013
10.770000	-116.172814
10.780000	-86.534622
10.790000	-69.476103
10.800000	-46.493764
10.810000	-13.827139
10.820000	-8.572271
10.830000	15.042381
10.840000	39.049436
10.850000	39.049436
10.860000	39.049436
10.870000	-29.460866
10.880000	-120.946020
10.890000	-204.755986
10.900000	-280.029602
10.910000	-324.999888
10.920000	-361.238313
10.930000	-382.445220
10.940000	-383.175233
10.950000	-383.175233
10.960000	-382.445220
10.970000	-375.544749
10.980000	-356.069091
10.990000	-356.069091
11.000000	-356.069091
11.010000	-365.545994
11.020000	-390.972541
11.030000	-415.494784
11.040000	-416.418818
11.050000	-416.418818
11.060000	-416.418818
11.070000	-409.577628
11.080000	-399.357442
11.090000	-387.500500
11.100000	-387.500500
11.110000	-387.500500
11.120000	-391.261796
11.130000	-391.261796
11.140000	-391.261796
11.150000	-381.606402
11.160000	-381.158521
11.170000	-358.765233
11.180000	-328.545417
11.190000	-311.946529
11.200000	-311.946529
11.210000	-311.946529
11.220000	-328.176984
11.230000	-331.744097
11.240000	-331.744097
11.250000	-331.744097
11.260000	-317.175633
11.270000	-312.375506
11.280000	-297.470387
11.290000	-295.667324
11.300000	-286.645917
11.310000	-272.019517
11.320000	-260.841820
11.330000	-225.270110
11.340000	-201.212356
11.350000	-173.379423
11.360000	-143.629122
11.370000	-120.506032
11.380000	-74.941305
11.390000	-55.845335
11.400000	-8.968463
11.410000	18.538754
11.420000	41.175808
11.430000	83.954024
11.440000	111.155801
11.450000	135.505069
11.460000	180.167405
11.470000	180.167405
11.480000	180.167405
11.490000	172.500233
11.500000	95.046224
11.510000	1.186090
11.520000	-84.049976
11.530000	-148.158104
11.540000	-196.330187
11.550000	-202.206365
11.560000	-213.723251
11.570000	-234.213207
11.580000	-241.244708
11.590000	-241.272559
11.600000	-241.272559
11.610000	-241.272559
11.620000	-232.403647
11.630000	-225.988395
11.640000	-223.168129
11.650000	-220.692039
11.660000	-220.296006
11.670000	-208.233282
11.680000	-203.214183
11.690000	-202.063842
11.700000	-185.610379
11.710000	-174.279482
11.720000	-141.822466
11.730000	-128.522079
11.740000	-99.820177
11.750000	-56.853669
11.760000	-33.899636
11.770000	-0.999328
11.780000	38.940368
11.790000	43.757154
11.800000	56.023289
11.810000	95.461294
11.820000	122.955251
11.830000	143.296902
11.840000	181.955105
11.850000	223.030215
11.860000	266.008769
11.870000	300.748859
11.880000	323.090863
11.890000	365.580537
11.900000	390.993768
11.910000	421.588243
11.920000	451.833223
11.930000	451.833223
11.940000	451.833223
11.950000	415.531932
11.960000	316.728240
11.970000	230.562935
11.980000	148.618075
11.990000	98.707759
12.000000	75.431185
12.010000	58.827288
12.020000	58.827288
12.030000	58.827288
12.040000	60.115379
12.050000	84.263203
12.060000	150.016116
12.070000	242.401044
12.080000	356.961784
12.090000	515.627592
12.100000	625.977859
12.110000	625.977859
12.120000	625.977859
12.130000	616.076795
12.140000	614.532553
12.150000	565.582205
12.160000	489.313063
12.170000	378.028958
12.180000	280.265832
12.190000	199.369563
12.200000	142.246505
12.210000	93.667649
12.220000	93.667649
12.230000	93.667649
12.240000	102.170756
12.250000	103.285319
12.260000	139.744839
12.270000	201.116003
12.280000	318.452197
12.290000	462.801353
12.300000	612.198366
12.310000	801.662982
12.320000	1010.812273
12.330000	1207.512377
12.340000	1314.321914
12.350000	1353.656337
12.360000	1353.656337
12.370000	1353.656337
12.380000	1328.171449
12.390000	1187.149908
12.400000	1060.835518
12.410000	879.009007
12.420000	711.906313
12.430000	586.771044
12.440000	360.530400
12.450000	251.546923
12.460000	203.421014
12.470000	144.301592
12.480000	108.624829
12.490000	108.624829
12.500000	108.624829
12.510000	205.636855
12.520000	357.096126
12.530000	464.274068
12.540000	606.669716
12.550000	730.566961
12.560000	730.566961
12.570000	730.566961
12.580000	721.900303
12.590000	698.487875
12.600000	661.713149
12.610000	602.794899
12.620000	562.684307
12.630000	536.999134
12.640000	513.656037
12.650000	456.158037
12.660000	410.877088
12.670000	309.106662
12.680000	309.106662
12.690000	309.106662
12.700000	322.296917
12.710000	328.963735
12.720000	349.321463
12.730000	354.189999
12.740000	410.055077
12.750000	447.713641
12.760000	536.189864
12.770000	600.864244
12.780000	600.864244
12.790000	600.864244
12.800000	26.966523
12.810000	-25.288646
12.820000	-88.127075
12.830000	-88.127075
12.840000	-90.629480
12.850000	-88.127075
12.860000	-74.141028
12.870000	-44.022830
12.880000	-7.881825
12.890000	73.478432
12.900000	583.418617
12.910000	583.418617
12.920000	583.418617
12.930000	358.455691
12.940000	272.325597
12.950000	237.559728
12.960000	233.199061
12.970000	233.199061
12.980000	233.199061
12.990000	279.592727
13.000000	304.683624
13.010000	331.162071
13.020000	353.109742
13.030000	393.831735
13.040000	401.349065
13.050000	452.876136
13.060000	476.074585
13.070000	476.074585
13.080000	476.074585
13.090000	476.074585
13.100000	476.074585
13.110000	498.055831
13.120000	534.474808
13.130000	568.552306
13.140000	598.219339
13.150000	622.069546
13.160000	627.953196
13.170000	627.953196
13.180000	627.953196
13.190000	559.906756
13.200000	476.578241
13.210000	384.975627
13.220000	311.978080
13.230000	276.039297
13.240000	270.326265
13.250000	265.800064
13.260000	265.800064
13.270000	265.800064
13.280000	274.398770
13.290000	306.945800
13.300000	323.916142
13.310000	331.388229
13.320000	331.388229
13.330000	331.388229
13.340000	312.712257
13.350000	288.164795
13.360000	280.550674
13.370000	280.550674
13.380000	285.509410
13.390000	285.509410
13.400000	289.537155
13.410000	292.673178
13.420000	311.098419
13.430000	326.785333
13.440000	339.740494
13.450000	372.975090
13.460000	397.253306
13.470000	405.239048
13.480000	405.239048
13.490000	405.239048
13.500000	344.496570
13.510000	215.852612
13.520000	113.825591
13.530000	57.453118
13.540000	14.025183
13.550000	0.158869
13.560000	-0.801034
13.570000	-0.801034
13.580000	0.158869
13.590000	32.395761
13.600000	40.133859
13.610000	40.133859
13.620000	40.133859
13.630000	20.745121
13.640000	-5.380063
13.650000	-21.666562
13.660000	-43.985335
13.670000	-56.982403
13.680000	-67.642082
13.690000	-67.642082
13.700000	-67.642082
13.710000	-53.661050
13.720000	-45.798564
13.730000	-30.947164
13.740000	2.621407
13.750000	15.635120
13.760000	36.234807
13.770000	70.163964
13.780000	99.791886
13.790000	116.725859
13.800000	149.457747
13.810000	161.115502
13.820000	174.294013
13.830000	196.470495
13.840000	214.079151
13.850000	231.882293
13.860000	250.860160
13.870000	250.860160
13.880000	250.860160
13.890000	246.676308
13.900000	163.342479
13.910000	52.300454
13.920000	-40.933388
13.930000	-136.250268
13.940000	-200.057795
13.950000	-224.868342
13.960000	-247.299207
13.970000	-265.376502
13.980000	-278.540797
13.990000	-293.902232
14.000000	-387.229382
14.010000	-389.222337
14.020000	-389.222337
14.030000	-387.229382
14.040000	-349.258771
14.050000	-337.115732
14.060000	-316.996117
14.070000	-309.161214
14.080000	-285.599187
14.090000	-275.361924
14.100000	-249.040376
14.110000	-234.719419
14.120000	-215.356676
14.130000	-174.076611
14.140000	-171.886307
14.150000	-147.096408
14.160000	-136.686720
14.170000	-122.966005
14.180000	-101.523744
14.190000	-101.523744
14.200000	-101.523744
14.210000	-143.030436
14.220000	-218.715446
14.230000	-308.342458
14.240000	-380.039091
14.250000	-446.779002
14.260000	-467.215060
14.270000	-474.421636
14.280000	-491.365114
14.290000	-491.365114
14.300000	-491.365114
14.310000	-468.296205
14.320000	-448.132466
14.330000	-448.132466
14.340000	-448.132466
14.350000	-453.838759
14.360000	-484.113574
14.370000	-511.999531
14.380000	-513.643759
14.390000	-520.025675
14.400000	-520.025675
14.410000	-520.025675
14.420000	-513.242887
14.430000	-493.390124
14.440000	-471.415357
14.450000	-445.997296
14.460000	-432.638327
14.470000	-394.465013
14.480000	-358.040030
14.490000	-332.890544
14.500000	-302.374560
14.510000	-275.391023
14.520000	-247.677836
14.530000	-237.959623
14.540000	-190.782450
14.550000	-151.811117
14.560000	-143.829473
14.570000	-122.483552
14.580000	-122.483552
14.590000	-122.483552
14.600000	-128.088000
14.610000	-223.060605
14.620000	-314.059653
14.630000	-393.944425
14.640000	-480.104601
14.650000	-486.550304
14.660000	-522.692307
14.670000	-548.752574
14.680000	-550.040479
14.690000	-552.361511
14.700000	-552.361511
14.710000	-550.040479
14.720000	-537.705813
14.730000	-537.705813
14.740000	-537.705813
14.750000	-551.404235
14.760000	-557.560363
14.770000	-562.946619
14.780000	-562.946619
14.790000	-562.946619
14.800000	-540.797144
14.810000	-539.499401
14.820000	-526.151960
14.830000	-510.175285
14.840000	-489.482047
14.850000	-460.854955
14.860000	-445.887176
14.870000	-416.404840
14.880000	-386.415065
14.890000	-346.898389
14.900000	-320.035554
14.910000	-297.314540
14.920000	-253.617328
14.930000	-212.872285
14.940000	-197.201015
14.950000	-172.281868
14.960000	-147.912729
14.970000	-133.697753
14.980000	-98.519416
14.990000	-98.519416
15.000000	-98.519416
15.010000	-103.798436
15.020000	-185.762620
15.030000	-291.268075
15.040000	-377.323477
15.050000	-441.856787
15.060000	-507.960114
15.070000	-534.275120
15.080000	-534.601220
15.090000	-534.601220
15.100000	-534.601220
15.110000	-531.190050
15.120000	-519.097535
15.130000	-514.947078
15.140000	-501.507237
15.150000	-458.702617
15.160000	-451.155836
15.170000	-429.150323
15.180000	-397.961622
15.190000	-378.647461
15.200000	-349.656400
15.210000	-328.257174
15.220000	-304.281701
15.230000	-270.881813
15.240000	-238.961492
15.250000	-209.484807
15.260000	-178.633727
15.270000	-152.119472
15.280000	-130.296666
15.290000	-110.751869
15.300000	-77.928758
15.310000	-63.519202
15.320000	-45.418175
15.330000	-38.009877
15.340000	-38.009877
15.350000	-38.009877
15.360000	-90.560622
15.370000	-174.009769
15.380000	-290.913905
15.390000	-353.766775
15.400000	-397.608160
15.410000	-435.467628
15.420000	-473.287157
15.430000	-479.068389
15.440000	-479.068389
15.450000	-479.068389
15.460000	-476.104240
15.470000	-471.031863
15.480000	-471.031863
15.490000	-471.031863
15.500000	-485.748483
15.510000	-491.058644
15.520000	-504.832682
15.530000	-506.686545
15.540000	-508.070237
15.550000	-508.070237
15.560000	-506.686545
15.570000	-496.855779
15.580000	-495.378358
15.590000	-460.848342
15.600000	-225.344849
15.610000	-188.401364
15.620000	-173.731560
15.630000	-145.341308
15.640000	-129.290151
15.650000	-97.132840
15.660000	-87.829148
15.670000	-87.829148
15.680000	-87.829148
15.690000	-155.448824
15.700000	-367.924836
15.710000	-368.511548
15.720000	-374.823319
15.730000	-379.912927
15.740000	-379.912927
15.750000	-379.912927
15.760000	-379.062421
15.770000	-367.114164
15.780000	-366.285861
15.790000	-365.619800
15.800000	-348.171025
15.810000	-328.026226
15.820000	-309.200948
15.830000	-256.322732
15.840000	-241.524216
15.850000	-207.260954
15.860000	-182.081638
15.870000	-159.099350
15.880000	-115.592877
15.890000	-87.094856
15.900000	347.152205
15.910000	785.654545
15.920000	986.338624
15.930000	1087.452198
15.940000	1141.292836
15.950000	1159.141239
15.960000	1159.141239
15.970000	1159.141239
15.980000	1025.159682
15.990000	917.374100
16.000000	446.500813
16.010000	120.066945
16.020000	78.839751
16.030000	17.539967
16.040000	17.539967
16.050000	17.539967
16.060000	137.071733
16.070000	139.775426
16.080000	162.597705
16.090000	164.343976
16.100000	259.285486
16.110000	450.842737
16.120000	581.315977
16.130000	745.783833
16.140000	975.176990
16.150000	1155.333247
16.160000	1155.333247
16.170000	1155.333247
16.180000	1029.360589
16.190000	826.642078
16.200000	552.491488
16.210000	309.560258
16.220000	181.577915
16.230000	123.131309
16.240000	18.478823
16.250000	18.478823
16.260000	-14.221231
16.270000	-14.221231
16.280000	-6.721802
16.290000	28.815665
16.300000	200.180911
16.310000	200.180911
16.320000	200.180911
16.330000	149.517943
16.340000	125.125006
16.350000	122.548528
16.360000	122.548528
16.370000	149.517943
16.380000	198.606450
16.390000	322.455776
16.400000	363.433707
16.410000	379.718449
16.420000	396.178296
16.430000	472.084487
16.440000	623.813999
16.450000	790.246651
16.460000	937.533629
16.470000	1179.824369
16.480000	1464.805160
16.490000	1652.169545
16.500000	1652.169545
16.510000	1652.169545
16.520000	1582.792536
16.530000	1411.461791
16.540000	1172.117326
16.550000	858.175982
16.560000	542.669890
16.570000	414.216702
16.580000	356.393657
16.590000	292.375149
16.600000	258.436984
16.610000	201.187049
16.620000	201.187049
16.630000	171.269404
16.640000	171.269404
16.650000	165.249521
16.660000	145.151415
16.670000	145.151415
16.680000	145.151415
16.690000	190.527683
16.700000	340.472992
16.710000	438.577762
16.720000	573.871948
16.730000	842.655916
16.740000	998.337157
16.750000	1027.185119
16.760000	1027.185119
16.770000	1027.185119
16.780000	962.261623
16.790000	769.994319
16.800000	528.935210
16.810000	419.949484
16.820000	419.949484
16.830000	408.731779
16.840000	418.357448
16.850000	419.949484
16.860000	459.417014
16.870000	464.040830
16.880000	481.680529
16.890000	482.248303
16.900000	482.248303
16.910000	481.680529
16.920000	467.759323
16.930000	394.626665
16.940000	313.741212
16.950000	209.967271
16.960000	140.928260
16.970000	135.233349
16.980000	135.233349
16.990000	135.233349
17.000000	228.393101
17.010000	295.535693
17.020000	296.180558
17.030000	326.414266
17.040000	356.626798
17.050000	356.626798
17.060000	356.626798
17.070000	348.138422
17.080000	295.863225
17.090000	267.922923
17.100000	237.431516
17.110000	228.851250
17.120000	222.882222
17.130000	215.529923
17.140000	215.529923
17.150000	215.529923
17.160000	221.194202
17.170000	249.345339
17.180000	262.200711
17.190000	268.736737
17.200000	286.483375
17.210000	297.288207
17.220000	303.797338
17.230000	307.552256
17.240000	310.325290
17.250000	315.930588
17.260000	336.732418
17.270000	336.732418
17.280000	336.732418
17.290000	328.146711
17.300000	275.846208
17.310000	200.557082
17.320000	98.869921
17.330000	31.140987
17.340000	-22.328064
17.350000	-29.134050
17.360000	-42.764218
17.370000	-61.259285
17.380000	-61.259285
17.390000	-61.259285
17.400000	-47.456356
17.410000	-33.749663
17.420000	-33.749663
17.430000	-33.749663
17.440000	-46.599601
17.450000	-121.780831
17.460000	-166.913750
17.470000	-166.913750
17.480000	-166.913750
17.490000	-141.062197
17.500000	-114.829461
17.510000	-89.508692
17.520000	-65.013094
17.530000	-45.974116
17.540000	-26.173109
17.550000	-5.462606
17.560000	24.888489
17.570000	26.688794
17.580000	26.688794
17.590000	24.888489
17.600000	-9.097096
17.610000	-96.400989
17.620000	-148.528824
17.630000	-191.749055
17.640000	-210.854931
17.650000	-245.255632
17.660000	-247.952425
17.670000	-251.917667
17.680000	-265.837305
17.690000	-266.029535
17.700000	-280.324188
17.710000	-280.324188
17.720000	-280.324188
17.730000	-245.693424
17.740000	-229.950082
17.750000	-192.777539
17.760000	-183.833818
17.770000	-171.649745
17.780000	-142.778155
17.790000	-110.606947
17.800000	-79.709764
17.810000	-73.627914
17.820000	-41.973276
17.830000	-40.445981
17.840000	-11.842379
17.850000	-11.842379
17.860000	-11.842379
17.870000	-23.123891
17.880000	-103.667179
17.890000	-189.688783
17.900000	-274.084076
17.910000	-338.235579
17.920000	-367.525667
17.930000	-398.937990
17.940000	-418.842311
17.950000	-422.679563
17.960000	-424.577910
17.970000	-424.577910
17.980000	-431.243009
17.990000	-442.372685
18.000000	-436.877878
18.010000	-436.877878
18.020000	-436.877878
18.030000	-434.971615
18.040000	-400.742135
18.050000	-377.448555
18.060000	-356.479951
18.070000	-336.962915
18.080000	-308.207115
18.090000	-281.554241
18.100000	-264.941520
18.110000	-235.076521
18.120000	-212.814043
18.130000	-190.537599
18.140000	-190.537599
18.150000	-190.537599
18.160000	-233.645166
18.170000	-309.510409
18.180000	-389.620046
18.190000	-441.906683
18.200000	-481.743117
18.210000	-501.257127
18.220000	-501.257127
18.230000	-501.257127
18.240000	-501.136541
18.250000	-496.000127
18.260000	-460.234883
18.270000	-445.267660
18.280000	-438.630409
18.290000	-438.630409
18.300000	-443.262316
18.310000	-443.262316
18.320000	-448.359633
18.330000	-448.359633
18.340000	-448.359633
18.350000	-441.207027
18.360000	-439.045974
18.370000	-418.816862
18.380000	-412.340607
18.390000	-368.217823
18.400000	-111.654292
18.410000	-111.654292
18.420000	-111.654292
18.430000	-187.755339
18.440000	-286.197237
18.450000	-366.056280
18.460000	-422.860431
18.470000	-436.334004
18.480000	-436.334004
18.490000	-436.334004
18.500000	-262.258838
18.510000	-209.983682
18.520000	-198.403413
18.530000	-163.782852
18.540000	-122.789339
18.550000	-88.592975
18.560000	-69.181630
18.570000	-39.995392
18.580000	-39.995392
18.590000	-39.995392
18.600000	-148.150221
18.610000	-148.150221
18.620000	-148.150221
18.630000	-119.236533
18.640000	-67.620470
18.650000	-53.298579
18.660000	-35.835831
18.670000	-35.835831
18.680000	-35.835831
18.690000	-65.753489
18.700000	-134.222862
18.710000	-228.190642
18.720000	-321.227967
18.730000	-367.595928
18.740000	-404.482033
18.750000	-418.884591
18.760000	-435.861883
18.770000	-438.078084
18.780000	-438.078084
18.790000	-438.078084
18.800000	-423.864162
18.810000	-423.820219
18.820000	-420.665660
18.830000	-420.665660
18.840000	-423.820219
18.850000	-426.334745
18.860000	-446.319025
18.870000	-446.319025
18.880000	-446.319025
18.890000	-434.461085
18.900000	-433.528703
18.910000	-415.092819
18.920000	-399.894702
18.930000	-385.682651
18.940000	-363.262860
18.950000	-343.348357
18.960000	-308.575071
18.970000	-289.165902
18.980000	-248.725415
18.990000	-222.200465
19.000000	-200.776597
19.010000	-200.323819
19.020000	-155.626025
19.030000	-136.839897
19.040000	-94.166856
19.050000	-79.656535
19.060000	-39.437549
19.070000	-26.788205
19.080000	-26.788205
19.090000	-26.788205
19.100000	-302.467498
19.110000	-302.467498
19.120000	-302.467498
19.130000	-302.467498
19.140000	-301.742507
19.150000	-301.742507
19.160000	-301.742507
19.170000	-301.742507
19.180000	-301.650172
19.190000	-300.675349
19.200000	-294.422625
19.210000	-281.440095
19.220000	-252.442688
19.230000	-246.176291
19.240000	-228.577673
19.250000	-222.794259
19.260000	-188.738982
19.270000	-162.391551
19.280000	-130.785368
19.290000	-117.107579
19.300000	-83.683953
19.310000	-43.983357
19.320000	-20.626879
19.330000	8.243907
19.340000	35.331069
19.350000	57.463540
19.360000	57.463540
19.370000	57.463540
19.380000	47.394501
19.390000	-17.465636
19.400000	-101.482922
19.410000	-162.397994
19.420000	-210.523155
19.430000	-218.244523
19.440000	-224.154275
19.450000	-225.674551
19.460000	-225.674551
19.470000	-224.154275
19.480000	-203.316108
19.490000	-183.656634
19.500000	-177.396070
19.510000	-177.396070
19.520000	-177.396070
19.530000	-186.900286
19.540000	-186.900286
19.550000	-186.900286
19.560000	-183.231345
19.570000	-173.578593
19.580000	-165.999438
19.590000	-141.968057
19.600000	-139.998528
19.610000	-122.171150
19.620000	-90.116009
19.630000	-76.418256
19.640000	-51.113983
19.650000	-7.746231
19.660000	9.733391
19.670000	31.112227
19.680000	77.541051
19.690000	103.772428
19.700000	135.527847
19.710000	197.413885
19.720000	226.257971
19.730000	290.401075
19.740000	369.729771
19.750000	449.387425
19.760000	466.544126
19.770000	466.544126
19.780000	466.544126
19.790000	411.621433
19.800000	409.852629
19.810000	409.852629
19.820000	409.852629
19.830000	520.287865
19.840000	611.584421
19.850000	653.158424
19.860000	653.158424
19.870000	653.158424
19.880000	569.933126
19.890000	334.234282
19.900000	123.624850
19.910000	58.138063
19.920000	-0.406649
19.930000	-59.613491
19.940000	-224.720231
19.950000	-252.625986
19.960000	-316.597887
19.970000	-316.597887
19.980000	-288.368452
19.990000	-252.625986
20.000000	500.734122
20.010000	520.906848
20.020000	520.906848
20.030000	535.645879
20.040000	535.645879
20.050000	513.495640
20.060000	409.566170
20.070000	400.806602
20.080000	347.525460
20.090000	347.525460
20.100000	336.334374
20.110000	283.217381
20.120000	226.865195
20.130000	153.617640
20.140000	153.617640
20.150000	153.617640
20.160000	196.726315
20.170000	233.747176
20.180000	338.224151
20.190000	372.100754
20.200000	372.100754
20.210000	372.100754
20.220000	365.789799
20.230000	361.367397
20.240000	295.257035
20.250000	185.812471
20.260000	145.503327
20.270000	140.317333
20.280000	-39.259692
20.290000	-55.871438
20.300000	-90.268690
20.310000	-108.394079
20.320000	-159.780883
20.330000	-178.688088
20.340000	-178.688088
20.350000	-178.688088
20.360000	-164.961175
20.370000	-149.171868
20.380000	-118.026521
20.390000	-63.450960
20.400000	100.108109
20.410000	195.535691
20.420000	314.969452
20.430000	490.344188
20.440000	585.355919
20.450000	588.851804
20.460000	588.851804
20.470000	588.851804
20.480000	578.070294
20.490000	507.907060
20.500000	476.604070
20.510000	455.775009
20.520000	452.221636
20.530000	428.508579
20.540000	239.530572
20.550000	213.529297
20.560000	207.532319
20.570000	39.429525
20.580000	-94.439524
20.590000	-177.176161
20.600000	-189.354562
20.610000	-189.354562
20.620000	-189.354562
20.630000	-124.630553
20.640000	-24.369740
20.650000	53.522543
20.660000	172.936309
20.670000	210.993600
20.680000	210.993600
20.690000	210.993600
20.700000	93.143123
20.710000	21.562739
20.720000	-3.221310
20.730000	-41.047437
20.740000	-114.211354
20.750000	-142.352317
20.760000	-164.709409
20.770000	-164.709409
20.780000	-183.265930
20.790000	-191.475889
20.800000	-191.475889
20.810000	-191.475889
20.820000	-184.360561
20.830000	-149.099148
20.840000	-135.206407
20.850000	-104.122520
20.860000	-65.197771
20.870000	3.927247
20.880000	38.557786
20.890000	78.249344
20.900000	116.171918
20.910000	120.488711
20.920000	124.952122
20.930000	144.662751
20.940000	189.704425
20.950000	199.629580
20.960000	199.629580
20.970000	199.629580
20.980000	119.483648
20.990000	32.577465
21.000000	-62.655222
21.010000	-127.378012
21.020000	-164.924278
21.030000	-187.371903
21.040000	-202.195120
21.050000	-207.429362
21.060000	-209.742986
21.070000	-209.742986
21.080000	-207.429362
21.090000	-202.380741
21.100000	-202.380741
21.110000	-202.380741
21.120000	-206.483729
21.130000	-237.450138
21.140000	-248.687839
21.150000	-248.687839
21.160000	-248.687839
21.170000	-244.021308
21.180000	-239.955020
21.190000	-229.347596
21.200000	-209.098661
21.210000	-208.778399
21.220000	-195.084409
21.230000	-153.274976
21.240000	-134.265290
21.250000	-104.554506
21.260000	-97.645010
21.270000	-62.616975
21.280000	-44.302534
21.290000	-25.523944
21.300000	-5.018587
21.310000	10.532451
21.320000	10.532451
21.330000	10.532451
21.340000	3.747678
21.350000	-67.786324
21.360000	-142.627964
21.370000	-222.144650
21.380000	-285.958701
21.390000	-309.417395
21.400000	-309.506296
21.410000	-322.533952
21.420000	-322.533952
21.430000	-322.533952
21.440000	-315.217247
21.450000	-306.931686
21.460000	-290.769169
21.470000	-290.769169
21.480000	-290.769169
21.490000	-295.217912
21.500000	-300.081056
21.510000	-300.081056
21.520000	-300.081056
21.530000	-296.775785
21.540000	-274.314377
21.550000	-273.499118
21.560000	-258.502519
21.570000	-222.316096
21.580000	-189.792624
21.590000	-188.153997
21.600000	-150.839528
21.610000	-123.313924
21.620000	-90.735092
21.630000	-86.620932
21.640000	-33.339590
21.650000	-18.395671
21.660000	16.710680
21.670000	16.710680
21.680000	16.710680
21.690000	0.885497
21.700000	-346.424743
21.710000	-346.424743
21.720000	-346.424743
21.730000	-340.581945
21.740000	-339.683924
21.750000	-339.683924
21.760000	-339.683924
21.770000	-351.182730
21.780000	-365.530588
21.790000	-372.202053
21.800000	-372.202053
21.810000	-372.202053
21.820000	-352.958386
21.830000	-346.512670
21.840000	-336.367861
21.850000	-309.550479
21.860000	-302.282674
21.870000	-292.011791
21.880000	-268.243471
21.890000	-227.505174
21.900000	-181.257988
21.910000	-80.846061
21.920000	-6.101916
21.930000	4.708616
21.940000	4.708616
21.950000	4.708616
21.960000	4.708616
21.970000	15.795302
21.980000	15.795302
21.990000	15.795302
22.000000	-54.453994
22.010000	-153.548019
22.020000	-250.648126
22.030000	-319.916656
22.040000	-372.956585
22.050000	-409.263443
22.060000	-448.331283
22.070000	-454.469880
22.080000	-473.868177
22.090000	-473.868177
22.100000	-473.868177
22.110000	-459.989041
22.120000	-459.989041
22.130000	-459.778281
22.140000	-459.989041
22.150000	-467.434157
22.160000	-504.239244
22.170000	-504.494223
22.180000	-504.494223
22.190000	-504.494223
22.200000	-43.253663
22.210000	-43.253663
22.220000	-43.253663
22.230000	-109.180487
22.240000	-228.175358
22.250000	-305.861469
22.260000	-376.459177
22.270000	-407.367704
22.280000	-459.007126
22.290000	-459.519122
22.300000	-491.271615
22.310000	-491.271615
22.320000	-491.271615
22.330000	-478.892118
22.340000	-478.892118
22.350000	-478.892118
22.360000	-507.038128
22.370000	-527.930622
22.380000	-536.536139
22.390000	-553.838846
22.400000	-555.003849
22.410000	-555.003849
22.420000	-553.838846
22.430000	-543.355729
22.440000	-534.064365
22.450000	-523.560260
22.460000	-502.953779
22.470000	-470.954816
22.480000	-444.632957
22.490000	-427.316608
22.500000	-408.278296
22.510000	-364.649607
22.520000	-347.130033
22.530000	-321.754188
22.540000	-303.119050
22.550000	-268.760656
22.560000	-245.246188
22.570000	-209.634373
22.580000	-186.506851
22.590000	-170.428415
22.600000	-147.747486
22.610000	-138.316786
22.620000	-114.860753
22.630000	-83.298169
22.640000	-70.031886
22.650000	-58.059876
22.660000	-58.059876
22.670000	-58.059876
22.680000	-130.294230
22.690000	-212.232857
22.700000	-314.234370
22.710000	-377.215057
22.720000	-410.361729
22.730000	-456.288534
22.740000	-479.273153
22.750000	-486.478777
22.760000	-496.354311
22.770000	-496.354311
22.780000	-507.409437
22.790000	-499.432783
22.800000	-499.432783
22.810000	-507.409437
22.820000	-514.669708
22.830000	-539.829612
22.840000	-543.209878
22.850000	-543.209878
22.860000	-539.829612
22.870000	-539.277230
22.880000	-515.785661
22.890000	-515.467445
22.900000	-509.551445
22.910000	-489.708420
22.920000	-480.401612
22.930000	-458.813546
22.940000	-444.361484
22.950000	-414.797631
22.960000	-400.458866
22.970000	-377.626014
22.980000	-339.595433
22.990000	-322.564358
23.000000	-310.580574
23.010000	-297.521182
23.020000	-279.563189
23.030000	-250.462182
23.040000	-213.562637
23.050000	-177.407625
23.060000	-153.560211
23.070000	-122.256523
23.080000	-81.596007
23.090000	-81.596007
23.100000	-81.596007
23.110000	-98.034011
23.120000	-157.528077
23.130000	-218.885061
23.140000	-287.509644
23.150000	-316.579452
23.160000	-335.687537
23.170000	-347.724775
23.180000	-347.724775
23.190000	-347.724775
23.200000	-344.121031
23.210000	-302.050529
23.220000	-289.157013
23.230000	-288.339939
23.240000	-288.339939
23.250000	-288.610029
23.260000	-288.610029
23.270000	-288.610029
23.280000	-288.610029
23.290000	-281.741412
23.300000	-136.821389
23.310000	-136.821389
23.320000	-129.044842
23.330000	-129.044842
23.340000	-102.563742
23.350000	-98.229200
23.360000	-98.229200
23.370000	-98.229200
23.380000	-123.002902
23.390000	-126.725836
23.400000	-141.215411
23.410000	-143.921163
23.420000	-143.921163
23.430000	-141.215411
23.440000	-137.340543
23.450000	-106.094024
23.460000	-92.068945
23.470000	-91.552273
23.480000	-82.674573
23.490000	-56.066632
23.500000	-32.847372
23.510000	-14.986614
23.520000	24.085133
23.530000	42.933934
23.540000	60.210357
23.550000	77.836616
23.560000	115.391014
23.570000	130.453914
23.580000	130.453914
23.590000	115.391014
23.600000	-79.294354
23.610000	-119.508104
23.620000	-125.443541
23.630000	-129.154476
23.640000	-129.154476
23.650000	-129.763485
23.660000	-129.898651
23.670000	-129.898651
23.680000	-129.898651
23.690000	-140.797214
23.700000	-155.355300
23.710000	-162.786567
23.720000	-166.817158
23.730000	-176.701130
23.740000	-177.601368
23.750000	-177.758966
23.760000	-177.601368
23.770000	-176.701130
23.780000	-160.902961
23.790000	-159.873894
23.800000	-157.613218
23.810000	-136.604484
23.820000	-127.100835
23.830000	-103.360584
23.840000	-71.355423
23.850000	-46.101696
23.860000	-27.528340
23.870000	5.255012
23.880000	32.227422
23.890000	61.731071
23.900000	101.022056
23.910000	136.191258
23.920000	178.929669
23.930000	228.660822
23.940000	304.936037
23.950000	489.344654
23.960000	717.585983
23.970000	974.207326
23.980000	1283.389857
23.990000	1489.621917
24.000000	1489.621917
24.010000	1489.621917
24.020000	1424.544550
24.030000	1293.214444
24.040000	1116.717247
24.050000	793.689475
24.060000	250.012747
24.070000	107.136507
24.080000	94.369379
24.090000	65.007525
24.100000	64.302492
24.110000	-14.875007
24.120000	-14.875007
24.130000	-16.780400
24.140000	-16.780400
24.150000	-14.875007
24.160000	-5.852806
24.170000	22.519774
24.180000	116.765457
24.190000	341.196712
24.200000	541.343578
24.210000	760.469498
24.220000	1000.862228
24.230000	1201.622119
24.240000	1259.317752
24.250000	1259.317752
24.260000	1259.317752
24.270000	1208.301662
24.280000	1055.625593
24.290000	864.435274
24.300000	754.040091
24.310000	618.004499
24.320000	496.307137
24.330000	486.886743
24.340000	468.842986
24.350000	370.936291
24.360000	370.936291
24.370000	370.936291
24.380000	412.132201
24.390000	447.614689
24.400000	479.246562
24.410000	567.512090
24.420000	656.831646
24.430000	705.233299
24.440000	705.233299
24.450000	684.385548
24.460000	656.831646
24.470000	582.714826
24.480000	481.210982
24.490000	459.425103
24.500000	319.333878
24.510000	170.038949
24.520000	155.613035
24.530000	130.918851
24.540000	121.070393
24.550000	118.681573
24.560000	94.346976
24.570000	-3.712798
24.580000	-8.379940
24.590000	-10.024464
24.600000	-30.458898
24.610000	-45.844794
24.620000	-45.844794
24.630000	-45.844794
24.640000	-21.980990
24.650000	47.612199
24.660000	225.091703
24.670000	400.659780
24.680000	554.474519
24.690000	739.971851
24.700000	813.105476
24.710000	813.105476
24.720000	813.105476
24.730000	754.796877
24.740000	647.354388
24.750000	599.564296
24.760000	596.641222
24.770000	582.731487
24.780000	580.468756
24.790000	532.916853
24.800000	532.916853
24.810000	532.916853
24.820000	536.292981
24.830000	536.292981
24.840000	536.292981
24.850000	534.320685
24.860000	453.110063
24.870000	452.478153
24.880000	452.478153
24.890000	452.478153
24.900000	498.354716
24.910000	631.906144
24.920000	808.846656
24.930000	847.487306
24.940000	847.487306
24.950000	847.487306
24.960000	822.840693
24.970000	764.837715
24.980000	645.854784
24.990000	487.389744
25.000000	392.158708
25.010000	280.507691
25.020000	191.856535
25.030000	138.618364
25.040000	79.473727
25.050000	24.938396
25.060000	-18.257424
25.070000	-18.257424
25.080000	-18.257424
25.090000	7.258177
25.100000	149.244965
25.110000	149.244965
25.120000	149.244965
25.130000	101.662691
25.140000	46.095507
25.150000	24.507848
25.160000	-13.239498
25.170000	-16.302178
25.180000	-22.751221
25.190000	-22.751221
25.200000	-22.751221
25.210000	-11.904604
25.220000	-11.904604
25.230000	-11.904604
25.240000	-34.118806
25.250000	-64.092296
25.260000	-65.264619
25.270000	-76.537590
25.280000	-85.702117
25.290000	-86.058735
25.300000	-86.058735
25.310000	-85.702117
25.320000	-85.161946
25.330000	-74.591264
25.340000	-49.467354
25.350000	-32.412142
25.360000	-26.651313
25.370000	6.951547
25.380000	20.995304
25.390000	57.629494
25.400000	104.560731
25.410000	125.309396
25.420000	152.384064
25.430000	164.911145
25.440000	205.450127
25.450000	239.369428
25.460000	256.652379
25.470000	314.079794
25.480000	331.303906
25.490000	331.303906
25.500000	331.303906
25.510000	274.563793
25.520000	204.990764
25.530000	129.063785
25.540000	53.747781
25.550000	6.689429
25.560000	-16.514358
25.570000	-34.655555
25.580000	-34.655555
25.590000	-34.655555
25.600000	-24.530676
25.610000	-8.479121
25.620000	-8.479121
25.630000	-8.479121
25.640000	-14.724690
25.650000	-41.532926
25.660000	-75.132788
25.670000	-77.886861
25.680000	-94.698460
25.690000	-96.083023
25.700000	-96.083023
25.710000	-96.083023
25.720000	-62.584999
25.730000	-53.323488
25.740000	-50.677122
25.750000	-25.462895
25.760000	12.192118
25.770000	48.456882
25.780000	66.121460
25.790000	91.565791
25.800000	122.040233
25.810000	135.691694
25.820000	159.161687
25.830000	181.784643
25.840000	206.389743
25.850000	225.919999
25.860000	247.726955
25.870000	260.069966
25.880000	268.094559
25.890000	271.544322
25.900000	288.312078
25.910000	306.091010
25.920000	306.091010
25.930000	306.091010
25.940000	289.078662
25.950000	214.323986
25.960000	128.548024
25.970000	50.123861
25.980000	38.199095
25.990000	15.619091
26.000000	4.191694
26.010000	4.124715
26.020000	4.124715
26.030000	4.124715
26.040000	13.277101
26.050000	25.464062
26.060000	25.464062
26.070000	25.464062
26.080000	17.443080
26.090000	1.389933
