Time(s)	RED_denoised_median
0.000000	-37.008015
0.010000	-37.008015
0.020000	-37.008015
0.030000	-19.284152
0.040000	-13.946108
0.050000	3.609044
0.060000	18.242718
0.070000	50.617645
0.080000	79.333302
0.090000	119.744699
0.100000	170.395426
0.110000	199.807225
0.120000	231.627097
0.130000	280.864376
0.140000	324.773631
0.150000	347.960487
0.160000	385.076595
0.170000	441.996739
0.180000	480.277218
0.190000	502.164332
0.200000	541.584632
0.210000	573.189093
0.220000	609.014895
0.230000	647.196021
0.240000	678.445311
0.250000	707.406278
0.260000	707.406278
0.270000	707.406278
0.280000	643.163448
0.290000	544.672517
0.300000	463.628905
0.310000	401.823400
0.320000	356.102645
0.330000	338.036733
0.340000	327.511520
0.350000	327.511520
0.360000	327.511520
0.370000	332.769702
0.380000	365.228795
0.390000	379.113208
0.400000	379.113208
0.410000	379.113208
0.420000	371.233363
0.430000	370.894728
0.440000	370.894728
0.450000	370.894728
0.460000	373.738522
0.470000	377.477860
0.480000	407.933700
0.490000	433.220994
0.500000	460.259657
0.510000	481.949927
0.520000	505.649733
0.530000	529.678548
0.540000	565.099422
0.550000	589.339494
0.560000	609.655843
0.570000	635.030066
0.580000	666.214636
0.590000	699.734082
0.600000	712.745370
0.610000	729.592910
0.620000	761.264696
0.630000	790.399216
0.640000	810.840201
0.650000	853.332332
0.660000	872.231407
0.670000	872.231407
0.680000	872.231407
0.690000	803.610063
0.700000	716.063833
0.710000	651.759642
0.720000	596.478707
0.730000	512.871407
0.740000	482.245208
0.750000	466.681442
0.760000	450.644291
0.770000	450.644291
0.780000	450.644291
0.790000	455.750196
0.800000	477.754268
0.810000	477.754268
0.820000	477.754268
0.830000	463.635561
0.840000	445.551548
0.850000	434.504086
0.860000	420.619252
0.870000	413.451556
0.880000	400.652351
0.890000	391.509150
0.900000	391.509150
0.910000	391.509150
0.920000	415.773403
0.930000	436.579191
0.940000	468.911532
0.950000	490.572370
0.960000	516.175984
0.970000	550.563868
0.980000	560.360571
0.990000	567.732958
1.000000	598.580388
1.010000	612.745529
1.020000	615.951057
1.030000	622.959069
1.040000	622.959069
1.050000	622.959069
1.060000	612.589136
1.070000	610.949805
1.080000	606.133463
1.090000	595.224504
1.100000	534.354411
1.110000	439.437630
1.120000	328.802797
1.130000	231.704573
1.140000	153.208437
1.150000	119.051869
1.160000	96.476873
1.170000	62.800026
1.180000	62.800026
1.190000	62.800026
1.200000	87.812780
1.210000	91.199927
1.220000	91.199927
1.230000	87.812780
1.240000	84.247933
1.250000	73.706516
1.260000	69.088856
1.270000	63.490939
1.280000	58.792145
1.290000	58.792145
1.300000	58.792145
1.310000	64.512562
1.320000	84.361024
1.330000	99.979018
1.340000	111.000549
1.350000	120.475958
1.360000	135.672628
1.370000	162.991361
1.380000	186.303540
1.390000	211.588064
1.400000	231.919458
1.410000	240.204622
1.420000	250.613959
1.430000	271.826142
1.440000	281.242462
1.450000	293.569893
1.460000	293.569893
1.470000	293.569893
1.480000	292.431684
1.490000	208.073364
1.500000	113.216564
1.510000	18.765890
1.520000	-56.959445
1.530000	-104.547453
1.540000	-130.159784
1.550000	-134.828415
1.560000	-134.828415
1.570000	-134.828415
1.580000	-117.628750
1.590000	-106.269181
1.600000	-106.269181
1.610000	-106.269181
1.620000	-117.648708
1.630000	-119.819564
1.640000	-123.882060
1.650000	-127.074287
1.660000	-131.152649
1.670000	-131.152649
1.680000	-131.152649
1.690000	-126.191954
1.700000	-111.271841
1.710000	-100.389407
1.720000	-97.308556
1.730000	-59.196870
1.740000	-33.824887
1.750000	-21.898192
1.760000	11.845238
1.770000	31.219391
1.780000	57.177265
1.790000	59.694219
1.800000	81.827788
1.810000	131.985436
1.820000	161.854597
1.830000	183.968133
1.840000	183.968133
1.850000	183.968133
1.860000	179.983191
1.870000	113.796359
1.880000	11.093215
1.890000	-73.104478
1.900000	-117.877096
1.910000	-155.137238
1.920000	-182.740828
1.930000	-192.139512
1.940000	-192.139512
1.950000	-192.139512
1.960000	-187.598528
1.970000	-162.939730
1.980000	-138.590202
1.990000	-134.747447
2.000000	-134.747447
2.010000	-134.747447
2.020000	-139.295267
2.030000	-148.703280
2.040000	-148.703280
2.050000	-148.703280
2.060000	-138.822781
2.070000	-117.605040
2.080000	-107.695790
2.090000	-90.382470
2.100000	-51.570874
2.110000	-30.295340
2.120000	-11.286454
2.130000	18.796724
2.140000	42.924657
2.150000	74.983680
2.160000	109.091324
2.170000	123.135787
2.180000	161.450088
2.190000	190.082354
2.200000	211.919378
2.210000	248.088235
2.220000	274.272942
2.230000	274.272942
2.240000	274.272942
2.250000	273.355991
2.260000	203.844066
2.270000	102.527540
2.280000	13.270931
2.290000	-63.411843
2.300000	-124.286741
2.310000	-153.308190
2.320000	-164.149066
2.330000	-164.149066
2.340000	-164.149066
2.350000	-160.786840
2.360000	-149.550192
2.370000	-132.666168
2.380000	-132.666168
2.390000	-132.666168
2.400000	-136.070906
2.410000	-142.589296
2.420000	-153.716961
2.430000	-164.821856
2.440000	-164.821856
2.450000	-164.821856
2.460000	-159.396732
2.470000	-153.611786
2.480000	-141.310206
2.490000	-107.099685
2.500000	-90.073511
2.510000	-67.643920
2.520000	-45.910535
2.530000	-18.147979
2.540000	15.237682
2.550000	31.290733
2.560000	74.575933
2.570000	91.464210
2.580000	112.148748
2.590000	139.567046
2.600000	162.687291
2.610000	209.781805
2.620000	228.006889
2.630000	228.006889
2.640000	228.006889
2.650000	190.619007
2.660000	119.643023
2.670000	32.839285
2.680000	-49.822519
2.690000	-116.961086
2.700000	-140.238683
2.710000	-150.922493
2.720000	-154.787872
2.730000	-154.787872
2.740000	-154.787872
2.750000	-131.454065
2.760000	-113.828194
2.770000	-111.441351
2.780000	-107.318859
2.790000	-107.318859
2.800000	-111.441351
2.810000	-125.703589
2.820000	-125.703589
2.830000	-125.703589
2.840000	-122.941967
2.850000	-103.189909
2.860000	-100.262535
2.870000	-86.058509
2.880000	-71.690274
2.890000	-42.856894
2.900000	-41.271563
2.910000	-16.401741
2.920000	-5.092784
2.930000	13.211009
2.940000	42.039055
2.950000	75.798409
2.960000	103.154714
2.970000	129.431031
2.980000	156.259586
2.990000	160.996208
3.000000	160.996208
3.010000	160.996208
3.020000	122.259245
3.030000	40.197674
3.040000	-57.043726
3.050000	-133.675974
3.060000	-182.426646
3.070000	-217.610665
3.080000	-239.453768
3.090000	-240.345986
3.100000	-240.345986
3.110000	-239.453768
3.120000	-227.808394
3.130000	-218.119470
3.140000	-202.383754
3.150000	-202.383754
3.160000	-202.383754
3.170000	-204.109575
3.180000	-215.268802
3.190000	-215.904467
3.200000	-215.904467
3.210000	-215.268802
3.220000	-200.070469
3.230000	-199.518317
3.240000	-189.601438
3.250000	-172.328621
3.260000	-142.661494
3.270000	-125.674970
3.280000	-125.674970
3.290000	-125.674970
3.300000	-305.468882
3.310000	-316.897200
3.320000	-316.897200
3.330000	-305.468882
3.340000	-283.387101
3.350000	-273.540148
3.360000	-235.980603
3.370000	-230.493303
3.380000	-196.247806
3.390000	-172.727037
3.400000	-145.371719
3.410000	-122.027528
3.420000	-92.451248
3.430000	-70.399312
3.440000	-49.480894
3.450000	-20.769661
3.460000	16.461336
3.470000	36.782470
3.480000	66.540018
3.490000	88.208273
3.500000	112.690878
3.510000	131.956623
3.520000	131.956623
3.530000	131.956623
3.540000	74.905767
3.550000	-13.572430
3.560000	-111.996508
3.570000	-197.103038
3.580000	-254.930861
3.590000	-287.684655
3.600000	-309.905783
3.610000	-324.240361
3.620000	-324.851520
3.630000	-324.851520
3.640000	-324.851520
3.650000	-315.414036
3.660000	-315.414036
3.670000	-315.414036
3.680000	-310.812701
3.690000	-310.015446
3.700000	-276.814469
3.710000	-258.543924
3.720000	-252.111556
3.730000	-211.730821
3.740000	-190.688330
3.750000	-174.739863
3.760000	-141.249728
3.770000	-111.878286
3.780000	-93.779046
3.790000	-61.936163
3.800000	-25.409811
3.810000	5.996019
3.820000	14.930756
3.830000	59.126437
3.840000	59.126437
3.850000	59.126437
3.860000	35.672056
3.870000	-41.928631
3.880000	-138.539059
3.890000	-222.366592
3.900000	-288.833211
3.910000	-318.772818
3.920000	-351.295799
3.930000	-358.002037
3.940000	-358.002037
3.950000	-358.002037
3.960000	-346.265129
3.970000	-324.859870
3.980000	-324.859870
3.990000	-324.859870
4.000000	-325.854117
4.010000	-332.337969
4.020000	-333.766077
4.030000	-333.766077
4.040000	-332.337969
4.050000	-327.538133
4.060000	-321.401272
4.070000	-305.245813
4.080000	-297.726844
4.090000	-267.580706
4.100000	31.284398
4.110000	74.543904
4.120000	92.858801
4.130000	131.149582
4.140000	140.165773
4.150000	172.024887
4.160000	187.212279
4.170000	218.088809
4.180000	218.088809
4.190000	218.088809
4.200000	167.562843
4.210000	100.999356
4.220000	-1.188652
4.230000	-83.127062
4.240000	-147.108765
4.250000	-173.201304
4.260000	-206.976649
4.270000	-213.234859
4.280000	-213.234859
4.290000	-206.976649
4.300000	-205.210345
4.310000	-204.241397
4.320000	-198.879036
4.330000	-195.701410
4.340000	-195.701410
4.350000	-198.879036
4.360000	-214.066323
4.370000	-214.066323
4.380000	-214.066323
4.390000	-199.284850
4.400000	-1.973640
4.410000	36.147301
4.420000	59.791003
4.430000	89.228771
4.440000	106.441593
4.450000	137.422243
4.460000	152.931613
4.470000	183.771758
4.480000	207.265890
4.490000	234.204338
4.500000	255.536821
4.510000	289.703574
4.520000	289.703574
4.530000	289.703574
4.540000	246.838175
4.550000	151.795839
4.560000	44.948843
4.570000	-51.587713
4.580000	-101.911502
4.590000	-128.139509
4.600000	-146.613198
4.610000	-147.768053
4.620000	-190.854241
4.630000	-236.794023
4.640000	-266.407947
4.650000	-266.947462
4.660000	-271.032569
4.670000	-284.034996
4.680000	-303.707824
4.690000	-363.279706
4.700000	-397.881404
4.710000	-397.881404
4.720000	-397.881404
4.730000	-341.043137
4.740000	-339.140851
4.750000	-320.079732
4.760000	-236.477030
4.770000	-183.516736
4.780000	-151.534051
4.790000	-114.918738
4.800000	-100.744541
4.810000	-81.178679
4.820000	-19.940547
4.830000	35.322173
4.840000	81.978424
4.850000	102.774224
4.860000	121.000144
4.870000	146.179880
4.880000	161.942182
4.890000	194.694498
4.900000	232.771142
4.910000	274.227329
4.920000	301.548875
4.930000	308.655093
4.940000	308.655093
4.950000	308.655093
4.960000	220.661202
4.970000	122.475052
4.980000	52.254299
4.990000	3.163075
5.000000	-35.170666
5.010000	-61.124299
5.020000	-76.613682
5.030000	-78.994764
5.040000	-78.994764
5.050000	-78.994764
5.060000	-62.665944
5.070000	-61.127725
5.080000	-61.127725
5.090000	-62.665944
5.100000	-83.880736
5.110000	-87.139293
5.120000	-87.139293
5.130000	-83.880736
5.140000	-78.343158
5.150000	-69.416132
5.160000	-54.891982
5.170000	-43.740778
5.180000	-22.387023
5.190000	8.888395
5.200000	25.041815
5.210000	45.631980
5.220000	71.410924
5.230000	91.335107
5.240000	104.800662
5.250000	141.112352
5.260000	156.983006
5.270000	177.068208
5.280000	207.105405
5.290000	223.606738
5.300000	223.606738
5.310000	223.606738
5.320000	179.783447
5.330000	90.090941
5.340000	-3.570885
5.350000	-74.474455
5.360000	-126.015876
5.370000	-170.071060
5.380000	-170.071060
5.390000	-170.071060
5.400000	-128.825219
5.410000	-119.498319
5.420000	-109.938812
5.430000	-97.433636
5.440000	-71.037662
5.450000	-61.491303
5.460000	-43.991804
5.470000	-15.616899
5.480000	25.042076
5.490000	48.163921
5.500000	74.206254
5.510000	101.877220
5.520000	128.358467
5.530000	154.593090
5.540000	188.522151
5.550000	196.186136
5.560000	231.920614
5.570000	231.920614
5.580000	231.920614
5.590000	207.373761
5.600000	-132.026948
5.610000	-143.540348
5.620000	-143.540348
5.630000	-143.540348
5.640000	-142.021743
5.650000	-143.540348
5.660000	-148.274591
5.670000	-148.290248
5.680000	-148.290248
5.690000	-148.290248
5.700000	58.009329
5.710000	101.271587
5.720000	112.526641
5.730000	141.602763
5.740000	163.831721
5.750000	163.831721
5.760000	163.831721
5.770000	136.356243
5.780000	72.543610
5.790000	-1.482831
5.800000	-67.909965
5.810000	-133.396701
5.820000	-163.257563
5.830000	-168.443488
5.840000	-168.443488
5.850000	-168.443488
5.860000	-160.023596
5.870000	-148.576213
5.880000	-139.187679
5.890000	-136.441832
5.900000	-136.441832
5.910000	-136.441832
5.920000	-158.560278
5.930000	-158.906663
5.940000	-158.906663
5.950000	-158.560278
5.960000	-157.073422
5.970000	-145.591507
5.980000	-138.546943
5.990000	-123.134566
6.000000	-122.565469
6.010000	-77.303875
6.020000	-63.116762
6.030000	-40.725786
6.040000	-6.204898
6.050000	18.774743
6.060000	40.777284
6.070000	67.270544
6.080000	100.738592
6.090000	133.731899
6.100000	148.664920
6.110000	148.664920
6.120000	148.664920
6.130000	139.863144
6.140000	89.381263
6.150000	2.264174
6.160000	-80.513656
6.170000	-143.411657
6.180000	-170.414259
6.190000	-203.253065
6.200000	-203.253065
6.210000	-203.253065
6.220000	-199.968997
6.230000	-191.993005
6.240000	-189.778871
6.250000	-176.806549
6.260000	-176.806549
6.270000	-176.806549
6.280000	-179.137498
6.290000	-184.686636
6.300000	-184.686636
6.310000	-184.901968
6.320000	-184.901968
6.330000	-183.152321
6.340000	-169.261650
6.350000	-162.846347
6.360000	-139.185420
6.370000	-115.719081
6.380000	-95.074931
6.390000	-65.558864
6.400000	-31.013459
6.410000	-24.485160
6.420000	3.267762
6.430000	34.398058
6.440000	58.563418
6.450000	88.338081
6.460000	118.804936
6.470000	144.269916
6.480000	154.026674
6.490000	154.026674
6.500000	154.026674
6.510000	124.501252
6.520000	48.983175
6.530000	-49.289460
6.540000	-130.970344
6.550000	-211.235675
6.560000	-246.768926
6.570000	-258.363654
6.580000	-282.616556
6.590000	-293.324754
6.600000	-293.324754
6.610000	-293.324754
6.620000	-287.557501
6.630000	-287.557501
6.640000	-287.557501
6.650000	-299.075881
6.660000	-305.553800
6.670000	-317.163573
6.680000	-318.273647
6.690000	-318.273647
6.700000	-317.163573
6.710000	-310.211658
6.720000	-306.211126
6.730000	-286.173065
6.740000	-273.272265
6.750000	-255.041314
6.760000	-224.352737
6.770000	-215.026624
6.780000	-180.216172
6.790000	-145.214518
6.800000	-114.025505
6.810000	-85.392255
6.820000	-64.857728
6.830000	-35.512461
6.840000	6.269509
6.850000	22.248370
6.860000	44.586214
6.870000	71.913288
6.880000	99.891029
6.890000	123.572879
6.900000	150.225813
6.910000	169.698319
6.920000	169.698319
6.930000	169.698319
6.940000	93.967280
6.950000	26.465315
6.960000	-86.993967
6.970000	-151.360847
6.980000	-199.308987
6.990000	-237.117411
7.000000	-259.595327
7.010000	-266.894579
7.020000	-267.894141
7.030000	-267.894141
7.040000	-266.894579
7.050000	-259.771247
7.060000	-258.082279
7.070000	-258.082279
7.080000	-258.082279
7.090000	-275.553298
7.100000	-285.468109
7.110000	-285.468109
7.120000	-285.468109
7.130000	-285.354705
7.140000	-271.250850
7.150000	-269.881361
7.160000	-254.981422
7.170000	-234.279284
7.180000	-201.024114
7.190000	-178.394784
7.200000	-161.992054
7.210000	-130.464608
7.220000	-104.075064
7.230000	-72.450954
7.240000	-47.219049
7.250000	-14.367322
7.260000	23.591251
7.270000	38.646064
7.280000	54.543603
7.290000	85.633652
7.300000	123.433367
7.310000	146.586116
7.320000	170.424248
7.330000	191.487424
7.340000	221.457285
7.350000	255.343618
7.360000	280.469997
7.370000	280.469997
7.380000	280.469997
7.390000	242.423848
7.400000	173.136786
7.410000	71.386047
7.420000	-13.780091
7.430000	-57.717285
7.440000	-87.838354
7.450000	-124.800374
7.460000	-141.858162
7.470000	-141.858162
7.480000	-141.858162
7.490000	-124.878533
7.500000	-120.078732
7.510000	-120.078732
7.520000	-120.078732
7.530000	-133.759210
7.540000	-145.241736
7.550000	-147.639573
7.560000	-164.058115
7.570000	-164.058115
7.580000	-164.058115
7.590000	-145.705575
7.600000	-142.747578
7.610000	-121.968790
7.620000	-92.550042
7.630000	-84.285067
7.640000	-74.203921
7.650000	-46.617561
7.660000	-26.966873
7.670000	1.168925
7.680000	10.153286
7.690000	35.132082
7.700000	293.779119
7.710000	333.258093
7.720000	333.258093
7.730000	333.258093
7.740000	283.208355
7.750000	213.169163
7.760000	137.035734
7.770000	79.434094
7.780000	38.796386
7.790000	24.735050
7.800000	2.330844
7.810000	2.330844
7.820000	2.330844
7.830000	11.133702
7.840000	27.977313
7.850000	54.956999
7.860000	54.956999
7.870000	54.956999
7.880000	52.205994
7.890000	41.867869
7.900000	38.545951
7.910000	38.545951
7.920000	41.867869
7.930000	44.863300
7.940000	55.663392
7.950000	61.854840
7.960000	74.844147
7.970000	105.852984
7.980000	119.905225
7.990000	149.042503
8.000000	177.843344
8.010000	192.243246
8.020000	200.851329
8.030000	236.518255
8.040000	264.681936
8.050000	275.870041
8.060000	304.641434
8.070000	329.074743
8.080000	355.687170
8.090000	361.205839
8.100000	395.943309
8.110000	427.117082
8.120000	444.269216
8.130000	457.092197
8.140000	481.089943
8.150000	481.089943
8.160000	481.089943
8.170000	434.816113
8.180000	358.457153
8.190000	273.835824
8.200000	206.844514
8.210000	166.819088
8.220000	135.164237
8.230000	132.920341
8.240000	115.331287
8.250000	115.331287
8.260000	115.331287
8.270000	129.631349
8.280000	144.348802
8.290000	159.031536
8.300000	159.031536
8.310000	159.031536
8.320000	144.428992
8.330000	144.410246
8.340000	143.528076
8.350000	143.528076
8.360000	144.428992
8.370000	161.745728
8.380000	163.496571
8.390000	181.382049
8.400000	427.969195
8.410000	465.241366
8.420000	485.182065
8.430000	506.635074
8.440000	538.377245
8.450000	553.941968
8.460000	579.727628
8.470000	598.138049
8.480000	598.138049
8.490000	598.138049
8.500000	254.177215
8.510000	244.470246
8.520000	244.470246
8.530000	244.470246
8.540000	244.470246
8.550000	236.215905
8.560000	223.006018
8.570000	195.789619
8.580000	195.789619
8.590000	195.789619
8.600000	198.570908
8.610000	211.565878
8.620000	222.975218
8.630000	232.917035
8.640000	245.400143
8.650000	263.698288
8.660000	269.291444
8.670000	298.981285
8.680000	332.696450
8.690000	365.800145
8.700000	597.248222
8.710000	615.528911
8.720000	615.528911
8.730000	615.528911
8.740000	547.723624
8.750000	471.266894
8.760000	387.872536
8.770000	335.112877
8.780000	286.855938
8.790000	277.133508
8.800000	258.625247
8.810000	258.367653
8.820000	258.367653
8.830000	258.367653
8.840000	280.823685
8.850000	280.823685
8.860000	280.823685
8.870000	276.331367
8.880000	248.730686
8.890000	247.241811
8.900000	221.689960
8.910000	213.430892
8.920000	205.967285
8.930000	204.328193
8.940000	195.177619
8.950000	191.754287
8.960000	170.848514
8.970000	116.232577
8.980000	86.607792
8.990000	58.493086
9.000000	57.939831
9.010000	43.807248
9.020000	43.807248
9.030000	57.939831
9.040000	87.157390
9.050000	142.486343
9.060000	232.707694
9.070000	316.968441
9.080000	407.410690
9.090000	475.345437
9.100000	475.926034
9.110000	487.464792
9.120000	493.221781
9.130000	487.464792
9.140000	475.926034
9.150000	434.205992
9.160000	351.799533
9.170000	235.811751
9.180000	165.629405
9.190000	117.139209
9.200000	75.490566
9.210000	66.584320
9.220000	48.170147
9.230000	46.811584
9.240000	46.811584
9.250000	46.811584
9.260000	57.608687
9.270000	81.193613
9.280000	81.193613
9.290000	81.193613
9.300000	68.972389
9.310000	54.532864
9.320000	36.495537
9.330000	25.332590
9.340000	25.332590
9.350000	25.332590
9.360000	44.409957
9.370000	50.000178
9.380000	63.979740
9.390000	75.717931
9.400000	101.627118
9.410000	125.348865
9.420000	143.312678
9.430000	170.032398
9.440000	186.910091
9.450000	212.821518
9.460000	240.438061
9.470000	256.597010
9.480000	281.058715
9.490000	310.310702
9.500000	319.623076
9.510000	319.623076
9.520000	319.623076
9.530000	279.160676
9.540000	206.389056
9.550000	116.125727
9.560000	35.854327
9.570000	-16.935718
9.580000	-16.935718
9.590000	-16.935718
9.600000	-13.197651
9.610000	1.462570
9.620000	18.891231
9.630000	48.758564
9.640000	68.892544
9.650000	88.139488
9.660000	115.894949
9.670000	118.934884
9.680000	118.934884
9.690000	118.934884
9.700000	48.658349
9.710000	-46.500843
9.720000	-130.455021
9.730000	-197.020204
9.740000	-255.612897
9.750000	-292.477735
9.760000	-298.786273
9.770000	-298.786273
9.780000	-298.786273
9.790000	-284.939925
9.800000	-259.491543
9.810000	-242.850326
9.820000	-242.850326
9.830000	-242.850326
9.840000	-255.091949
9.850000	-278.559165
9.860000	-286.879214
9.870000	-293.465515
9.880000	-293.465515
9.890000	-293.465515
9.900000	-287.332209
9.910000	-279.467103
9.920000	-263.018046
9.930000	-243.507009
9.940000	-237.739329
9.950000	-209.405609
9.960000	-182.631298
9.970000	-161.253302
9.980000	-161.253302
9.990000	-161.253302
10.000000	-337.815722
10.010000	-401.646143
10.020000	-432.429857
10.030000	-450.849267
10.040000	-455.990290
10.050000	-466.566845
10.060000	-466.566845
10.070000	-466.566845
10.080000	-459.736125
10.090000	-459.736125
10.100000	-459.736125
10.110000	-474.341939
10.120000	-494.629506
10.130000	-494.645859
10.140000	-500.257186
10.150000	-500.257186
10.160000	-500.257186
10.170000	-487.073388
10.180000	-484.546027
10.190000	-471.190103
10.200000	-226.692594
10.210000	-203.073005
10.220000	-202.157942
10.230000	-174.540537
10.240000	-174.540537
10.250000	-174.540537
10.260000	-226.750658
10.270000	-305.563379
10.280000	-394.608950
10.290000	-450.519509
10.300000	-518.718598
10.310000	-540.196331
10.320000	-563.130213
10.330000	-564.164673
10.340000	-564.164673
10.350000	-564.164673
10.360000	-552.132739
10.370000	-544.133784
10.380000	-544.133784
10.390000	-544.133784
10.400000	-561.230316
10.410000	-577.591585
10.420000	-583.779854
10.430000	-583.779854
10.440000	-583.779854
10.450000	-579.565800
10.460000	-569.979075
10.470000	-562.987470
10.480000	-553.623649
10.490000	-537.418233
10.500000	-513.285220
10.510000	-484.869668
10.520000	-447.932785
10.530000	-436.433632
10.540000	-422.417881
10.550000	-383.019112
10.560000	-366.104753
10.570000	-333.375386
10.580000	-316.992563
10.590000	-296.594764
10.600000	-267.931937
10.610000	-259.148423
10.620000	-259.148423
10.630000	-259.148423
10.640000	-325.838193
10.650000	-391.268383
10.660000	-487.018108
10.670000	-519.050238
10.680000	-519.050238
10.690000	-519.050238
10.700000	-373.929824
10.710000	-332.575594
10.720000	-303.684570
10.730000	-283.069377
10.740000	-245.387601
10.750000	-214.705167
10.760000	-206.072086
10.770000	-173.178557
10.780000	-153.994092
10.790000	-123.484854
10.800000	-123.484854
10.810000	-123.484854
10.820000	-172.519154
10.830000	-240.284247
10.840000	-340.254813
10.850000	-428.759443
10.860000	-477.036712
10.870000	-509.385562
10.880000	-517.734790
10.890000	-534.126836
10.900000	-541.984224
10.910000	-541.984224
10.920000	-541.984224
10.930000	-533.625895
10.940000	-523.999517
10.950000	-523.999517
10.960000	-523.999517
10.970000	-529.421067
10.980000	-536.183871
10.990000	-536.183871
11.000000	-536.183871
11.010000	-528.921691
11.020000	-524.908369
11.030000	-510.568073
11.040000	-485.672530
11.050000	-470.273001
11.060000	-431.293458
11.070000	-397.149339
11.080000	-388.345564
11.090000	-386.737546
11.100000	-386.737546
11.110000	-386.737546
11.120000	-386.737546
11.130000	-385.102835
11.140000	-366.494909
11.150000	-363.418277
11.160000	-363.418277
11.170000	-366.494909
11.180000	-366.494909
11.190000	-357.726368
11.200000	-224.855181
11.210000	-195.874100
11.220000	-168.869147
11.230000	-138.280006
11.240000	-124.955003
11.250000	-89.519658
11.260000	-68.247578
11.270000	-35.588247
11.280000	-12.666887
11.290000	7.421823
11.300000	23.894564
11.310000	50.473819
11.320000	75.388286
11.330000	117.612759
11.340000	140.732580
11.350000	158.893477
11.360000	188.085053
11.370000	204.404665
11.380000	204.404665
11.390000	204.404665
11.400000	141.715493
11.410000	47.652657
11.420000	-8.730632
11.430000	-52.352932
11.440000	-89.119820
11.450000	-89.119820
11.460000	-93.266623
11.470000	-99.670455
11.480000	-99.670455
11.490000	-87.020682
11.500000	-75.987279
11.510000	-72.018205
11.520000	-72.018205
11.530000	-75.987279
11.540000	-87.285498
11.550000	-91.647725
11.560000	-94.373362
11.570000	-94.373362
11.580000	-94.373362
11.590000	-77.079608
11.600000	-62.302757
11.610000	-48.413572
11.620000	-20.186469
11.630000	-14.883150
11.640000	16.174614
11.650000	39.430368
11.660000	61.655627
11.670000	97.775654
11.680000	127.048256
11.690000	156.206188
11.700000	190.446659
11.710000	220.607478
11.720000	237.856367
11.730000	266.109316
11.740000	285.155680
11.750000	309.718102
11.760000	341.430244
11.770000	375.320142
11.780000	389.670406
11.790000	418.085911
11.800000	436.189331
11.810000	436.189331
11.820000	436.189331
11.830000	383.288665
11.840000	324.677342
11.850000	265.803842
11.860000	213.181333
11.870000	192.873248
11.880000	187.651287
11.890000	187.651287
11.900000	192.873248
11.910000	203.612214
11.920000	225.370259
11.930000	236.455961
11.940000	239.645949
11.950000	256.514450
11.960000	256.514450
11.970000	256.514450
11.980000	256.514450
11.990000	256.514450
12.000000	414.955506
12.010000	445.014203
12.020000	450.329755
12.030000	489.048115
12.040000	514.431873
12.050000	539.261579
12.060000	564.517802
12.070000	583.470221
12.080000	608.673188
12.090000	642.667981
12.100000	661.773296
12.110000	687.005374
12.120000	687.005374
12.130000	687.005374
12.140000	644.529017
12.150000	588.312330
12.160000	501.120248
12.170000	429.331796
12.180000	385.636555
12.190000	373.343193
12.200000	340.678605
12.210000	339.014791
12.220000	339.014791
12.230000	340.009733
12.240000	340.009733
12.250000	355.018328
12.260000	357.612886
12.270000	358.036361
12.280000	359.920616
12.290000	380.842361
12.300000	588.704887
12.310000	619.500191
12.320000	626.480460
12.330000	657.630980
12.340000	669.450714
12.350000	669.450714
12.360000	669.450714
12.370000	612.350562
12.380000	529.959788
12.390000	445.793951
12.400000	368.446889
12.410000	328.316263
12.420000	297.793732
12.430000	273.312535
12.440000	264.900585
12.450000	264.900585
12.460000	273.312535
12.470000	273.635388
12.480000	277.837557
12.490000	277.837557
12.500000	277.837557
12.510000	263.139298
12.520000	249.234650
12.530000	222.827001
12.540000	219.853151
12.550000	205.766457
12.560000	205.766457
12.570000	205.766457
12.580000	216.976227
12.590000	225.406139
12.600000	240.360497
12.610000	246.288286
12.620000	259.852405
12.630000	262.091738
12.640000	287.510296
12.650000	287.686554
12.660000	308.930176
12.670000	320.479203
12.680000	320.479203
12.690000	308.930176
12.700000	-35.471687
12.710000	-81.697878
12.720000	-90.998155
12.730000	-90.998155
12.740000	-102.866754
12.750000	-129.811679
12.760000	-163.159981
12.770000	-163.159981
12.780000	-163.159981
12.790000	-157.316148
12.800000	-121.085066
12.810000	-106.951101
12.820000	-78.643009
12.830000	-45.693129
12.840000	-7.153457
12.850000	15.522005
12.860000	58.513066
12.870000	68.510009
12.880000	116.539729
12.890000	146.166550
12.900000	177.796048
12.910000	209.781109
12.920000	243.078085
12.930000	265.377779
12.940000	302.483325
12.950000	302.483325
12.960000	302.483325
12.970000	277.473298
12.980000	201.346542
12.990000	128.049871
13.000000	60.820490
13.010000	14.677125
13.020000	-3.710206
13.030000	-22.773779
13.040000	-34.121543
13.050000	-34.121543
13.060000	-34.121543
13.070000	-12.510056
13.080000	-10.238404
13.090000	-6.858945
13.100000	-6.858945
13.110000	-6.858945
13.120000	-20.163112
13.130000	-27.352147
13.140000	-28.631267
13.150000	-35.290812
13.160000	-35.290812
13.170000	-31.660117
13.180000	-28.631267
13.190000	-9.856507
13.200000	-2.783321
13.210000	23.779793
13.220000	36.926708
13.230000	72.622821
13.240000	86.433446
13.250000	91.641878
13.260000	136.052467
13.270000	159.381495
13.280000	184.918425
13.290000	221.097674
13.300000	221.097674
13.310000	221.097674
13.320000	209.336845
13.330000	125.959405
13.340000	49.102994
13.350000	-34.179983
13.360000	-82.965817
13.370000	-99.420689
13.380000	-125.125897
13.390000	-145.490167
13.400000	-145.490167
13.410000	-145.490167
13.420000	-135.458206
13.430000	-119.600555
13.440000	-111.596405
13.450000	-111.596405
13.460000	-111.596405
13.470000	-123.437698
13.480000	-125.884167
13.490000	-134.575445
13.500000	-135.230381
13.510000	-135.230381
13.520000	-134.575445
13.530000	-114.709688
13.540000	-100.909080
13.550000	-91.704640
13.560000	-81.887366
13.570000	-43.621157
13.580000	-11.019543
13.590000	2.535495
13.600000	27.986220
13.610000	61.613118
13.620000	81.959409
13.630000	109.822910
13.640000	131.854897
13.650000	153.099275
13.660000	179.769623
13.670000	198.624332
13.680000	198.624332
13.690000	198.624332
13.700000	145.604143
13.710000	67.014693
13.720000	-22.476448
13.730000	-118.607743
13.740000	-172.418524
13.750000	-192.372190
13.760000	-212.414919
13.770000	-219.993286
13.780000	-230.486856
13.790000	-230.486856
13.800000	-230.486856
13.810000	-230.486856
13.820000	-230.646283
13.830000	-234.291968
13.840000	-256.935279
13.850000	-262.677414
13.860000	-280.141113
13.870000	-280.141113
13.880000	-280.141113
13.890000	-278.958583
13.900000	-132.539849
13.910000	-120.062125
13.920000	-112.502792
13.930000	-80.687529
13.940000	-80.423935
13.950000	-38.408668
13.960000	-38.408668
13.970000	-38.408668
13.980000	-73.937593
13.990000	-164.809357
14.000000	-261.431723
14.010000	-348.557362
14.020000	-396.872060
14.030000	-425.423045
14.040000	-444.836954
14.050000	-449.157119
14.060000	-449.157119
14.070000	-444.836954
14.080000	-427.123422
14.090000	-415.943527
14.100000	-415.943527
14.110000	-415.943527
14.120000	-426.257412
14.130000	-449.058128
14.140000	-470.187969
14.150000	-473.198937
14.160000	-479.134386
14.170000	-479.134386
14.180000	-470.187969
14.190000	-468.520943
14.200000	-455.767472
14.210000	-442.689854
14.220000	-424.549137
14.230000	-415.896166
14.240000	-378.169293
14.250000	-360.327174
14.260000	-337.571127
14.270000	-314.824014
14.280000	-314.824014
14.290000	-314.824014
14.300000	-526.879037
14.310000	-565.582541
14.320000	-569.944071
14.330000	-569.944071
14.340000	-565.582541
14.350000	-563.663301
14.360000	-541.325828
14.370000	-541.325828
14.380000	-541.325828
14.390000	-547.317548
14.400000	-561.614318
14.410000	-569.424085
14.420000	-569.424085
14.430000	-569.424085
14.440000	-557.666860
14.450000	-557.649757
14.460000	-555.022138
14.470000	-537.814522
14.480000	-517.440816
14.490000	-491.907585
14.500000	-465.859774
14.510000	-435.960640
14.520000	-413.300132
14.530000	-384.929307
14.540000	-356.773825
14.550000	-339.893423
14.560000	-307.123734
14.570000	-282.980535
14.580000	-257.359455
14.590000	-238.097668
14.600000	-213.522178
14.610000	-202.731037
14.620000	-202.731037
14.630000	-202.731037
14.640000	-267.214475
14.650000	-364.283952
14.660000	-463.770801
14.670000	-527.795146
14.680000	-584.487722
14.690000	-617.162366
14.700000	-742.401302
14.710000	-742.401302
14.720000	-742.401302
14.730000	-734.894934
14.740000	-712.383485
14.750000	-705.076888
14.760000	-677.348783
14.770000	-653.214137
14.780000	-643.461409
14.790000	-623.946098
14.800000	-584.589640
14.810000	-551.754898
14.820000	-527.627992
14.830000	-489.471540
14.840000	-466.785884
14.850000	-435.015543
14.860000	-393.986331
14.870000	-362.587255
14.880000	-342.113562
14.890000	-309.065725
14.900000	-284.337332
14.910000	-269.465390
14.920000	-214.393505
14.930000	-196.188061
14.940000	-169.085913
14.950000	-135.015059
14.960000	-135.015059
14.970000	-135.015059
14.980000	-150.462873
14.990000	-238.566827
15.000000	-340.998466
15.010000	-425.290741
15.020000	-477.556598
15.030000	-511.060471
15.040000	-533.069229
15.050000	-557.820044
15.060000	-564.455894
15.070000	-564.455894
15.080000	-564.455894
15.090000	-553.467767
15.100000	-553.467767
15.110000	-553.467767
15.120000	-557.568756
15.130000	-565.594520
15.140000	-572.984654
15.150000	-575.626032
15.160000	-575.626032
15.170000	-575.626032
15.180000	-563.624321
15.190000	-540.131409
15.200000	-526.937370
15.210000	-516.522156
15.220000	-490.185252
15.230000	-461.968038
15.240000	-435.369046
15.250000	-405.355013
15.260000	-369.524251
15.270000	-336.736756
15.280000	-317.647874
15.290000	-308.083761
15.300000	-308.061076
15.310000	-308.061076
15.320000	-308.083761
15.330000	-308.083761
15.340000	-308.061076
15.350000	-302.387003
15.360000	-292.158386
15.370000	-286.499996
15.380000	-267.086383
15.390000	-249.666090
15.400000	-213.874334
15.410000	-185.918867
15.420000	-164.545250
15.430000	-133.087330
15.440000	-103.251732
15.450000	-67.159257
15.460000	-46.997673
15.470000	-15.050616
15.480000	9.170555
15.490000	27.159983
15.500000	72.471483
15.510000	102.205624
15.520000	138.997817
15.530000	152.150572
15.540000	188.784052
15.550000	222.941358
15.560000	243.658393
15.570000	243.658393
15.580000	243.658393
15.590000	191.844631
15.600000	93.916342
15.610000	93.916342
15.620000	93.916342
15.630000	121.126782
15.640000	162.527393
15.650000	179.544175
15.660000	208.394508
15.670000	237.882354
15.680000	274.361199
15.690000	309.231201
15.700000	342.403368
15.710000	358.590769
15.720000	397.649814
15.730000	417.779236
15.740000	446.139201
15.750000	463.895262
15.760000	498.810807
15.770000	513.887998
15.780000	546.849789
15.790000	546.849789
15.800000	546.849789
15.810000	468.511258
15.820000	382.225684
15.830000	292.247610
15.840000	217.699337
15.850000	180.047646
15.860000	146.080375
15.870000	131.038646
15.880000	122.160614
15.890000	122.160614
15.900000	122.160614
15.910000	134.445095
15.920000	148.504434
15.930000	148.504434
15.940000	148.504434
15.950000	138.170253
15.960000	137.003852
15.970000	128.552006
15.980000	127.237270
15.990000	127.237270
16.000000	127.237270
16.010000	136.577528
16.020000	166.973449
16.030000	183.043144
16.040000	194.897751
16.050000	224.605076
16.060000	254.777463
16.070000	288.286731
16.080000	306.662937
16.090000	335.153134
16.100000	373.543453
16.110000	412.058542
16.120000	444.499350
16.130000	462.022536
16.140000	493.625314
16.150000	522.928320
16.160000	548.860025
16.170000	586.946671
16.180000	597.008992
16.190000	626.272613
16.200000	649.025425
16.210000	675.766071
16.220000	719.116009
16.230000	748.208663
16.240000	776.396874
16.250000	776.396874
16.260000	776.396874
16.270000	770.340580
16.280000	713.072729
16.290000	600.770355
16.300000	506.949666
16.310000	436.080953
16.320000	379.862202
16.330000	360.546364
16.340000	342.235263
16.350000	341.684611
16.360000	341.684611
16.370000	342.235263
16.380000	329.436478
16.390000	330.019931
16.400000	350.879045
16.410000	350.879045
16.420000	366.000001
16.430000	385.296892
16.440000	417.915422
16.450000	431.475770
16.460000	475.128215
16.470000	504.471326
16.480000	519.536850
16.490000	546.612974
16.500000	590.961885
16.510000	609.696696
16.520000	623.636376
16.530000	628.786911
16.540000	655.479947
16.550000	673.786573
16.560000	682.477450
16.570000	700.918051
16.580000	723.481704
16.590000	723.481704
16.600000	723.481704
16.610000	684.089274
16.620000	631.305629
16.630000	541.874240
16.640000	462.254548
16.650000	373.555980
16.660000	341.512265
16.670000	277.891319
16.680000	241.249728
16.690000	150.920952
16.700000	-153.238543
16.710000	-153.238543
16.720000	-154.073131
16.730000	-153.238543
16.740000	-152.569099
16.750000	-123.188785
16.760000	-75.969367
16.770000	-42.770280
16.780000	-7.660899
16.790000	12.636217
16.800000	50.861200
16.810000	105.025210
16.820000	178.475943
16.830000	217.335116
16.840000	255.409708
16.850000	302.657809
16.860000	348.365084
16.870000	395.095457
16.880000	448.407267
16.890000	472.498182
16.900000	477.287531
16.910000	477.287531
16.920000	477.287531
16.930000	422.109543
16.940000	325.768189
16.950000	268.867378
16.960000	207.987461
16.970000	185.119496
16.980000	185.119496
16.990000	185.119496
17.000000	362.743324
17.010000	401.185990
17.020000	417.571858
17.030000	458.137510
17.040000	477.227789
17.050000	501.367120
17.060000	512.842116
17.070000	512.842116
17.080000	512.842116
17.090000	437.486521
17.100000	325.890208
17.110000	214.234945
17.120000	107.528496
17.130000	53.180025
17.140000	30.058764
17.150000	12.192070
17.160000	-0.258893
17.170000	-0.258893
17.180000	-0.258893
17.190000	15.410141
17.200000	36.286368
17.210000	36.286368
17.220000	36.286368
17.230000	18.011218
17.240000	0.307949
17.250000	0.307949
17.260000	0.307949
17.270000	2.145658
17.280000	16.178434
17.290000	21.986695
17.300000	98.375249
17.310000	113.329467
17.320000	133.197680
17.330000	154.561446
17.340000	174.101239
17.350000	192.886365
17.360000	218.102509
17.370000	252.279434
17.380000	274.119300
17.390000	282.809757
17.400000	321.337398
17.410000	352.200042
17.420000	359.696424
17.430000	392.849163
17.440000	392.849163
17.450000	392.849163
17.460000	390.190408
17.470000	328.577144
17.480000	225.496946
17.490000	159.847433
