Time(s)	RED_denoised_wiener
0.000000	39.537902
0.010000	40.642157
0.020000	8.750661
0.030000	-16.607219
0.040000	-38.463841
0.050000	-59.861679
0.060000	-77.666613
0.070000	-84.443072
0.080000	-79.560334
0.090000	-72.056791
0.100000	-67.116082
0.110000	-58.645663
0.120000	-53.714277
0.130000	-47.876051
0.140000	-47.014160
0.150000	-46.083250
0.160000	-43.330086
0.170000	-42.312211
0.180000	-36.960254
0.190000	-31.242933
0.200000	-30.267915
0.210000	-32.496605
0.220000	-32.907387
0.230000	-32.107288
0.240000	-22.198558
0.250000	-9.432061
0.260000	9.862117
0.270000	22.855611
0.280000	28.278791
0.290000	33.491063
0.300000	39.669059
0.310000	52.128285
0.320000	63.013380
0.330000	76.455150
0.340000	87.990647
0.350000	102.463952
0.360000	113.593557
0.370000	123.819400
0.380000	134.850309
0.390000	145.489208
0.400000	157.437183
0.410000	161.785192
0.420000	148.008093
0.430000	110.416084
0.440000	65.294137
0.450000	30.372209
0.460000	10.198391
0.470000	-11.073447
0.480000	-38.881384
0.490000	-74.186272
0.500000	-102.598647
0.510000	-116.330393
0.520000	-115.350563
0.530000	-105.838433
0.540000	-95.453586
0.550000	-86.679478
0.560000	-84.912012
0.570000	-86.509950
0.580000	-91.728900
0.590000	-93.000203
0.600000	-94.258831
0.610000	-97.165835
0.620000	-102.802304
0.630000	-106.330520
0.640000	-104.030999
0.650000	-110.227087
0.660000	-127.911072
0.670000	-150.446547
0.680000	-165.792478
0.690000	-171.040774
0.700000	-159.012006
0.710000	-137.693346
0.720000	-111.906364
0.730000	-89.705155
0.740000	-71.463486
0.750000	-58.403318
0.760000	-47.693666
0.770000	-35.449609
0.780000	-14.933865
0.790000	5.778734
0.800000	18.808289
0.810000	26.015484
0.820000	27.527172
0.830000	33.260451
0.840000	36.514910
0.850000	40.513670
0.860000	24.417390
0.870000	-8.185349
0.880000	-51.359849
0.890000	-82.859228
0.900000	-107.230507
0.910000	-129.554565
0.920000	-151.110881
0.930000	-169.927959
0.940000	-181.337664
0.950000	-191.685582
0.960000	-194.884437
0.970000	-196.161913
0.980000	-197.443265
0.990000	-202.665050
1.000000	-213.684484
1.010000	-223.498777
1.020000	-231.966295
1.030000	-244.703551
1.040000	-254.234193
1.050000	-261.954894
1.060000	-261.837378
1.070000	-259.928561
1.080000	-254.775935
1.090000	-250.273025
1.100000	-243.050801
1.110000	-238.330811
1.120000	-229.650107
1.130000	-220.104857
1.140000	-209.263196
1.150000	-201.248353
1.160000	-195.888226
1.170000	-189.071566
1.180000	-184.558877
1.190000	-179.233353
1.200000	-175.268314
1.210000	-170.407355
1.220000	-167.349201
1.230000	-160.249192
1.240000	-150.808905
1.250000	-134.097691
1.260000	-122.674978
1.270000	-119.611915
1.280000	-124.222637
1.290000	-135.483903
1.300000	-158.479210
1.310000	-194.704963
1.320000	-234.397231
1.330000	-257.590494
1.340000	-276.429381
1.350000	-288.461984
1.360000	-301.850176
1.370000	-313.662608
1.380000	-317.287239
1.390000	-318.590654
1.400000	-306.036421
1.410000	-294.284002
1.420000	-290.124112
1.430000	-293.986765
1.440000	-297.548073
1.450000	-295.391254
1.460000	-290.355208
1.470000	-296.520543
1.480000	-302.118693
1.490000	-305.037118
1.500000	-299.232231
1.510000	-285.934606
1.520000	-271.721469
1.530000	-255.839720
1.540000	-245.594009
1.550000	-236.406780
1.560000	-224.830976
1.570000	-209.340510
1.580000	-194.111736
1.590000	-178.622871
1.600000	-162.086704
1.610000	-142.931415
1.620000	-122.765477
1.630000	-102.600120
1.640000	-84.141359
1.650000	-65.955464
1.660000	-46.211475
1.670000	-26.014261
1.680000	-9.318202
1.690000	2.906292
1.700000	12.219783
1.710000	16.454303
1.720000	7.713003
1.730000	-23.029877
1.740000	-62.093898
1.750000	-94.874066
1.760000	-115.621065
1.770000	-129.109831
1.780000	-140.846303
1.790000	-150.358633
1.800000	-159.106361
1.810000	-161.283721
1.820000	-156.744928
1.830000	-143.901199
1.840000	-136.120986
1.850000	-137.857319
1.860000	-142.830748
1.870000	-148.520331
1.880000	-151.233913
1.890000	-156.906455
1.900000	-159.968868
1.910000	-156.660984
1.920000	-155.099929
1.930000	-155.089542
1.940000	-151.246988
1.950000	-142.226143
1.960000	-131.103191
1.970000	-119.054567
1.980000	-103.646562
1.990000	-90.268268
2.000000	-82.214680
2.010000	-74.489737
2.020000	-60.809840
2.030000	-42.094940
2.040000	-21.775885
2.050000	-2.395064
2.060000	13.895077
2.070000	24.606456
2.080000	35.223796
2.090000	48.904071
2.100000	63.172834
2.110000	71.492940
2.120000	74.778043
2.130000	81.404644
2.140000	90.660587
2.150000	100.281006
2.160000	90.798099
2.170000	53.823309
2.180000	-0.711936
2.190000	-58.654032
2.200000	-99.903590
2.210000	-125.888489
2.220000	-142.806376
2.230000	-157.155178
2.240000	-170.727685
2.250000	-179.437205
2.260000	-182.690114
2.270000	-186.101179
2.280000	-181.312431
2.290000	-181.856912
2.300000	-187.929782
2.310000	-202.986635
2.320000	-217.877578
2.330000	-229.163807
2.340000	-237.200921
2.350000	-238.027609
2.360000	-239.588813
2.370000	-239.896001
2.380000	-236.005978
2.390000	-226.801326
2.400000	-213.795642
2.410000	-200.410515
2.420000	-188.947539
2.430000	-184.392403
2.440000	-193.803804
2.450000	-210.033959
2.460000	-222.683172
2.470000	-218.366027
2.480000	-207.660412
2.490000	-203.403031
2.500000	-205.968832
2.510000	-205.443855
2.520000	-193.647430
2.530000	-180.232414
2.540000	-173.019753
2.550000	-168.020629
2.560000	-159.753401
2.570000	-137.158949
2.580000	-122.276712
2.590000	-108.249989
2.600000	-111.897131
2.610000	-139.009488
2.620000	-184.519798
2.630000	-230.097958
2.640000	-259.513625
2.650000	-286.300228
2.660000	-311.839451
2.670000	-328.175549
2.680000	-329.536626
2.690000	-323.452740
2.700000	-314.925508
2.710000	-306.421603
2.720000	-293.326888
2.730000	-284.793532
2.740000	-286.417065
2.750000	-291.162642
2.760000	-289.532320
2.770000	-288.609106
2.780000	-291.334648
2.790000	-299.751515
2.800000	-301.128109
2.810000	-299.972950
2.820000	-293.265861
2.830000	-281.903403
2.840000	-274.790493
2.850000	-266.158393
2.860000	-258.703167
2.870000	-241.072877
2.880000	-224.709808
2.890000	-209.319770
2.900000	-198.090603
2.910000	-186.911150
2.920000	-169.830826
2.930000	-149.891653
2.940000	-132.274622
2.950000	-119.562659
2.960000	-111.742199
2.970000	-98.569753
2.980000	-86.620091
2.990000	-74.585925
3.000000	-62.198166
3.010000	-53.310688
3.020000	-43.116322
3.030000	-49.127226
3.040000	-71.684391
3.050000	-111.307931
3.060000	-154.577783
3.070000	-189.857078
3.080000	-212.520576
3.090000	-224.454184
3.100000	-227.158987
3.110000	-228.766106
3.120000	-227.800881
3.130000	-219.766186
3.140000	-209.832381
3.150000	-200.789371
3.160000	-199.571497
3.170000	-206.490522
3.180000	-212.648058
3.190000	-217.243242
3.200000	-216.077868
3.210000	-213.715857
3.220000	-212.196488
3.230000	-207.534249
3.240000	-199.688180
3.250000	-190.052063
3.260000	-180.877619
3.270000	-174.264761
3.280000	-162.401711
3.290000	-145.193770
3.300000	-124.626536
3.310000	-109.503094
3.320000	-96.847169
3.330000	-86.514927
3.340000	-77.092278
3.350000	-67.221450
3.360000	-58.038672
3.370000	-48.282387
3.380000	-43.364296
3.390000	-42.019120
3.400000	-41.713805
3.410000	-41.788263
3.420000	-37.078106
3.430000	-28.601449
3.440000	-24.823155
3.450000	-23.411842
3.460000	-36.969309
3.470000	-65.882004
3.480000	-110.809430
3.490000	-161.013979
3.500000	-200.661900
3.510000	-229.882706
3.520000	-243.860256
3.530000	-251.147515
3.540000	-260.083947
3.550000	-268.409023
3.560000	-275.003140
3.570000	-273.013707
3.580000	-267.313346
3.590000	-273.005184
3.600000	-287.600478
3.610000	-297.992622
3.620000	-302.610963
3.630000	-308.027304
3.640000	-330.339034
3.650000	-351.994195
3.660000	-370.466207
3.670000	-383.319038
3.680000	-394.635523
3.690000	-403.654681
3.700000	-403.478616
3.710000	-402.054924
3.720000	-396.649388
3.730000	-396.177370
3.740000	-392.797529
3.750000	-383.001627
3.760000	-370.655681
3.770000	-358.512428
3.780000	-350.539951
3.790000	-343.024752
3.800000	-326.764938
3.810000	-305.595177
3.820000	-279.668610
3.830000	-259.883743
3.840000	-242.219763
3.850000	-220.855651
3.860000	-189.123370
3.870000	-162.242281
3.880000	-139.337203
3.890000	-133.020208
3.900000	-145.209071
3.910000	-170.130908
3.920000	-197.756298
3.930000	-210.908847
3.940000	-221.403171
3.950000	-223.324595
3.960000	-221.098095
3.970000	-209.733950
3.980000	-192.501650
3.990000	-168.149981
4.000000	-139.602237
4.010000	-118.608965
4.020000	-103.016488
4.030000	-100.446457
4.040000	-96.053829
4.050000	-102.042846
4.060000	-110.720932
4.070000	-116.997261
4.080000	-123.760634
4.090000	-122.604472
4.100000	-130.888061
4.110000	-136.815028
4.120000	-152.096610
4.130000	-167.651501
4.140000	-187.022657
4.150000	-194.450914
4.160000	-189.339434
4.170000	-170.932105
4.180000	-151.707905
4.190000	-137.075680
4.200000	-123.399797
4.210000	-116.259285
4.220000	-116.092080
4.230000	-128.471296
4.240000	-141.082659
4.250000	-142.031672
4.260000	-120.422982
4.270000	-101.036821
4.280000	-89.056052
4.290000	-76.017515
4.300000	-57.713621
4.310000	-61.096386
4.320000	-97.005981
4.330000	-144.433273
4.340000	-173.953837
4.350000	-182.521001
4.360000	-185.296545
4.370000	-191.269729
4.380000	-203.300149
4.390000	-208.987388
4.400000	-198.320937
4.410000	-184.779958
4.420000	-167.311982
4.430000	-165.305279
4.440000	-161.545543
4.450000	-166.583010
4.460000	-168.727274
4.470000	-182.608723
4.480000	-193.838091
4.490000	-200.677743
4.500000	-187.251733
4.510000	-181.207723
4.520000	-185.271442
4.530000	-208.429178
4.540000	-302.786190
4.550000	-1888.761376
4.560000	-2325.540812
4.570000	-1416.905402
4.580000	-159.384152
4.590000	-207.570069
4.600000	-265.527810
4.610000	-191.782965
4.620000	-170.093303
4.630000	-132.643225
4.640000	-184.805849
4.650000	-296.817714
4.660000	-3983.996914
4.670000	-3529.896364
4.680000	-1268.020122
4.690000	550.704408
4.700000	224.362346
4.710000	1.934784
4.720000	-54.838283
4.730000	-264.321475
4.740000	-815.202306
4.750000	-3333.581982
4.760000	-2778.177582
4.770000	-1372.251326
4.780000	403.475563
4.790000	148.234016
4.800000	-25.953636
4.810000	-26.358846
4.820000	-149.178627
4.830000	-875.289923
4.840000	-2738.509931
4.850000	-2004.445414
4.860000	-432.498934
4.870000	-128.476009
4.880000	11.645586
4.890000	5.173917
4.900000	50.252454
4.910000	76.090294
4.920000	107.126404
4.930000	113.530238
4.940000	130.184477
4.950000	135.154271
4.960000	144.687993
4.970000	27.743525
4.980000	-762.702926
4.990000	-575.578861
5.000000	-121.653844
5.010000	61.677240
5.020000	102.702221
5.030000	117.500260
5.040000	184.918597
5.050000	148.688608
5.060000	14.387744
5.070000	-2644.912204
5.080000	-2349.462240
5.090000	-273.584013
5.100000	21.127705
5.110000	32.043860
5.120000	-138.664949
5.130000	-124.439091
5.140000	-88.008795
5.150000	-100.321066
5.160000	-107.326648
5.170000	-117.692153
5.180000	-94.836622
5.190000	-96.638613
5.200000	-87.739314
5.210000	-117.800259
5.220000	-127.991901
5.230000	-155.205550
5.240000	-164.360419
5.250000	-200.811573
5.260000	-216.117324
5.270000	-234.596308
5.280000	-232.721217
5.290000	-250.533569
5.300000	-254.099387
5.310000	-252.231886
5.320000	-238.077700
5.330000	-230.309675
5.340000	-210.262342
5.350000	-188.108404
5.360000	-149.353821
5.370000	-123.334953
5.380000	-88.612793
5.390000	-59.967447
5.400000	-21.426616
5.410000	22.037038
5.420000	61.443549
5.430000	98.432839
5.440000	129.328412
5.450000	145.511520
5.460000	143.256989
5.470000	137.338434
5.480000	148.566724
5.490000	184.493992
5.500000	237.868008
5.510000	300.011661
5.520000	352.509048
5.530000	390.266237
5.540000	426.568027
5.550000	463.190473
5.560000	501.327149
5.570000	518.418346
5.580000	530.227539
5.590000	550.677639
5.600000	584.472879
5.610000	616.252550
5.620000	629.085085
5.630000	626.254615
5.640000	616.417457
5.650000	601.611022
5.660000	589.471499
5.670000	583.997497
5.680000	576.531271
5.690000	563.438690
5.700000	542.970897
5.710000	531.972715
5.720000	539.431121
5.730000	562.516879
5.740000	588.239774
5.750000	616.138865
5.760000	645.090419
5.770000	663.108564
5.780000	661.996078
5.790000	643.149611
5.800000	608.949825
5.810000	570.259726
5.820000	519.565917
5.830000	463.120842
5.840000	391.519235
5.850000	310.069637
5.860000	247.918992
5.870000	200.640883
5.880000	197.459531
5.890000	193.390361
5.900000	206.221558
5.910000	232.798418
5.920000	287.414632
5.930000	358.184717
5.940000	413.938571
5.950000	448.022537
5.960000	443.485426
5.970000	409.984985
5.980000	364.437441
5.990000	330.016853
6.000000	309.385689
6.010000	296.745055
6.020000	281.707911
6.030000	264.221884
6.040000	241.409613
6.050000	225.460996
6.060000	223.485255
6.070000	253.451489
6.080000	310.887806
6.090000	392.166503
6.100000	517.745699
6.110000	704.929026
6.120000	941.579222
6.130000	1178.312721
6.140000	1377.167894
6.150000	1517.467972
6.160000	1614.914192
6.170000	1676.991987
6.180000	1701.024185
6.190000	1713.320826
6.200000	1701.419821
6.210000	1673.097633
6.220000	1616.153203
6.230000	1549.018083
6.240000	1496.630849
6.250000	1448.233754
6.260000	1417.903496
6.270000	1411.152882
6.280000	1418.863113
6.290000	1442.160807
6.300000	1470.518204
6.310000	1531.333868
6.320000	1611.122113
6.330000	1701.916664
6.340000	1758.685582
6.350000	1744.583421
6.360000	1695.844683
6.370000	1662.349327
6.380000	1669.331177
6.390000	1643.907569
6.400000	1571.706922
6.410000	1486.994660
6.420000	1441.191756
6.430000	1427.985179
6.440000	1417.340122
6.450000	1385.387997
6.460000	1335.625681
6.470000	1300.933544
6.480000	1302.942351
6.490000	1329.448148
6.500000	1356.288130
6.510000	1372.728214
6.520000	1380.396394
6.530000	1380.401998
6.540000	1377.910875
6.550000	1377.469082
6.560000	1375.464537
6.570000	1357.233975
6.580000	1329.471586
6.590000	1285.356368
6.600000	1243.275710
6.610000	1186.108947
6.620000	1131.569755
6.630000	1082.882503
6.640000	1048.939992
6.650000	1018.661669
6.660000	994.407452
6.670000	969.476086
6.680000	956.989321
6.690000	937.260175
6.700000	929.069775
6.710000	918.012516
6.720000	921.630512
6.730000	906.350130
6.740000	900.085585
6.750000	879.605841
6.760000	880.427029
6.770000	863.381216
6.780000	873.056404
6.790000	862.629843
6.800000	870.310065
6.810000	840.009971
6.820000	845.310105
6.830000	713.436779
6.840000	426.751008
6.850000	-832.168625
6.860000	-527.467373
6.870000	96.300352
6.880000	465.846180
6.890000	624.526532
6.900000	639.690002
6.910000	614.978819
6.920000	633.197448
6.930000	638.437363
6.940000	679.379113
6.950000	699.994984
6.960000	723.832376
6.970000	722.128339
6.980000	712.799620
6.990000	678.884698
7.000000	631.896894
7.010000	580.016741
7.020000	531.044310
7.030000	460.778420
7.040000	262.682788
7.050000	215.648911
7.060000	221.669290
7.070000	367.743742
7.080000	361.997718
7.090000	364.796211
7.100000	340.503003
7.110000	357.515931
7.120000	289.187082
7.130000	133.735179
7.140000	-1413.147198
7.150000	-1826.528515
7.160000	-1640.294658
7.170000	-336.282054
7.180000	-64.099990
7.190000	94.247120
7.200000	87.469008
7.210000	195.614064
7.220000	193.361127
7.230000	121.495641
7.240000	-1792.620544
7.250000	-2202.197847
7.260000	-1519.895761
7.270000	244.582886
7.280000	297.916738
7.290000	319.449881
7.300000	285.312424
7.310000	403.890800
7.320000	290.119586
7.330000	-9.899881
7.340000	-1785.928402
7.350000	-1447.886648
7.360000	526.010679
7.370000	502.314856
7.380000	412.384842
7.390000	322.041423
7.400000	358.634682
7.410000	225.976866
7.420000	-112.500209
7.430000	-705.073898
7.440000	-120.302776
7.450000	527.261525
7.460000	545.203210
7.470000	421.649879
7.480000	412.618078
7.490000	399.207290
7.500000	293.039738
7.510000	-1102.703493
7.520000	-1013.007938
7.530000	27.789128
7.540000	299.868278
7.550000	360.424212
7.560000	297.136871
7.570000	284.548314
7.580000	305.579635
7.590000	310.950815
7.600000	316.567979
7.610000	316.994268
7.620000	329.985960
7.630000	329.616706
7.640000	331.884410
7.650000	321.518273
7.660000	326.599963
7.670000	329.324861
7.680000	341.093132
7.690000	341.073341
7.700000	350.398322
7.710000	360.770764
7.720000	367.743538
7.730000	364.156525
7.740000	343.786790
7.750000	300.905441
7.760000	243.562684
7.770000	184.361323
7.780000	147.397604
7.790000	118.071375
7.800000	100.644442
7.810000	78.751210
7.820000	51.961144
7.830000	27.143516
7.840000	12.306385
7.850000	9.544649
7.860000	13.656310
7.870000	11.281091
7.880000	5.408513
7.890000	-5.638256
7.900000	-8.775393
7.910000	-8.917363
7.920000	-17.955797
7.930000	-27.117392
7.940000	-36.806098
7.950000	-42.281658
7.960000	-42.311409
7.970000	-35.758575
7.980000	-30.487505
7.990000	-26.861293
8.000000	-23.305026
8.010000	-8.250320
8.020000	16.526704
8.030000	36.678351
8.040000	35.704406
8.050000	7.988458
8.060000	-30.707975
8.070000	-75.045869
8.080000	-99.380735
8.090000	-102.463693
8.100000	-60.642129
8.110000	-10.029511
8.120000	44.865767
8.130000	117.469407
8.140000	202.336973
8.150000	295.988517
8.160000	332.985793
8.170000	330.749318
8.180000	299.628963
8.190000	270.914386
8.200000	241.858388
8.210000	200.734183
8.220000	159.832819
8.230000	120.201784
8.240000	93.514768
8.250000	65.609735
8.260000	41.928179
8.270000	22.346331
8.280000	10.027525
8.290000	2.410419
8.300000	-9.882326
8.310000	-18.801798
8.320000	-29.152003
8.330000	-40.324030
8.340000	-47.736007
8.350000	-51.852385
8.360000	-47.296590
8.370000	-39.068886
8.380000	-28.507114
8.390000	-19.953997
8.400000	-26.402109
8.410000	-33.424868
8.420000	-35.650064
8.430000	-30.565375
8.440000	-28.595688
8.450000	-36.692164
8.460000	-44.824182
8.470000	-53.176880
8.480000	-49.014076
8.490000	-44.727854
8.500000	-44.846634
8.510000	-55.280573
8.520000	-68.306717
8.530000	-73.825421
8.540000	-70.790677
8.550000	-53.356447
8.560000	-30.983055
8.570000	-14.223872
8.580000	-8.829325
8.590000	-30.118345
8.600000	-76.296375
8.610000	-135.653719
8.620000	-187.072736
8.630000	-217.212621
8.640000	-238.923550
8.650000	-251.403557
8.660000	-265.810424
8.670000	-280.897314
8.680000	-293.362220
8.690000	-301.399421
8.700000	-294.895780
8.710000	-287.638761
8.720000	-287.418125
8.730000	-299.209295
8.740000	-309.562454
8.750000	-307.459431
8.760000	-298.425472
8.770000	-293.063758
8.780000	-290.597806
8.790000	-288.671307
8.800000	-281.769347
8.810000	-271.306090
8.820000	-261.624118
8.830000	-252.269870
8.840000	-239.813198
8.850000	-217.567504
8.860000	-194.388075
8.870000	-176.869013
8.880000	-167.294843
8.890000	-153.809051
8.900000	-139.587239
8.910000	-120.072499
8.920000	-101.253551
8.930000	-80.657961
8.940000	-68.299716
8.950000	-58.212058
8.960000	-42.018757
8.970000	-20.136768
8.980000	6.246657
8.990000	29.908213
9.000000	50.851222
9.010000	68.938478
9.020000	76.754498
9.030000	58.597718
9.040000	27.722069
9.050000	-5.432975
9.060000	-24.309392
9.070000	-36.880517
9.080000	-48.015436
9.090000	-52.316606
9.100000	-56.438294
9.110000	-55.739017
9.120000	-51.227653
9.130000	-39.834843
9.140000	-23.716280
9.150000	-14.976545
9.160000	-16.197602
9.170000	-26.461117
9.180000	-35.338922
9.190000	-39.317764
9.200000	-43.524020
9.210000	-47.847042
9.220000	-54.402548
9.230000	-59.380992
9.240000	-61.642987
9.250000	-60.604677
9.260000	-57.242886
9.270000	-55.191130
9.280000	-53.519352
9.290000	-52.804454
9.300000	-48.137111
9.310000	-40.457166
9.320000	-35.123961
9.330000	-30.782016
9.340000	-32.820211
9.350000	-30.420190
9.360000	-23.236692
9.370000	-11.752399
9.380000	0.312547
9.390000	7.217495
9.400000	14.199294
9.410000	27.497205
9.420000	43.365385
9.430000	55.743700
9.440000	59.506891
9.450000	37.930890
9.460000	-1.980844
9.470000	-48.563823
9.480000	-79.133310
9.490000	-100.501513
9.500000	-118.645740
9.510000	-132.114684
9.520000	-138.852689
9.530000	-140.100048
9.540000	-142.771990
9.550000	-141.080912
9.560000	-135.071324
9.570000	-130.775861
9.580000	-134.068147
9.590000	-147.158964
9.600000	-161.066064
9.610000	-170.584564
9.620000	-180.457043
9.630000	-180.668991
9.640000	-176.255666
9.650000	-165.434618
9.660000	-159.456960
9.670000	-155.194572
9.680000	-149.024326
9.690000	-140.664747
9.700000	-126.617512
9.710000	-111.859798
9.720000	-98.571555
9.730000	-88.088011
9.740000	-81.895101
9.750000	-70.990111
9.760000	-60.627439
9.770000	-52.585905
9.780000	-46.056182
9.790000	-41.555795
9.800000	-29.828802
9.810000	-14.598993
9.820000	2.700272
9.830000	16.641973
9.840000	36.230513
9.850000	57.475173
9.860000	72.711652
9.870000	73.600570
9.880000	49.145942
9.890000	5.065380
9.900000	-53.127091
9.910000	-99.788225
9.920000	-128.493551
9.930000	-149.060687
9.940000	-163.212294
9.950000	-175.716299
9.960000	-177.935943
9.970000	-178.126966
9.980000	-178.351507
9.990000	-174.897634
10.000000	-167.151705
10.010000	-160.059961
10.020000	-164.678670
10.030000	-178.896368
10.040000	-192.894976
10.050000	-202.793183
10.060000	-205.491121
10.070000	-202.079458
10.080000	-199.481494
10.090000	-197.391005
10.100000	-192.509029
10.110000	-183.085776
10.120000	-173.933809
10.130000	-167.486817
10.140000	-158.717817
10.150000	-147.614934
10.160000	-135.886765
10.170000	-126.460190
10.180000	-116.420373
10.190000	-106.696956
10.200000	-93.655974
10.210000	-81.336230
10.220000	-73.940370
10.230000	-65.997522
10.240000	-57.622266
10.250000	-38.345479
10.260000	-24.761134
10.270000	-9.677654
10.280000	5.359548
10.290000	14.929501
10.300000	27.133773
10.310000	25.418433
10.320000	10.905802
10.330000	-36.869578
10.340000	-85.895925
10.350000	-126.604024
10.360000	-146.407734
10.370000	-161.469370
10.380000	-171.259209
10.390000	-173.716260
10.400000	-175.520677
10.410000	-170.313557
10.420000	-164.871344
10.430000	-147.580365
10.440000	-138.696461
10.450000	-136.507320
10.460000	-145.927160
10.470000	-155.443434
10.480000	-160.899233
10.490000	-167.459883
10.500000	-169.897718
10.510000	-172.223557
10.520000	-168.591205
10.530000	-162.401593
10.540000	-154.667319
10.550000	-144.965093
10.560000	-133.133781
10.570000	-116.244171
10.580000	-99.345555
10.590000	-81.229679
10.600000	-65.628064
10.610000	-48.919040
10.620000	-31.646278
10.630000	-8.984803
10.640000	8.568731
10.650000	28.273291
10.660000	44.021904
10.670000	62.507870
10.680000	82.394133
10.690000	99.007515
10.700000	116.063417
10.710000	131.765821
10.720000	151.693204
10.730000	168.094214
10.740000	181.953464
10.750000	180.658187
10.760000	154.494392
10.770000	113.549030
10.780000	71.316943
10.790000	43.050072
10.800000	22.017599
10.810000	10.514161
10.820000	9.653043
10.830000	9.552526
10.840000	6.910810
10.850000	4.545055
10.860000	11.456026
10.870000	15.081936
10.880000	5.612148
10.890000	-14.076546
10.900000	-33.273984
10.910000	-47.315626
10.920000	-65.262031
10.930000	-79.573557
10.940000	-88.664433
10.950000	-90.561985
10.960000	-89.816535
10.970000	-88.274994
10.980000	-85.360877
10.990000	-82.392326
11.000000	-73.284227
11.010000	-63.942153
11.020000	-53.589004
11.030000	-51.920748
11.040000	-50.911997
11.050000	-50.989667
11.060000	-42.942513
11.070000	-29.826492
11.080000	-13.704734
11.090000	-1.076818
11.100000	6.478359
11.110000	12.618819
11.120000	20.591685
11.130000	37.924022
11.140000	54.587720
11.150000	64.838365
11.160000	63.515850
11.170000	43.343833
11.180000	3.725710
11.190000	-45.525610
11.200000	-87.782767
11.210000	-116.827584
11.220000	-145.414181
11.230000	-167.482262
11.240000	-181.462527
11.250000	-184.872581
11.260000	-185.276832
11.270000	-183.984298
11.280000	-176.480603
11.290000	-170.201176
11.300000	-168.746393
11.310000	-182.509475
11.320000	-197.351109
11.330000	-207.915077
11.340000	-210.366724
11.350000	-212.426010
11.360000	-212.096118
11.370000	-211.020945
11.380000	-205.217597
11.390000	-197.041027
11.400000	-183.732970
11.410000	-166.145830
11.420000	-154.014408
11.430000	-140.279705
11.440000	-127.063119
11.450000	-109.804148
11.460000	-96.889839
11.470000	-91.724210
11.480000	-85.759897
11.490000	-78.743407
11.500000	-72.378543
11.510000	-71.180394
11.520000	-77.735484
11.530000	-78.650605
11.540000	-75.210040
11.550000	-64.520165
11.560000	-53.121519
11.570000	-48.470105
11.580000	-46.078246
11.590000	-60.550722
11.600000	-99.093074
11.610000	-156.342095
11.620000	-211.811829
11.630000	-248.889753
11.640000	-275.343376
11.650000	-294.504575
11.660000	-312.294895
11.670000	-322.833352
11.680000	-328.682823
11.690000	-327.562216
11.700000	-323.501650
11.710000	-322.710804
11.720000	-325.718781
11.730000	-336.282330
11.740000	-350.662897
11.750000	-365.602912
11.760000	-384.707090
11.770000	-399.304499
11.780000	-409.857915
11.790000	-412.743228
11.800000	-412.111948
11.810000	-409.256103
11.820000	-400.768554
11.830000	-391.874981
11.840000	-383.830020
11.850000	-375.235812
11.860000	-365.643467
11.870000	-351.337179
11.880000	-340.907022
11.890000	-332.158698
11.900000	-323.589040
11.910000	-316.070097
11.920000	-305.006189
11.930000	-296.093366
11.940000	-285.146586
11.950000	-278.562871
11.960000	-266.325856
11.970000	-244.132136
11.980000	-221.961871
11.990000	-207.111653
12.000000	-209.021506
12.010000	-226.814006
12.020000	-263.844044
12.030000	-312.236901
12.040000	-357.399618
12.050000	-392.766767
12.060000	-414.380711
12.070000	-420.053278
12.080000	-417.474148
12.090000	-414.425351
12.100000	-412.302106
12.110000	-413.552466
12.120000	-408.515710
12.130000	-409.826468
12.140000	-414.438643
12.150000	-420.857206
12.160000	-429.118331
12.170000	-431.953836
12.180000	-439.598784
12.190000	-445.089318
12.200000	-444.507089
12.210000	-440.662831
12.220000	-433.828026
12.230000	-430.339331
12.240000	-428.880995
12.250000	-428.436420
12.260000	-425.680771
12.270000	-421.966212
12.280000	-415.892889
12.290000	-417.948595
12.300000	-421.477899
12.310000	-426.368962
12.320000	-433.485631
12.330000	-444.545077
12.340000	-460.912495
12.350000	-479.128062
12.360000	-496.762332
12.370000	-513.804518
12.380000	-529.697511
12.390000	-537.216181
12.400000	-551.113250
12.410000	-586.047788
12.420000	-656.949937
12.430000	-732.171667
12.440000	-784.552480
12.450000	-810.112734
12.460000	-822.958202
12.470000	-832.795207
12.480000	-838.086509
12.490000	-837.899443
12.500000	-836.983825
12.510000	-837.082116
12.520000	-836.291113
12.530000	-835.024420
12.540000	-833.684919
12.550000	-839.070778
12.560000	-847.803864
12.570000	-858.208162
12.580000	-860.653907
12.590000	-855.793316
12.600000	-849.938938
12.610000	-848.127649
12.620000	-846.953368
12.630000	-841.878026
12.640000	-833.066425
12.650000	-823.053844
12.660000	-813.261903
12.670000	-804.981326
12.680000	-794.863199
12.690000	-785.677375
12.700000	-775.536661
12.710000	-765.466236
12.720000	-749.943470
12.730000	-738.714879
12.740000	-734.080848
12.750000	-727.016608
12.760000	-720.334762
12.770000	-710.384437
12.780000	-707.042841
12.790000	-721.506050
12.800000	-758.148828
12.810000	-806.670476
12.820000	-851.322778
12.830000	-881.264438
12.840000	-905.299876
12.850000	-917.232846
12.860000	-931.081259
12.870000	-945.240223
12.880000	-958.278101
12.890000	-961.642796
12.900000	-954.911788
12.910000	-950.829136
12.920000	-957.613734
12.930000	-969.724784
12.940000	-975.712956
12.950000	-976.734958
12.960000	-980.576681
12.970000	-987.804653
12.980000	-990.161903
12.990000	-991.319214
13.000000	-988.140236
13.010000	-989.946160
13.020000	-989.818490
13.030000	-987.335158
13.040000	-975.221811
13.050000	-964.518014
13.060000	-959.015113
13.070000	-956.092807
13.080000	-950.543844
13.090000	-943.426992
13.100000	-932.806171
13.110000	-925.192501
13.120000	-922.797775
13.130000	-925.692839
13.140000	-925.172268
13.150000	-912.599972
13.160000	-903.352257
13.170000	-900.545911
13.180000	-911.616179
13.190000	-948.576084
13.200000	-1000.220910
13.210000	-1060.023260
13.220000	-1111.201202
13.230000	-1152.583268
13.240000	-1190.270987
13.250000	-1212.162348
13.260000	-1234.152949
13.270000	-1252.756344
13.280000	-1272.792070
13.290000	-1283.708657
13.300000	-1284.858442
13.310000	-1286.757855
13.320000	-1293.974195
13.330000	-1309.868952
13.340000	-1324.785552
13.350000	-1337.066185
13.360000	-1348.670477
13.370000	-1357.983357
13.380000	-1367.629587
13.390000	-1380.296014
13.400000	-1393.636287
13.410000	-1400.322492
13.420000	-1396.713364
13.430000	-1386.762824
13.440000	-1382.204199
13.450000	-1379.553138
13.460000	-1377.425296
13.470000	-1370.723789
13.480000	-1368.408229
13.490000	-1366.581712
13.500000	-1363.117955
13.510000	-1355.158894
13.520000	-1344.561229
13.530000	-1337.802017
13.540000	-1330.025941
13.550000	-1320.842605
13.560000	-1309.875187
13.570000	-1297.936912
13.580000	-1288.447990
13.590000	-1296.445460
13.600000	-1329.381557
13.610000	-1379.626769
13.620000	-1425.322809
13.630000	-1455.550794
13.640000	-1479.364149
13.650000	-1498.833426
13.660000	-1512.439293
13.670000	-1519.828796
13.680000	-1513.202713
13.690000	-1506.257784
13.700000	-1497.631859
13.710000	-1491.073727
13.720000	-1484.751081
13.730000	-1476.927819
13.740000	-1472.926713
13.750000	-1471.466590
13.760000	-1471.137260
13.770000	-1471.041147
13.780000	-1470.715812
13.790000	-1467.308373
13.800000	-1462.338024
13.810000	-1452.927580
13.820000	-1438.663455
13.830000	-1424.924872
13.840000	-1413.674053
13.850000	-1412.965820
13.860000	-1407.646858
13.870000	-1395.400326
13.880000	-1377.988178
13.890000	-1362.873470
13.900000	-1346.320711
13.910000	-1325.369699
13.920000	-1301.351629
13.930000	-1277.222621
13.940000	-1254.730417
13.950000	-1235.425140
13.960000	-1217.783178
13.970000	-1200.643339
13.980000	-1183.852319
13.990000	-1170.549780
14.000000	-1169.615334
14.010000	-1200.829841
14.020000	-1249.626588
14.030000	-1294.766377
14.040000	-1308.961579
14.050000	-1307.492385
14.060000	-1293.267347
14.070000	-1274.235854
14.080000	-1234.844362
14.090000	-1184.716448
14.100000	-1116.040298
14.110000	-1044.259886
14.120000	-944.122245
14.130000	-832.916769
14.140000	-665.361074
14.150000	-391.985090
14.160000	83.290341
14.170000	1080.313673
14.180000	2214.226127
14.190000	2532.906218
14.200000	2581.285386
14.210000	2454.994101
14.220000	2377.872254
14.230000	2446.414230
14.240000	2598.707199
14.250000	2686.280906
14.260000	2649.471453
14.270000	2549.165176
14.280000	2431.883829
14.290000	2409.584475
14.300000	2473.988990
14.310000	2624.381932
14.320000	2816.332490
14.330000	2979.801797
14.340000	3109.547686
14.350000	3187.213670
14.360000	3275.013151
14.370000	3389.864379
14.380000	3545.166436
14.390000	3655.609018
14.400000	3693.176330
14.410000	3677.183747
14.420000	3611.845664
14.430000	3491.432883
14.440000	3313.894264
14.450000	3128.526303
14.460000	2963.254822
14.470000	2801.201367
14.480000	2652.728933
14.490000	2487.470639
14.500000	2359.474964
14.510000	2248.242536
14.520000	2127.914277
14.530000	1972.389049
14.540000	1825.254208
14.550000	1765.342163
14.560000	1778.047877
14.570000	1898.476074
14.580000	2107.069560
14.590000	2349.894252
14.600000	2513.306457
14.610000	2576.279868
14.620000	2573.075427
14.630000	2534.703928
14.640000	2473.841879
14.650000	2404.513312
14.660000	2348.344603
14.670000	2293.279329
14.680000	2248.956465
14.690000	2212.728207
14.700000	2185.294507
14.710000	2140.487303
14.720000	2084.773209
14.730000	2043.683457
14.740000	2029.600815
14.750000	2010.141982
14.760000	1979.888101
14.770000	1950.032037
14.780000	1929.555489
14.790000	1913.938106
14.800000	1896.269657
14.810000	1873.909479
14.820000	1832.672584
14.830000	1772.974966
14.840000	1710.170748
14.850000	1665.109943
14.860000	1626.969826
14.870000	1596.330977
14.880000	1557.445616
14.890000	1513.325238
14.900000	1473.327340
14.910000	1437.348811
14.920000	1409.943935
14.930000	1380.720184
14.940000	1342.291069
14.950000	1293.497700
14.960000	1246.062701
14.970000	1209.324524
14.980000	1179.186688
14.990000	1145.858352
15.000000	1116.747270
15.010000	1091.760979
15.020000	1071.031234
15.030000	1051.043050
15.040000	1030.377101
15.050000	1010.388902
15.060000	996.791102
15.070000	987.436000
15.080000	978.255991
15.090000	964.203221
15.100000	947.129295
15.110000	927.355679
15.120000	912.411804
15.130000	900.538665
15.140000	892.757949
15.150000	882.088955
15.160000	872.189209
15.170000	866.026522
15.180000	857.317500
15.190000	847.373986
15.200000	832.821881
15.210000	804.427570
15.220000	749.371875
15.230000	681.275810
15.240000	613.309237
15.250000	562.523217
15.260000	516.219961
15.270000	475.195981
15.280000	427.149557
15.290000	385.995483
15.300000	347.082774
15.310000	319.554029
15.320000	295.022215
15.330000	270.849275
15.340000	245.685977
15.350000	215.190287
15.360000	191.448716
15.370000	169.204053
15.380000	147.944745
15.390000	120.586551
15.400000	96.539392
15.410000	73.991407
15.420000	57.538010
15.430000	42.757733
15.440000	29.267150
15.450000	11.896870
15.460000	-10.941392
15.470000	-40.577606
15.480000	-73.083287
15.490000	-111.017838
15.500000	-147.814860
15.510000	-183.758434
15.520000	-208.799740
15.530000	-224.145101
15.540000	-234.075025
15.550000	-241.142452
15.560000	-247.966053
15.570000	-255.083117
15.580000	-264.811132
15.590000	-274.960692
15.600000	-289.957129
15.610000	-310.778342
15.620000	-342.397099
15.630000	-389.545121
15.640000	-453.109754
15.650000	-525.906425
15.660000	-592.416331
15.670000	-647.245796
15.680000	-693.697159
15.690000	-730.523145
15.700000	-765.286093
15.710000	-800.737956
15.720000	-832.472800
15.730000	-866.264916
15.740000	-891.899866
15.750000	-927.821605
15.760000	-968.545633
15.770000	-1012.339758
15.780000	-1050.456685
15.790000	-1074.476752
15.800000	-1104.062859
15.810000	-1134.498151
15.820000	-1167.638487
15.830000	-1191.432786
15.840000	-1207.536548
15.850000	-1222.666121
15.860000	-1242.382912
15.870000	-1268.173073
15.880000	-1293.492020
15.890000	-1312.633779
15.900000	-1332.253173
15.910000	-1358.377493
15.920000	-1391.617473
15.930000	-1419.035304
15.940000	-1438.629731
15.950000	-1451.653239
15.960000	-1463.604766
15.970000	-1478.885857
15.980000	-1497.852963
15.990000	-1521.404134
16.000000	-1545.371306
16.010000	-1565.539557
16.020000	-1581.183043
16.030000	-1583.603422
16.040000	-1575.309086
16.050000	-1569.647090
16.060000	-1590.079441
16.070000	-1627.885384
16.080000	-1657.753728
16.090000	-1671.787476
16.100000	-1676.082206
16.110000	-1672.292913
16.120000	-1661.357360
16.130000	-1661.795046
16.140000	-1672.526842
16.150000	-1689.904687
16.160000	-1699.948908
16.170000	-1716.036813
16.180000	-1737.613096
16.190000	-1759.770406
16.200000	-1777.556936
16.210000	-1783.108784
16.220000	-1790.841084
16.230000	-1790.992866
16.240000	-1794.126131
16.250000	-1796.783155
16.260000	-1811.733416
16.270000	-1824.776647
16.280000	-1836.658628
16.290000	-1843.032617
16.300000	-1849.554019
16.310000	-1841.508244
16.320000	-1817.093367
16.330000	-1785.956684
16.340000	-1758.575892
16.350000	-1734.315015
16.360000	-1710.325598
16.370000	-1692.302900
16.380000	-1676.989621
16.390000	-1657.552678
16.400000	-1626.924180
16.410000	-1577.738941
16.420000	-1505.804197
16.430000	-1396.165158
16.440000	-1248.994700
16.450000	-999.013291
16.460000	-617.339237
16.470000	226.011680
16.480000	1682.075542
16.490000	2336.468869
16.500000	2463.657045
16.510000	2340.898757
16.520000	2277.268625
16.530000	2282.637774
16.540000	2396.699079
16.550000	2442.185068
16.560000	2381.919004
16.570000	2221.922891
16.580000	2048.765869
16.590000	1914.304901
16.600000	1917.147801
16.610000	2050.136871
16.620000	2291.563999
16.630000	2544.837829
16.640000	2689.322569
16.650000	2746.671745
16.660000	2729.465422
16.670000	2756.540411
16.680000	2778.890546
16.690000	2804.977184
16.700000	2801.277612
16.710000	2788.975104
16.720000	2769.688789
16.730000	2713.965796
16.740000	2597.191620
16.750000	2446.176328
16.760000	2282.091112
16.770000	2152.872724
16.780000	2020.166134
16.790000	1857.681634
16.800000	1694.472695
16.810000	1531.493045
16.820000	1363.842993
16.830000	1218.806122
16.840000	1142.678896
16.850000	1139.416397
16.860000	1189.864919
16.870000	1313.880828
16.880000	1512.747024
16.890000	1681.467193
16.900000	1782.896058
16.910000	1853.670167
16.920000	1940.152482
16.930000	2006.728695
16.940000	2023.839607
16.950000	1992.953192
16.960000	1945.690298
16.970000	1890.862444
16.980000	1816.899053
16.990000	1732.240668
17.000000	1646.190807
17.010000	1568.032738
17.020000	1475.476341
17.030000	1377.992459
17.040000	1273.142825
17.050000	1175.746474
17.060000	1087.854361
17.070000	1014.254676
17.080000	948.949485
17.090000	886.845112
17.100000	835.492285
17.110000	804.186478
17.120000	784.064534
17.130000	750.563894
17.140000	705.120534
17.150000	663.392553
17.160000	646.269582
17.170000	640.873640
17.180000	624.469889
17.190000	597.162273
17.200000	575.125635
17.210000	546.117299
17.220000	482.817555
17.230000	382.550734
17.240000	269.326625
17.250000	170.403412
17.260000	74.473222
17.270000	-20.976507
17.280000	-108.610094
17.290000	-187.631558
17.300000	-252.938961
17.310000	-304.892529
17.320000	-339.513700
17.330000	-362.437898
17.340000	-395.056577
17.350000	-434.508384
17.360000	-475.183832
17.370000	-508.496149
17.380000	-537.268074
17.390000	-568.086758
17.400000	-594.910320
17.410000	-620.962357
17.420000	-643.796715
17.430000	-664.106475
17.440000	-682.275665
17.450000	-695.502080
17.460000	-702.686359
17.470000	-708.173198
17.480000	-714.352402
17.490000	-721.766779
17.500000	-727.603576
17.510000	-728.954588
17.520000	-733.478402
17.530000	-740.380609
17.540000	-745.605827
17.550000	-753.758763
17.560000	-760.303281
17.570000	-776.442060
17.580000	-807.914421
17.590000	-861.724295
17.600000	-920.721452
17.610000	-972.615537
17.620000	-1006.127008
17.630000	-1034.169061
17.640000	-1058.096732
17.650000	-1079.652968
17.660000	-1092.306446
17.670000	-1097.087085
17.680000	-1101.129087
17.690000	-1106.436652
17.700000	-1117.220701
17.710000	-1126.351348
17.720000	-1137.939491
17.730000	-1141.488910
17.740000	-1146.643261
17.750000	-1141.496955
17.760000	-1138.677410
17.770000	-1134.723799
17.780000	-1136.335769
17.790000	-1130.492759
17.800000	-1114.619064
17.810000	-1102.235470
17.820000	-1095.467222
17.830000	-1095.906160
17.840000	-1093.546242
17.850000	-1081.180522
17.860000	-1061.247665
17.870000	-1034.379083
17.880000	-1000.877262
17.890000	-965.184666
17.900000	-939.456927
17.910000	-925.557424
17.920000	-908.920133
17.930000	-901.598510
17.940000	-899.266777
17.950000	-896.899300
17.960000	-895.558300
17.970000	-902.812647
17.980000	-916.417408
17.990000	-919.613852
18.000000	-918.266215
18.010000	-924.359266
18.020000	-922.299841
18.030000	-902.381237
18.040000	-866.625890
18.050000	-819.001908
18.060000	-753.183497
18.070000	-675.583868
18.080000	-602.360634
18.090000	-546.750364
18.100000	-498.732908
18.110000	-445.167088
18.120000	-389.743327
18.130000	-343.529100
18.140000	-303.305977
18.150000	-264.812824
18.160000	-225.798496
18.170000	-189.034460
18.180000	-163.899715
18.190000	-138.788779
18.200000	-112.954171
18.210000	-77.443743
18.220000	-47.999396
18.230000	-27.318920
18.240000	-11.615946
18.250000	1.212382
18.260000	13.847100
18.270000	24.142006
18.280000	19.693794
18.290000	-5.164477
18.300000	-49.027794
18.310000	-101.032446
18.320000	-174.068516
18.330000	-273.132391
18.340000	-374.283176
18.350000	-460.838780
18.360000	-508.730481
18.370000	-530.565256
18.380000	-532.078017
18.390000	-534.252471
18.400000	-532.607549
18.410000	-524.195576
18.420000	-506.055129
18.430000	-491.768609
18.440000	-489.739372
18.450000	-492.548804
18.460000	-494.679181
18.470000	-485.230952
18.480000	-476.599428
18.490000	-469.129511
18.500000	-458.756786
18.510000	-442.613624
18.520000	-420.837707
18.530000	-398.359248
18.540000	-376.824327
18.550000	-356.682672
18.560000	-338.391752
18.570000	-318.241796
18.580000	-300.561427
18.590000	-281.023678
18.600000	-263.332715
18.610000	-242.694795
18.620000	-219.697710
18.630000	-211.991385
18.640000	-217.252808
18.650000	-226.180115
18.660000	-240.081370
18.670000	-270.975598
18.680000	-311.767776
18.690000	-342.311921
18.700000	-347.377376
18.710000	-349.996033
18.720000	-350.834584
18.730000	-350.254676
18.740000	-344.522242
18.750000	-327.080264
18.760000	-308.163714
18.770000	-281.768601
18.780000	-266.446304
18.790000	-260.641711
18.800000	-265.977271
18.810000	-269.046177
18.820000	-263.767310
18.830000	-256.724027
18.840000	-248.111383
18.850000	-240.646696
18.860000	-230.341240
18.870000	-221.495976
18.880000	-215.132239
18.890000	-215.256579
18.900000	-217.469577
18.910000	-218.923841
18.920000	-220.385539
18.930000	-219.818404
18.940000	-215.871346
18.950000	-201.598529
18.960000	-186.302337
18.970000	-169.585531
18.980000	-157.651269
18.990000	-147.112297
19.000000	-142.253670
19.010000	-146.201232
19.020000	-174.455032
19.030000	-229.151393
19.040000	-286.816939
19.050000	-334.360574
19.060000	-359.745197
19.070000	-386.229769
19.080000	-404.479955
19.090000	-427.723230
19.100000	-444.709390
19.110000	-455.810127
19.120000	-462.502983
19.130000	-469.132286
19.140000	-490.218177
19.150000	-514.610523
19.160000	-542.858348
19.170000	-562.612433
19.180000	-583.116511
19.190000	-601.806850
19.200000	-616.934763
19.210000	-621.210140
19.220000	-619.342973
19.230000	-616.170346
19.240000	-614.969699
19.250000	-613.003058
19.260000	-606.482124
19.270000	-595.400962
19.280000	-587.570372
19.290000	-578.318482
19.300000	-567.557987
19.310000	-552.113834
19.320000	-538.792198
19.330000	-527.776376
19.340000	-518.910385
19.350000	-507.978868
19.360000	-487.570414
19.370000	-462.431558
19.380000	-434.773132
19.390000	-413.785916
19.400000	-405.515886
19.410000	-431.731639
19.420000	-469.015550
19.430000	-501.913084
19.440000	-509.379878
19.450000	-514.094128
19.460000	-517.230816
19.470000	-522.828196
19.480000	-528.943305
19.490000	-527.088417
19.500000	-517.891104
19.510000	-498.548967
19.520000	-492.119152
19.530000	-490.131618
19.540000	-491.910099
19.550000	-489.234507
19.560000	-487.612500
19.570000	-485.858887
19.580000	-486.196925
19.590000	-486.677253
19.600000	-486.322246
19.610000	-477.682183
19.620000	-466.353849
19.630000	-457.890213
19.640000	-448.228366
19.650000	-435.305828
19.660000	-418.642082
19.670000	-402.936620
19.680000	-384.232395
19.690000	-366.455525
19.700000	-348.006749
19.710000	-332.855024
19.720000	-317.959898
19.730000	-305.131974
19.740000	-289.090443
19.750000	-269.284864
19.760000	-253.773654
19.770000	-235.591584
19.780000	-216.007310
19.790000	-191.746392
19.800000	-176.480810
19.810000	-186.434240
19.820000	-217.423691
19.830000	-244.255874
19.840000	-255.595523
19.850000	-257.649305
19.860000	-263.977227
19.870000	-267.842722
19.880000	-262.213240
19.890000	-251.254741
19.900000	-236.963859
19.910000	-228.205572
19.920000	-211.505785
19.930000	-198.744754
19.940000	-188.195097
19.950000	-191.170558
19.960000	-198.344568
19.970000	-192.758293
19.980000	-181.074518
19.990000	-165.181221
20.000000	-153.670562
20.010000	-144.756029
20.020000	-126.084007
20.030000	-102.557360
20.040000	-77.003579
20.050000	-57.551113
20.060000	-39.063950
20.070000	-15.051075
20.080000	10.002903
20.090000	35.952217
20.100000	51.196933
20.110000	70.854827
20.120000	86.820416
20.130000	110.304362
20.140000	131.213223
20.150000	151.950021
20.160000	170.757036
20.170000	184.421415
20.180000	198.488598
20.190000	207.359857
20.200000	217.418018
20.210000	228.779999
20.220000	225.135188
20.230000	192.038758
20.240000	146.105112
20.250000	102.127249
20.260000	74.241922
20.270000	46.301872
20.280000	31.629600
20.290000	27.603245
20.300000	29.850297
20.310000	31.736853
20.320000	32.258853
20.330000	42.409759
20.340000	53.119264
20.350000	55.256744
20.360000	47.509343
20.370000	37.637461
20.380000	34.745873
20.390000	31.483022
20.400000	25.506820
20.410000	30.216421
20.420000	41.732195
20.430000	61.476884
20.440000	74.759761
20.450000	82.961885
20.460000	92.983495
20.470000	107.617226
20.480000	123.037953
20.490000	138.463772
20.500000	154.947575
20.510000	175.834013
20.520000	198.358429
20.530000	219.388531
20.540000	243.309156
20.550000	263.766722
20.560000	284.808889
20.570000	306.321190
20.580000	330.503289
20.590000	356.389207
20.600000	383.053976
20.610000	407.642027
20.620000	407.741649
20.630000	381.475869
20.640000	347.343833
20.650000	325.172490
20.660000	316.756205
20.670000	310.358914
20.680000	310.741431
20.690000	328.088358
20.700000	357.213138
20.710000	388.668705
20.720000	410.875499
20.730000	433.504500
20.740000	450.358592
20.750000	462.224355
20.760000	468.703873
20.770000	475.827868
20.780000	485.905489
20.790000	487.594329
20.800000	494.710533
20.810000	503.848364
20.820000	519.071511
20.830000	534.611354
20.840000	550.986256
20.850000	573.257188
20.860000	598.750656
20.870000	629.788168
20.880000	662.035393
20.890000	691.860215
20.900000	719.202930
20.910000	743.805217
20.920000	762.904265
20.930000	783.317714
20.940000	804.126029
20.950000	824.038030
20.960000	842.225061
20.970000	858.636967
20.980000	876.877757
20.990000	892.424351
21.000000	900.407406
21.010000	916.814054
21.020000	924.391252
21.030000	912.768605
21.040000	877.604715
21.050000	841.009306
21.060000	821.689434
21.070000	804.371039
21.080000	787.025321
21.090000	774.299651
21.100000	772.581610
21.110000	774.071997
21.120000	777.706167
21.130000	786.739712
21.140000	807.723673
21.150000	822.223089
21.160000	824.995420
21.170000	815.270471
21.180000	809.199071
21.190000	800.141054
21.200000	778.948665
21.210000	736.899329
21.220000	692.994616
21.230000	670.890950
21.240000	673.872187
21.250000	697.749963
21.260000	728.277050
21.270000	770.884943
21.280000	814.191311
21.290000	854.597204
21.300000	888.327977
21.310000	922.562751
21.320000	952.989928
21.330000	980.098631
21.340000	1007.217120
21.350000	1033.179904
21.360000	1059.008337
21.370000	1081.808722
21.380000	1101.365482
21.390000	1116.326588
21.400000	1131.298087
21.410000	1157.421754
21.420000	1188.409078
21.430000	1223.759314
21.440000	1256.061151
21.450000	1262.280919
21.460000	1245.010776
21.470000	1210.038677
21.480000	1195.610458
21.490000	1190.889396
21.500000	1183.433687
21.510000	1170.327745
21.520000	1156.506781
21.530000	1161.367613
21.540000	1170.716236
21.550000	1184.007069
21.560000	1194.136589
21.570000	1200.560249
21.580000	1204.791764
21.590000	1207.339958
21.600000	1212.687254
21.610000	1220.001240
21.620000	1228.813342
21.630000	1241.232624
21.640000	1255.826139
21.650000	1275.372084
21.660000	1301.064494
21.670000	1326.721252
21.680000	1349.207902
21.690000	1371.651008
21.700000	1394.240003
21.710000	1416.141406
21.720000	1437.170687
21.730000	1455.858416
21.740000	1466.653634
21.750000	1476.172307
21.760000	1488.025105
21.770000	1507.721497
21.780000	1525.919165
21.790000	1543.863100
21.800000	1565.717854
21.810000	1590.553922
21.820000	1619.418442
21.830000	1645.118498
21.840000	1673.049896
21.850000	1706.573670
21.860000	1736.543066
21.870000	1735.875524
21.880000	1714.366666
21.890000	1689.427288
21.900000	1679.087470
21.910000	1679.146663
21.920000	1683.364493
21.930000	1694.452256
21.940000	1709.520902
21.950000	1734.342861
21.960000	1768.554793
21.970000	1804.440708
21.980000	1836.488597
21.990000	1864.780861
22.000000	1892.992277
22.010000	1919.666653
22.020000	1938.375075
22.030000	1953.474546
22.040000	1968.648189
22.050000	1995.529452
22.060000	2024.420889
22.070000	2054.834142
22.080000	2087.755102
22.090000	2119.349350
22.100000	2143.640135
22.110000	2149.072208
22.120000	2149.818392
22.130000	2151.995072
22.140000	2161.216966
22.150000	2174.448754
22.160000	2184.157295
22.170000	2203.512930
22.180000	2221.918818
22.190000	2244.506269
22.200000	2263.196168
22.210000	2279.744865
22.220000	2302.375641
22.230000	2325.161730
22.240000	2354.137857
22.250000	2380.086001
22.260000	2400.801363
22.270000	2401.189610
22.280000	2394.757529
22.290000	2385.814747
22.300000	2394.302753
22.310000	2411.573472
22.320000	2436.078895
22.330000	2462.198386
22.340000	2479.719074
22.350000	2495.746776
22.360000	2506.203690
22.370000	2525.888062
22.380000	2546.498460
22.390000	2561.908117
22.400000	2571.680838
22.410000	2584.491007
22.420000	2612.409508
22.430000	2642.875675
22.440000	2678.047153
22.450000	2719.459621
22.460000	2754.846961
22.470000	2790.627357
22.480000	2828.164411
22.490000	2877.349075
22.500000	2919.265652
22.510000	2950.642337
22.520000	2981.263646
22.530000	3024.471894
22.540000	3086.434068
22.550000	3160.122940
22.560000	3230.438954
22.570000	3283.298969
22.580000	3319.672912
22.590000	3349.018219
22.600000	3384.435613
22.610000	3422.877327
22.620000	3452.022510
22.630000	3473.957770
22.640000	3502.488769
22.650000	3548.877123
22.660000	3598.060660
22.670000	3620.600267
22.680000	3615.552752
22.690000	3606.230601
22.700000	3604.185057
22.710000	3613.344437
22.720000	3612.250643
22.730000	3616.060390
22.740000	3628.451441
22.750000	3661.297426
22.760000	3702.750803
22.770000	3731.002608
22.780000	3745.268515
22.790000	3749.212352
22.800000	3774.019213
22.810000	3840.883748
22.820000	3990.310379
22.830000	4249.337238
22.840000	4626.586947
22.850000	5218.906210
22.860000	6143.398515
22.870000	7068.951345
22.880000	7622.823737
22.890000	8078.489897
22.900000	8392.303035
22.910000	8592.119375
22.920000	8755.833530
22.930000	8904.408466
22.940000	9052.144087
22.950000	9155.000189
22.960000	9276.878430
22.970000	9404.839236
22.980000	9446.851586
22.990000	9458.537476
23.000000	9472.546183
23.010000	9506.643535
23.020000	9412.229977
23.030000	9236.062999
23.040000	9010.648787
23.050000	8779.617765
23.060000	8489.235461
23.070000	8116.787948
23.080000	7500.530058
23.090000	6492.368913
23.100000	5496.027156
23.110000	4388.686345
23.120000	3590.390985
23.130000	2820.077926
23.140000	1799.121137
23.150000	937.271780
23.160000	67.573271
23.170000	-708.988637
23.180000	-1507.561958
23.190000	-2045.400962
23.200000	-2465.623794
23.210000	-2825.893544
23.220000	-3123.894618
23.230000	-3365.299256
23.240000	-3622.755786
23.250000	-3842.314593
23.260000	-3940.496305
23.270000	-3918.191879
23.280000	-3806.285830
23.290000	-3654.423704
23.300000	-3465.252306
23.310000	-3294.109286
23.320000	-3196.197094
23.330000	-3143.882329
23.340000	-3120.824144
23.350000	-3095.935700
23.360000	-3079.889616
23.370000	-3084.318312
23.380000	-3115.937714
23.390000	-3150.949415
23.400000	-3161.643523
23.410000	-3145.320467
23.420000	-3130.776541
23.430000	-3130.323038
23.440000	-3138.874649
23.450000	-3161.034479
23.460000	-3207.674940
23.470000	-3255.673530
23.480000	-3278.489484
23.490000	-3268.724776
23.500000	-3253.427545
23.510000	-3236.744633
23.520000	-3233.428828
23.530000	-3232.396849
23.540000	-3224.140299
23.550000	-3211.792170
23.560000	-3181.181797
23.570000	-3161.352882
23.580000	-3142.164832
23.590000	-3136.695635
23.600000	-3128.454012
23.610000	-3113.796770
23.620000	-3100.500031
23.630000	-3085.596234
23.640000	-3065.942417
23.650000	-3035.453458
23.660000	-2994.804849
23.670000	-2959.755875
23.680000	-2930.363519
23.690000	-2903.457708
23.700000	-2876.668230
23.710000	-2845.232358
23.720000	-2817.757912
23.730000	-2782.033585
23.740000	-2743.314816
23.750000	-2704.917540
23.760000	-2673.972377
23.770000	-2652.212289
23.780000	-2624.009964
23.790000	-2598.671967
23.800000	-2574.114769
23.810000	-2551.240386
23.820000	-2545.695971
23.830000	-2562.550992
23.840000	-2595.017837
23.850000	-2614.911367
23.860000	-2619.854417
23.870000	-2622.425259
23.880000	-2616.754698
23.890000	-2613.768223
23.900000	-2613.075405
23.910000	-2614.899591
23.920000	-2610.493385
23.930000	-2588.480830
23.940000	-2573.803367
23.950000	-2565.117273
23.960000	-2564.251258
23.970000	-2563.525243
23.980000	-2557.838975
23.990000	-2552.095177
24.000000	-2538.528120
24.010000	-2524.511297
24.020000	-2511.674462
24.030000	-2497.056132
24.040000	-2481.975555
24.050000	-2463.400328
24.060000	-2445.776808
24.070000	-2420.189065
24.080000	-2395.442917
24.090000	-2363.749999
24.100000	-2336.313872
24.110000	-2310.761222
24.120000	-2286.010837
24.130000	-2258.589868
24.140000	-2225.200459
24.150000	-2192.940750
24.160000	-2162.534411
24.170000	-2143.144792
24.180000	-2121.972818
24.190000	-2104.231197
24.200000	-2083.212814
24.210000	-2071.874026
24.220000	-2067.580481
24.230000	-2086.072544
24.240000	-2115.378640
24.250000	-2142.776976
24.260000	-2155.018014
24.270000	-2164.729826
24.280000	-2175.477838
24.290000	-2186.183244
24.300000	-2193.111663
24.310000	-2196.496813
24.320000	-2201.275599
24.330000	-2192.942104
24.340000	-2187.041781
24.350000	-2178.518419
24.360000	-2175.365969
24.370000	-2162.554872
24.380000	-2139.587973
24.390000	-2118.484783
24.400000	-2095.961527
24.410000	-2071.617349
24.420000	-2043.861022
24.430000	-2014.289010
24.440000	-1984.959908
24.450000	-1954.149504
24.460000	-1919.590950
24.470000	-1883.222940
24.480000	-1844.083147
24.490000	-1807.517211
24.500000	-1775.437132
24.510000	-1745.338266
24.520000	-1720.680766
24.530000	-1695.340605
24.540000	-1670.152116
24.550000	-1642.877431
24.560000	-1613.841071
24.570000	-1585.632008
24.580000	-1556.062727
24.590000	-1528.615590
24.600000	-1501.149973
24.610000	-1476.829030
24.620000	-1448.424887
24.630000	-1419.957144
24.640000	-1408.954916
24.650000	-1425.617358
24.660000	-1453.631908
24.670000	-1471.149682
24.680000	-1473.912057
24.690000	-1471.609347
24.700000	-1468.065968
24.710000	-1459.271533
24.720000	-1440.776872
24.730000	-1410.499234
24.740000	-1378.748300
24.750000	-1349.603775
24.760000	-1326.947259
24.770000	-1310.592666
24.780000	-1295.362135
24.790000	-1285.504506
24.800000	-1277.988160
24.810000	-1277.335654
24.820000	-1275.478904
24.830000	-1266.405813
24.840000	-1253.897300
24.850000	-1235.025683
24.860000	-1210.561364
24.870000	-1184.891698
24.880000	-1159.119978
24.890000	-1133.994326
24.900000	-1104.567881
24.910000	-1071.685128
24.920000	-1030.239036
24.930000	-984.308079
24.940000	-943.833865
24.950000	-911.151686
24.960000	-890.008087
24.970000	-869.531290
24.980000	-861.487926
24.990000	-851.750499
25.000000	-850.947098
25.010000	-852.835322
25.020000	-864.020778
25.030000	-869.106196
25.040000	-873.064148
25.050000	-882.629575
25.060000	-905.692270
25.070000	-951.739497
25.080000	-1007.841550
25.090000	-1061.433714
25.100000	-1094.225621
25.110000	-1115.788861
25.120000	-1133.187758
25.130000	-1140.360113
25.140000	-1138.422301
25.150000	-1132.863257
25.160000	-1126.904351
25.170000	-1120.277731
25.180000	-1105.287417
25.190000	-1101.021016
25.200000	-1103.529617
25.210000	-1110.023709
25.220000	-1099.311307
25.230000	-1078.695167
25.240000	-1054.013272
25.250000	-1025.275373
25.260000	-991.972350
25.270000	-953.447488
25.280000	-913.870769
25.290000	-868.187448
25.300000	-821.390391
25.310000	-771.168036
25.320000	-716.842270
25.330000	-652.395473
25.340000	-584.925422
25.350000	-517.206684
25.360000	-458.957020
25.370000	-413.262784
25.380000	-377.569951
25.390000	-353.594486
25.400000	-333.086434
25.410000	-314.208440
25.420000	-303.223514
25.430000	-305.418437
25.440000	-309.581045
25.450000	-317.931465
25.460000	-324.850218
25.470000	-345.769188
25.480000	-375.329529
25.490000	-402.525673
25.500000	-404.377251
25.510000	-375.264836
25.520000	-335.431357
25.530000	-314.298247
25.540000	-305.322743
25.550000	-311.293696
25.560000	-360.888657
25.570000	-445.122804
25.580000	-539.348999
25.590000	-618.555366
25.600000	-691.506906
25.610000	-780.296330
25.620000	-897.577683
25.630000	-1013.860662
25.640000	-1097.247960
25.650000	-1112.355178
25.660000	-1086.697735
25.670000	-1042.776296
25.680000	-972.337046
25.690000	-888.196248
25.700000	-787.875597
25.710000	-708.332707
25.720000	-656.272857
25.730000	-615.013663
25.740000	-574.965260
25.750000	-531.985504
25.760000	-505.331442
25.770000	-481.811318
25.780000	-452.653107
25.790000	-419.609628
25.800000	-390.267961
25.810000	-373.355141
25.820000	-366.797458
25.830000	-366.372627
25.840000	-362.256343
25.850000	-353.359108
25.860000	-349.022440
25.870000	-347.928434
25.880000	-361.101449
25.890000	-389.415781
25.900000	-427.442596
25.910000	-464.167454
25.920000	-493.410236
25.930000	-513.879311
25.940000	-522.319448
25.950000	-518.212524
25.960000	-506.858680
25.970000	-505.526180
25.980000	-508.281955
25.990000	-511.794942
26.000000	-492.263823
26.010000	-464.117040
26.020000	-442.195340
26.030000	-436.039947
26.040000	-430.340809
26.050000	-405.232724
26.060000	-370.182728
26.070000	-333.705608
26.080000	-312.663796
26.090000	-295.048914
26.100000	-284.136723
26.110000	-271.309595
26.120000	-258.589071
26.130000	-226.127231
26.140000	-182.068811
26.150000	-134.562207
26.160000	-92.167162
26.170000	-55.927504
26.180000	-15.518737
26.190000	22.375890
26.200000	69.228140
26.210000	116.338988
26.220000	157.028854
26.230000	185.017993
26.240000	209.586964
26.250000	243.755106
26.260000	279.802466
26.270000	317.226244
26.280000	340.022774
26.290000	358.817745
26.300000	365.572217
26.310000	362.484266
26.320000	347.490028
26.330000	328.558252
26.340000	325.486738
26.350000	342.301827
26.360000	370.160836
26.370000	388.057889
26.380000	402.288973
26.390000	402.480373
26.400000	407.877153
26.410000	404.523513
26.420000	400.236793
26.430000	392.917551
26.440000	380.307275
26.450000	375.397896
26.460000	373.038819
26.470000	368.590338
26.480000	356.144038
26.490000	339.519789
26.500000	331.316789
26.510000	329.117876
26.520000	330.198365
26.530000	332.092800
26.540000	325.436905
26.550000	312.475305
26.560000	297.723828
26.570000	289.577057
26.580000	285.355375
26.590000	284.392487
26.600000	290.707714
26.610000	304.906237
26.620000	320.748722
26.630000	326.779565
26.640000	316.844631
26.650000	290.709255
26.660000	251.656736
26.670000	214.042318
26.680000	179.473218
26.690000	152.422401
26.700000	126.966718
26.710000	106.867745
26.720000	97.837325
26.730000	95.323069
26.740000	99.759554
26.750000	103.460431
26.760000	109.415200
26.770000	108.601984
26.780000	105.478133
26.790000	99.767218
26.800000	97.929334
26.810000	94.268579
26.820000	86.759880
26.830000	82.497330
26.840000	82.275213
26.850000	89.769165
26.860000	98.464140
26.870000	102.410549
26.880000	102.372581
26.890000	100.423012
26.900000	107.004573
26.910000	116.424797
26.920000	124.340318
26.930000	132.810625
26.940000	138.694644
26.950000	151.597397
26.960000	161.360364
26.970000	176.801706
26.980000	184.329686
26.990000	177.055983
27.000000	153.344727
27.010000	128.387504
27.020000	115.719311
27.030000	115.713368
27.040000	125.448404
27.050000	150.759905
27.060000	191.524147
27.070000	238.811669
27.080000	296.330409
27.090000	367.224087
27.100000	456.169477
27.110000	547.943500
27.120000	629.709806
27.130000	701.726636
27.140000	764.611929
27.150000	818.869977
27.160000	854.846374
27.170000	876.410388
27.180000	890.448730
27.190000	886.596063
27.200000	836.026049
27.210000	760.947257
27.220000	702.346634
27.230000	713.356503
27.240000	763.127585
27.250000	816.110194
27.260000	844.620483
27.270000	858.323127
27.280000	861.789032
27.290000	810.089389
27.300000	742.544564
27.310000	669.464521
27.320000	631.404676
27.330000	590.311546
27.340000	546.390618
27.350000	495.834576
27.360000	444.757111
27.370000	395.366455
27.380000	358.165566
27.390000	332.219031
27.400000	309.573121
27.410000	290.445355
27.420000	269.650067
27.430000	252.718270
27.440000	242.068545
27.450000	234.993439
27.460000	224.825400
27.470000	218.655236
27.480000	205.882084
27.490000	197.724965
27.500000	187.236457
27.510000	188.198794
27.520000	189.870214
27.530000	192.716388
27.540000	188.826858
27.550000	186.624310
27.560000	180.423127
27.570000	171.228556
27.580000	163.706968
27.590000	143.457518
27.600000	104.022614
27.610000	44.377626
27.620000	-7.907412
27.630000	-44.078590
27.640000	-68.197714
27.650000	-90.544061
27.660000	-113.124575
27.670000	-139.339738
27.680000	-158.339106
27.690000	-171.496232
27.700000	-177.540717
27.710000	-188.350277
27.720000	-206.044059
27.730000	-225.513433
27.740000	-242.880170
27.750000	-254.674192
27.760000	-265.401761
27.770000	-274.484981
27.780000	-281.922685
27.790000	-288.964040
27.800000	-297.109553
27.810000	-302.427181
27.820000	-308.984476
27.830000	-312.199729
27.840000	-313.877179
27.850000	-313.967835
27.860000	-313.774650
27.870000	-317.746040
27.880000	-320.647388
27.890000	-324.212313
27.900000	-325.844228
27.910000	-326.023430
27.920000	-323.372753
27.930000	-317.842038
27.940000	-309.572709
27.950000	-303.344678
27.960000	-297.426459
27.970000	-289.517820
27.980000	-297.340983
27.990000	-325.995788
28.000000	-365.888356
28.010000	-392.105265
28.020000	-408.187842
28.030000	-426.580192
28.040000	-441.779405
28.050000	-444.386156
28.060000	-438.750835
28.070000	-428.198435
28.080000	-420.410390
28.090000	-401.294093
28.100000	-394.182942
28.110000	-384.629874
28.120000	-378.355124
28.130000	-361.924297
28.140000	-339.587474
28.150000	-318.906422
28.160000	-292.457612
28.170000	-260.254924
28.180000	-220.335273
28.190000	-164.599861
28.200000	-78.542287
28.210000	45.021139
28.220000	201.871767
28.230000	356.875950
28.240000	495.661234
28.250000	591.347803
28.260000	656.209300
28.270000	692.776954
28.280000	716.108820
28.290000	706.092879
28.300000	680.428549
28.310000	642.017498
28.320000	616.459600
28.330000	624.243363
28.340000	652.380290
28.350000	725.219663
28.360000	788.398969
28.370000	799.542685
28.380000	743.138180
28.390000	667.353642
28.400000	663.307997
28.410000	734.235460
28.420000	823.625563
28.430000	866.739449
28.440000	858.752048
28.450000	870.094079
28.460000	912.026212
28.470000	942.278118
28.480000	924.292069
28.490000	864.890204
28.500000	762.844275
28.510000	600.097414
28.520000	431.236895
28.530000	288.216226
28.540000	174.524643
28.550000	64.895568
28.560000	-34.796366
28.570000	-98.063229
28.580000	-144.271876
28.590000	-160.295137
28.600000	-159.516355
28.610000	-125.809284
28.620000	-73.541678
28.630000	-9.333036
28.640000	27.645579
28.650000	-14.256208
28.660000	-111.660034
28.670000	-247.228711
28.680000	-381.939285
28.690000	-519.351833
28.700000	-639.187182
28.710000	-721.844731
28.720000	-780.560300
28.730000	-822.690299
28.740000	-840.929078
28.750000	-849.965982
28.760000	-857.314957
28.770000	-885.319636
28.780000	-923.983007
28.790000	-962.375481
28.800000	-991.026901
28.810000	-1015.845807
28.820000	-1043.445375
28.830000	-1079.352861
28.840000	-1112.190854
28.850000	-1137.586304
28.860000	-1151.310925
28.870000	-1157.216505
28.880000	-1167.161250
28.890000	-1176.844277
28.900000	-1195.089925
28.910000	-1213.133047
28.920000	-1233.759972
28.930000	-1249.102526
28.940000	-1265.178448
28.950000	-1275.414692
28.960000	-1285.675324
28.970000	-1297.425980
28.980000	-1313.554263
28.990000	-1326.453550
29.000000	-1329.146974
29.010000	-1330.236214
29.020000	-1332.770330
29.030000	-1336.723241
29.040000	-1337.427320
29.050000	-1335.270767
29.060000	-1333.806504
29.070000	-1338.203114
29.080000	-1345.544070
29.090000	-1353.517909
29.100000	-1364.007465
29.110000	-1373.198210
29.120000	-1387.212813
29.130000	-1394.879169
29.140000	-1399.506249
29.150000	-1405.946159
29.160000	-1405.143417
29.170000	-1408.117012
29.180000	-1416.135987
29.190000	-1430.670710
29.200000	-1430.782737
29.210000	-1392.598836
29.220000	-1322.227743
29.230000	-1235.269013
29.240000	-1137.361442
29.250000	-1035.993716
29.260000	-929.519547
29.270000	-836.155848
29.280000	-766.372622
29.290000	-565.004584
