2025-07-21 15:06:44    绿光---红外光---红光---X轴---Y轴---Z轴
35249 159006 185589 -16424 -400 -64
35243 158993 185591 -16475 -497 -35
35237 158979 185582 -16539 -623 -47
35237 158975 185588 -16560 -728 -109
35240 158988 185609 -16534 -803 -184
35244 159010 185630 -16468 -826 -239
35252 159020 185639 -16382 -785 -264
35261 159034 185646 -16317 -701 -249
35268 159056 185660 -16273 -566 -222
35276 159066 185669 -16252 -362 -221
35281 159085 185692 -16284 -131 -215
35289 159096 185710 -16349 42 -172
35300 159129 185732 -16426 141 -99
35311 159152 185761 -16503 168 -36
35323 159181 185783 -16555 147 -23
35338 159210 185809 -16567 133 -40
35353 159227 185824 -16547 136 -46
35367 159259 185851 -16502 147 -38
35378 159275 185857 -16457 164 -15
35388 159286 185859 -16416 194 26
35399 159284 185855 -16355 229 44
35412 159299 185854 -16310 255 47
35421 159306 185857 -16308 269 75
35437 159332 185861 -16327 279 131
35450 159359 185882 -16343 289 204
35460 159367 185891 -16334 297 256
35459 159346 185868 -16314 316 276
35446 159311 185843 -16300 333 285
35433 159277 185827 -16334 314 307
35420 159261 185815 -16404 284 289
35413 159248 185813 -16452 254 293
35403 159227 185795 -16476 226 289
35395 159215 185789 -16496 208 281
35383 159195 185774 -16489 185 258
35375 159181 185764 -16454 161 220
35374 159190 185768 -16405 153 219
35375 159198 185777 -16346 164 246
35382 159209 185781 -16297 186 275
35387 159217 185784 -16349 177 242
35390 159225 185791 -16399 174 207
35396 159232 185803 -16442 181 184
35399 159247 185811 -16473 180 161
35406 159269 185822 -16481 178 155
35411 159284 185826 -16468 178 149
35423 159314 185862 -16453 186 133
35435 159344 185890 -16437 210 132
35450 159375 185912 -16406 245 205
35465 159398 185933 -16411 258 242
35477 159419 185947 -16425 258 258
35489 159423 185946 -16436 244 266
35502 159427 185946 -16443 222 270
35511 159440 185947 -16451 198 256
35523 159459 185953 -16450 183 213
35533 159473 185964 -16428 177 161
35548 159490 185966 -16379 178 127
35561 159516 185973 -16333 198 138
35574 159528 185985 -16328 230 186
35568 159501 185960 -16373 237 220
35557 159464 185929 -16440 227 222
35543 159436 185906 -16475 206 198
35528 159419 185902 -16474 174 164
35516 159406 185897 -16461 166 150
35508 159391 185886 -16441 175 149
35496 159365 185874 -16421 172 142
35487 159356 185864 -16410 165 156
35481 159350 185861 -16404 166 186
35476 159350 185858 -16383 155 230
35479 159363 185875 -16392 184 207
35485 159377 185886 -16393 203 189
35487 159380 185890 -16410 208 173
35490 159390 185893 -16438 213 153
35497 159392 185885 -16452 218 152
35502 159397 185891 -16454 231 175
35505 159404 185889 -16441 242 177
35511 159405 185886 -16430 235 178
35520 159422 185888 -16415 221 203
35530 159429 185889 -16406 216 225
35542 159450 185898 -16406 219 212
35552 159465 185905 -16407 225 175
35560 159481 185919 -16416 227 158
35573 159499 185930 -16416 222 161
35585 159518 185939 -16417 218 162
35598 159541 185947 -16430 220 154
35609 159563 185953 -16446 220 157
35624 159573 185966 -16447 212 156
35637 159593 185975 -16407 202 154
35648 159615 185978 -16411 212 149
35658 159618 185976 -16437 224 145
35657 159597 185953 -16449 217 151
35642 159556 185912 -16441 215 165
35628 159520 185898 -16414 222 175
35611 159510 185882 -16409 224 178
35598 159491 185878 -16428 225 173
35586 159472 185866 -16449 216 146
35575 159459 185861 -16468 193 139
35563 159448 185848 -16452 175 165
35555 159439 185847 -16426 184 170
35548 159433 185839 -16415 197 151
35549 159447 185853 -16391 208 147
35551 159455 185865 -16373 208 145
35558 159468 185869 -16381 201 141
35561 159479 185876 -16418 205 141
35566 159486 185883 -16452 207 139
35573 159504 185890 -16461 204 135
35579 159509 185899 -16449 197 128
35585 159520 185902 -16431 182 134
35592 159529 185906 -16436 183 147
35600 159539 185918 -16443 200 158
35611 159560 185925 -16438 207 167
35620 159576 185936 -16417 200 160
35629 159594 185941 -16402 192 148
35638 159611 185952 -16413 189 134
35650 159627 185956 -16430 179 121
35659 159649 185970 -16442 178 120
35672 159665 185978 -16445 186 127
35684 159685 185979 -16386 172 139
35697 159700 185989 -16402 183 115
35709 159714 185994 -16448 189 94
35718 159729 185993 -16496 179 78
35715 159711 185980 -16529 168 55
35699 159661 185947 -16522 147 35
35685 159637 185925 -16468 129 28
35671 159612 185919 -16426 123 37
35656 159600 185913 -16386 110 42
35644 159586 185911 -16319 78 46
35633 159573 185898 -16279 42 72
35625 159563 185893 -16267 53 103
35619 159571 185902 -16269 94 129
35612 159572 185908 -16279 134 132
35607 159578 185915 -16279 176 103
35611 159592 185925 -16301 220 88
35610 159586 185911 -16368 271 102
35610 159592 185910 -16444 286 93
35611 159596 185915 -16521 247 84
35616 159599 185924 -16588 178 84
35618 159604 185928 -16606 111 51
35624 159616 185941 -16585 86 -20
35633 159635 185951 -16551 89 -73
35639 159648 185959 -16493 100 -73
35648 159660 185958 -16420 109 -62
35659 159674 185965 -16367 120 -58
35665 159690 185967 -16340 148 -62
35677 159704 185974 -16346 176 -55
35685 159720 185975 -16377 183 -57
35698 159737 185993 -16395 183 -72
35710 159758 186002 -16393 202 -81
35720 159777 186018 -16398 227 -107
35734 159803 186027 -16412 252 -142
35746 159814 186043 -16438 278 -162
35755 159828 186050 -16473 299 -163
35754 159804 186039 -16498 324 -162
35739 159765 186015 -16502 351 -162
35720 159743 185999 -16474 392 -146
35702 159722 185996 -16436 449 -104
35689 159705 185991 -16415 504 -70
35674 159694 185985 -16391 556 -54
35653 159678 185974 -16382 586 -41
35635 159651 185962 -16404 593 -35
35621 159639 185953 -16422 585 -20
35608 159624 185949 -16422 569 -2
35602 159628 185949 -16408 549 17
35601 159628 185944 -16393 518 47
35601 159620 185937 -16386 473 62
35598 159612 185923 -16389 430 73
35596 159611 185920 -16403 394 73
35598 159615 185915 -16400 328 -4
35598 159614 185912 -16410 311 -62
35602 159625 185919 -16421 298 -115
35604 159625 185927 -16431 281 -138
35608 159641 185928 -16435 269 -117
35613 159657 185939 -16433 267 -71
35620 159665 185943 -16430 275 -22
35624 159669 185949 -16427 288 24
35634 159687 185949 -16428 303 69
35643 159701 185951 -16431 321 109
35653 159722 185953 -16432 331 134
35665 159726 185950 -16438 314 119
35673 159737 185954 -16443 280 59
35681 159751 185948 -16446 262 -12
35692 159762 185943 -16453 244 -74
35703 159759 185933 -16479 211 -112
35695 159734 185901 -16513 169 -139
35681 159678 185855 -16533 116 -176
35660 159644 185825 -16529 59 -212
35638 159616 185804 -16514 17 -239
35618 159586 185783 -16502 -20 -241
35602 159561 185760 -16496 -17 -245
35585 159534 185738 -16489 17 -243
35568 159513 185722 -16471 19 -198
35555 159494 185708 -16456 8 -149
35543 159483 185701 -16454 -23 -108
35531 159475 185699 -16445 -61 -75
35531 159481 185694 -16410 -77 -75
35529 159474 185676 -16367 -77 -71
35529 159466 185661 -16344 -72 -50
35528 159467 185655 -16362 -165 -11
35527 159471 185652 -16374 -198 -69
35527 159474 185647 -16376 -240 -126
35528 159470 185643 -16401 -256 -133
35531 159467 185631 -16423 -243 -115
35540 159480 185631 -16427 -204 -96
35550 159491 185642 -16422 -174 -99
35558 159515 185660 -16391 -149 -134
35566 159532 185682 -16365 -114 -153
35579 159544 185691 -16361 -92 -133
35585 159565 185708 -16382 -61 -101
35594 159577 185715 -16415 -4 -70
35604 159591 185721 -16423 61 -47
35616 159617 185733 -16399 101 -51
35625 159635 185743 -16371 118 -71
35637 159647 185746 -16378 122 -81
35645 159669 185756 -16403 123 -82
35651 159679 185762 -16419 128 -88
35644 159661 185756 -16435 118 -109
35627 159626 185737 -16426 95 -109
35602 159602 185726 -16381 106 -64
35584 159584 185710 -16374 163 -13
35566 159568 185703 -16411 197 20
35549 159549 185694 -16426 204 20
35533 159532 185687 -16432 203 -21
35512 159520 185690 -16454 184 -86
35499 159508 185686 -16477 135 -151
35486 159500 185676 -16488 74 -192
35479 159507 185688 -16486 33 -200
35480 159530 185713 -16475 14 -188
35479 159535 185716 -16443 -5 -198
35481 159547 185728 -16421 -3 -227
35485 159565 185743 -16431 25 -223
35490 159581 185755 -16454 53 -161
35494 159603 185770 -16442 96 -113
35502 159628 185800 -16390 144 -99
35509 159655 185824 -16378 187 -83
35517 159693 185857 -16404 224 -75
35526 159714 185874 -16432 267 -67
35536 159734 185898 -16459 302 -36
35545 159757 185913 -16470 327 23
35558 159787 185939 -16464 364 87
35571 159812 185953 -16469 399 135
35583 159832 185977 -16468 415 141
35598 159863 185993 -16444 416 128
35612 159886 186012 -16413 425 144
35625 159917 186023 -16387 442 163
35637 159937 186050 -16380 452 151
35646 159957 186063 -16382 463 126
35640 159938 186047 -16397 484 96
35621 159899 186016 -16415 496 125
35599 159869 185985 -16418 538 238
35581 159847 185984 -16439 573 316
35561 159830 185978 -16471 571 289
35545 159809 185964 -16490 542 201
35529 159795 185951 -16496 527 130
35511 159780 185950 -16480 532 117
35501 159780 185961 -16437 531 150
35495 159794 185985 -16391 543 159
35492 159815 186005 -16361 561 121
35498 159839 186027 -16351 598 88
35503 159858 186041 -16385 678 169
35509 159871 186051 -16414 794 304
35517 159887 186065 -16393 889 353
35525 159906 186076 -16390 929 356
35531 159916 186080 -16401 925 327
35535 159924 186083 -16399 886 292
35542 159937 186080 -16423 843 322
35548 159951 186088 -16461 817 352
35554 159962 186092 -16467 778 305
35562 159964 186089 -16466 721 239
35569 159973 186077 -16499 658 213
35578 159983 186070 -16518 647 251
35587 159987 186076 -16492 686 280
35597 159997 186070 -16447 701 253
35608 160010 186074 -16410 688 248
35619 160012 186059 -16371 667 283
35634 160010 186045 -16308 642 308
35649 160014 186027 -16210 616 351
35662 160002 186003 -16113 595 382
35662 159971 185960 -15982 548 119
35645 159920 185900 -16074 481 -54
35621 159873 185866 -16221 415 -188
35603 159841 185833 -16372 351 -280
35584 159815 185805 -16507 272 -322
35567 159783 185776 -16596 184 -312
35549 159745 185744 -16626 107 -292
35532 159717 185721 -16609 61 -291
35519 159692 185702 -16552 43 -333
35508 159679 185695 -16493 -2 -407
35503 159673 185695 -16493 -41 -441
35504 159680 185690 -16519 -28 -425
35510 159688 185681 -16521 24 -362
35514 159682 185683 -16514 84 -295
35518 159676 185675 -16490 102 -281
35523 159685 185668 -16454 90 -278
35532 159685 185665 -16424 74 -281
35532 159688 185664 -16407 68 -271
35538 159691 185650 -16393 77 -228
35546 159704 185647 -16359 77 -169
35555 159709 185648 -16312 76 -131
35564 159716 185641 -16290 83 -141
35574 159713 185625 -16305 88 -153
35586 159713 185609 -16336 91 -142
35593 159713 185601 -16375 86 -136
35604 159727 185597 -16412 60 -172
35617 159737 185593 -16441 21 -229
35628 159739 185586 -16455 -23 -276
35640 159745 185581 -16453 -57 -311
35652 159759 185583 -16456 -81 -328
35662 159769 185580 -16465 -129 -347
35662 159741 185543 -16476 -167 -386
35648 159694 185497 -16485 -167 -421
35627 159650 185464 -16476 -150 -394
35607 159611 185422 -16440 -130 -319
35594 159576 185389 -16402 -137 -282
35577 159537 185347 -16397 -164 -287
35560 159501 185313 -16421 -222 -290
35542 159465 185273 -16467 -308 -306
35529 159428 185239 -16501 -383 -351
35515 159400 185200 -16482 -430 -420
35510 159391 185181 -16448 -436 -472
35513 159389 185182 -16454 -430 -498
35517 159394 185184 -16484 -465 -528
35521 159396 185178 -16523 -507 -551
35527 159398 185166 -16556 -506 -540
35533 159397 185157 -16560 -457 -467
35535 159397 185150 -16526 -365 -356
35541 159403 185151 -16447 -266 -313
35548 159410 185140 -16385 -206 -320
35556 159403 185121 -16456 -236 -188
35566 159402 185109 -16488 -230 -99
35574 159400 185093 -16474 -205 -28
35582 159402 185087 -16418 -192 -16
35589 159414 185082 -16330 -192 -64
35599 159420 185078 -16261 -216 -92
35609 159426 185058 -16245 -252 -66
35622 159430 185048 -16292 -268 29
35634 159435 185041 -16348 -284 127
35648 159442 185033 -16328 -337 105
35660 159459 185037 -16266 -397 -33
35673 159468 185027 -16287 -414 -160
35683 159467 185018 -16378 -401 -198
35689 159464 185000 -16450 -377 -208
35680 159425 184964 -16434 -328 -269
35663 159385 184940 -16365 -282 -339
35646 159363 184918 -16368 -256 -329
35636 159345 184904 -16434 -254 -263
35622 159334 184892 -16468 -265 -245
35611 159313 184870 -16453 -282 -287
35601 159303 184869 -16419 -323 -294
35589 159297 184871 -16411 -348 -269
35576 159258 184821 -16414 -347 -265
35570 159242 184799 -16404 -330 -252
35571 159237 184789 -16403 -294 -226
35578 159246 184796 -16403 -289 -220
35585 159257 184797 -16428 -332 -239
35592 159261 184797 -16471 -389 -298
35598 159271 184808 -16489 -435 -369
35606 159288 184819 -16493 -461 -392
35614 159289 184813 -16502 -487 -435
35619 159290 184810 -16515 -464 -425
35631 159301 184815 -16524 -426 -397
35638 159316 184816 -16513 -398 -373
35648 159320 184811 -16487 -372 -353
35662 159335 184817 -16462 -337 -343
35676 159354 184830 -16459 -319 -341
35687 159375 184830 -16474 -322 -337
35701 159382 184838 -16486 -325 -349
35713 159397 184845 -16576 -340 -348
35731 159423 184851 -16612 -345 -311
35746 159435 184846 -16601 -344 -326
35764 159453 184854 -16579 -316 -374
35781 159477 184877 -16606 -290 -384
35801 159500 184882 -16643 -291 -375
35815 159499 184877 -16635 -311 -410
35824 159479 184843 -16584 -341 -500
35820 159421 184796 -16513 -346 -613
35805 159380 184769 -16492 -361 -813
35788 159339 184736 -16496 -349 -904
35777 159310 184719 -16485 -304 -918
35771 159288 184691 -16475 -272 -951
35761 159274 184692 -16483 -279 -1040
35753 159258 184695 -16494 -288 -1087
35741 159238 184677 -16463 -259 -1058
35733 159216 184656 -16428 -192 -954
35728 159215 184658 -16439 -123 -843
35729 159221 184663 -16458 -91 -824
35738 159230 184676 -16448 -92 -849
35743 159229 184675 -16446 -56 -786
35747 159233 184671 -16444 10 -659
35756 159244 184677 -16399 74 -557
35765 159241 184674 -16361 142 -477
35777 159262 184703 -16385 193 -394
35789 159278 184703 -16413 219 -312
35798 159311 184751 -16364 259 -239
35801 159278 184708 -16259 328 -202
35820 159296 184718 -16171 396 -189
35833 159322 184744 -16122 452 -188
35844 159335 184746 -16147 493 -192
35855 159333 184739 -16236 527 -167
35872 159355 184752 -16276 565 -166
35885 159388 184776 -16291 595 -201
35902 159412 184789 -16351 607 -231
35917 159435 184799 -16396 614 -263
35933 159448 184813 -16414 632 -266
35946 159467 184823 -16433 648 -240
35960 159476 184828 -16437 648 -208
35972 159480 184815 -16402 653 -196
35978 159468 184795 -16391 649 -234
35970 159447 184790 -16410 651 -237
35955 159417 184773 -16465 704 -162
35939 159387 184750 -16517 736 -85
35928 159366 184730 -16541 711 -65
35918 159343 184718 -16542 670 -109
35913 159331 184705 -16528 647 -199
35902 159311 184699 -16481 661 -270
35893 159300 184693 -16410 696 -272
35889 159297 184687 -16356 729 -237
35887 159298 184693 -16342 754 -195
35888 159305 184710 -16339 794 -146
35896 159323 184725 -16288 856 -65
35899 159337 184726 -16204 921 78
35905 159341 184734 -16129 977 215
35910 159347 184736 -16089 1001 274
35914 159361 184741 -16122 990 292
35921 159367 184744 -16208 972 334
35932 159384 184740 -16287 967 412
35938 159386 184736 -16308 956 462
35949 159398 184734 -16317 937 439
35960 159413 184736 -16332 906 367
35974 159428 184745 -16321 901 303
35984 159447 184755 -16322 942 302
35998 159460 184762 -16369 1015 386
36014 159483 184774 -16447 1105 490
36027 159502 184778 -16483 1200 546
36038 159507 184776 -16461 1306 566
36053 159506 184745 -16446 1350 557
36069 159512 184733 -16487 1122 415
36086 159522 184731 -16510 991 283
36101 159539 184743 -16497 999 264
36113 159551 184737 -16448 1106 386
36129 159563 184734 -16352 1263 589
36137 159558 184729 -16232 1470 795
36132 159516 184684 -16182 1676 950
36117 159471 184652 -16192 1803 1028
36105 159447 184622 -16217 1863 1068
36092 159432 184612 -16243 1794 1106
36084 159403 184595 -16139 1756 1062
36072 159383 184586 -16021 1766 1017
36065 159384 184588 -15977 1808 1027
36056 159368 184574 -15999 1837 1070
36049 159359 184577 -16059 1835 1104
36047 159366 184580 -16122 1817 1075
36049 159374 184590 -16172 1791 1016
36057 159391 184598 -16229 1765 951
36063 159400 184595 -16283 1718 862
36072 159405 184594 -16331 1648 779
36073 159411 184595 -16409 1611 758
36077 159418 184592 -16482 1593 762
36081 159419 184591 -16486 1590 730
36090 159429 184601 -16426 1602 711
36097 159447 184608 -16379 1596 740
36105 159458 184605 -16386 1561 763
36114 159470 184609 -16400 1525 729
36123 159483 184619 -16373 1538 712
36135 159501 184628 -16317 1576 768
36145 159516 184637 -16288 1598 839
36158 159535 184640 -16322 1620 885
36172 159545 184639 -16376 1664 852
36190 159554 184640 -16373 1701 754
36201 159571 184651 -16323 1737 725
36213 159585 184651 -16291 1783 803
36222 159600 184662 -16283 1802 928
36236 159622 184665 -16248 1775 1030
36252 159644 184687 -16164 1697 1078
36264 159670 184701 -16105 1613 1129
36262 159655 184688 -16133 1506 1152
36249 159612 184656 -16202 1429 1058
36236 159590 184644 -16265 1362 947
36226 159583 184650 -16316 1375 904
36216 159590 184668 -16340 1433 935
36206 159591 184680 -16347 1482 992
36198 159596 184690 -16373 1511 1018
36193 159599 184709 -16384 1529 1002
36189 159607 184723 -16340 1578 967
36190 159628 184758 -16306 1637 941
36193 159661 184788 -16339 1705 933
36201 159685 184811 -16411 1773 914
36211 159708 184833 -16457 1815 882
36217 159730 184862 -16421 1871 868
36225 159757 184900 -16351 1947 898
36233 159792 184929 -16318 2011 966
36244 159821 184965 -16334 2058 1046
36251 159848 184996 -16341 2086 1092
36263 159888 185037 -16277 2121 1097
36278 159921 185070 -16142 2210 1056
36287 159950 185101 -16157 2196 1087
36299 159988 185128 -16160 2201 1143
36313 160012 185165 -16126 2214 1133
36325 160039 185187 -16098 2212 1063
36337 160074 185208 -16099 2229 1071
36349 160108 185248 -16119 2275 1180
36364 160151 185291 -16125 2299 1266
36374 160185 185323 -16135 2297 1279
36388 160220 185347 -16148 2270 1205
36403 160237 185361 -16156 2225 1093
36415 160272 185381 -16187 2189 1038
36417 160265 185380 -16234 2184 1014
36406 160233 185363 -16282 2181 962
36383 160200 185350 -16346 2159 896
36368 160180 185337 -16397 2124 823
36356 160176 185336 -16385 2104 808
36345 160183 185357 -16296 2142 916
36330 160194 185382 -16185 2201 1080
36320 160200 185403 -16091 2224 1161
36311 160204 185410 -16026 2209 1156
36303 160218 185431 -16027 2194 1174
36302 160242 185463 -16051 2220 1255
36307 160287 185512 -16047 2318 1393
36315 160324 185559 -16032 2439 1489
36323 160343 185574 -16001 2468 1471
36321 160351 185570 -15994 2422 1396
36327 160367 185585 -16041 2393 1322
36335 160381 185604 -16065 2420 1258
36342 160402 185619 -16026 2494 1175
36349 160421 185628 -15999 2589 1003
36361 160445 185654 -16097 2544 991
36372 160474 185666 -16236 2457 1037
36380 160501 185689 -16351 2364 1093
36387 160520 185698 -16402 2278 1112
36397 160538 185699 -16382 2206 1091
36407 160557 185707 -16335 2164 1082
36421 160575 185723 -16291 2152 1134
36431 160609 185747 -16234 2180 1222
36447 160643 185770 -16107 2350 1388
36460 160683 185808 -16079 2421 1471
36477 160711 185830 -16098 2510 1538
36489 160738 185856 -16108 2618 1541
36492 160737 185848 -16099 2673 1487
36480 160704 185829 -16124 2684 1453
36461 160674 185809 -16175 2697 1485
36445 160660 185807 -16160 2722 1508
36432 160660 185811 -16107 2725 1486
36418 160650 185816 -16083 2676 1476
36406 160642 185797 -16067 2615 1468
36394 160625 185790 -16084 2561 1437
36380 160617 185784 -16087 2486 1403
36369 160609 185773 -16040 2419 1382
36369 160608 185778 -16000 2402 1355
36371 160623 185784 -15997 2416 1298
36376 160630 185795 -16069 2438 1267
36378 160638 185801 -16166 2443 1282
36377 160648 185803 -16206 2445 1304
36380 160657 185810 -16168 2462 1300
36381 160666 185826 -16090 2486 1261
36385 160677 185835 -16064 2486 1219
36392 160688 185839 -16117 2450 1214
36398 160706 185849 -16189 2416 1214
36403 160714 185851 -16243 2385 1211
36412 160717 185843 -16278 2357 1227
36417 160719 185835 -16274 2328 1233
36425 160740 185841 -16250 2297 1213
36433 160758 185853 -16227 2271 1195
36443 160777 185863 -16226 2241 1170
36453 160790 185870 -16090 2486 1261
36463 160812 185876 -16064 2486 1219
36477 160828 185877 -16117 2450 1214
36486 160838 185887 -16189 2416 1214
36489 160827 185874 -16243 2385 1211
36474 160785 185848 -16278 2357 1227
36450 160755 185825 -16274 2328 1233
36429 160728 185810 -16250 2297 1213
36412 160716 185802 -16227 2271 1195
36399 160709 185807 -16226 2241 1170
36383 160698 185806 -16154 2209 1114
36369 160687 185794 -16114 2195 1122
36356 160680 185789 -16108 2228 1153
36347 160683 185787 -16108 2263 1159
36342 160689 185791 -16139 2279 1149
36342 160698 185793 -16177 2297 1133
36344 160692 185780 -16176 2312 1116
36343 160696 185777 -16168 2331 1134
36345 160709 185780 -16172 2359 1193
36340 160715 185782 -16171 2388 1231
36342 160731 185794 -16195 2405 1241
36347 160743 185805 -16240 2372 1261
36354 160761 185815 -16236 2307 1277
36361 160780 185826 -16193 2239 1249
36368 160793 185839 -16131 2190 1156
36374 160813 185849 -16052 2173 1048
36384 160830 185865 -16014 2151 1005
36395 160849 185876 -16061 2108 1013
36402 160858 185878 -16166 2074 1025
36412 160863 185865 -16265 2055 1030
36423 160872 185864 -16299 2061 1018
36433 160874 185847 -16288 2080 1018
36439 160864 185838 -16283 2098 1038
36443 160851 185815 -16293 2105 1060
36429 160812 185786 -16297 2098 1092
36402 160759 185741 -16269 2100 1128
36376 160719 185713 -16223 2109 1113
36358 160700 185697 -16227 2110 1014
36345 160696 185700 -16271 2104 846
36327 160678 185700 -16275 2095 643
36312 160675 185699 -16218 2056 479
36297 160668 185687 -16195 2043 421
36287 160676 185691 -16244 2089 497
36284 160680 185697 -16293 2119 616
36287 160704 185721 -16333 2096 675
36290 160725 185745 -16361 2050 687
36297 160736 185749 -16359 2022 686
36298 160755 185760 -16346 2033 730
36305 160779 185783 -16328 2067 835
36311 160792 185783 -16288 2090 927
36317 160801 185790 -16232 2075 1008
36323 160821 185805 -16276 2056 1046
36336 160844 185825 -16285 2034 1128
36345 160864 185840 -16220 2024 1200
36359 160883 185843 -16124 2004 1233
36366 160893 185852 -16124 1974 1288
36378 160906 185860 -16229 1940 1355
36391 160920 185867 -16340 1871 1364
36402 160938 185875 -16367 1797 1301
36412 160946 185872 -16278 1767 1197
36423 160967 185875 -16166 1774 1125
36434 160980 185878 -16115 1805 1122
36443 160984 185875 -16110 1830 1133
36440 160971 185860 -16109 1806 1098
36424 160931 185829 -16097 1767 1023
36402 160895 185794 -16077 1746 951
36380 160869 185777 -16092 1741 878
36366 160857 185769 -16180 1739 796
36352 160853 185766 -16278 1721 714
36337 160833 185755 -16318 1693 669
36323 160816 185747 -16308 1656 678
36313 160810 185738 -16317 1657 726
36307 160809 185745 -16354 1689 733
36304 160818 185754 -16399 1692 675
36309 160835 185759 -16434 1664 624
36310 160832 185751 -16443 1655 596
36316 160837 185748 -16438 1675 602
36318 160839 185750 -16409 1686 612
36319 160840 185743 -16364 1672 571
36321 160845 185747 -16325 1643 504
36324 160849 185747 -16279 1629 476
36331 160855 185745 -16266 1677 527
36338 160863 185735 -16303 1747 625
36346 160852 185714 -16319 1765 667
36356 160865 185708 -16303 1775 666
36364 160866 185708 -16297 1786 665
36375 160887 185723 -16335 1792 657
36386 160904 185738 -16390 1752 698
36396 160930 185748 -16387 1699 784
36407 160953 185759 -16308 1648 800
36421 160967 185769 -16221 1576 728
36435 160983 185773 -16181 1547 581
36448 160994 185775 -16200 1523 405
36444 160964 185752 -16284 1507 312
36427 160920 185712 -16372 1545 312
36406 160882 185685 -16406 1615 353
36388 160864 185668 -16423 1666 450
36372 160849 185658 -16420 1666 608
36360 160833 185651 -16367 1642 700
36349 160822 185638 -16294 1602 680
36338 160811 185637 -16229 1542 638
36333 160801 185633 -16190 1529 626
36330 160810 185643 -16197 1569 615
36332 160824 185656 -16227 1589 543
36336 160834 185664 -16288 1566 476
36340 160843 185671 -16359 1521 456
36348 160849 185668 -16375 1485 451
36353 160859 185675 -16326 1459 443
36360 160871 185677 -16275 1429 414
36367 160874 185678 -16275 1405 388
36373 160891 185689 -16323 1417 390
36384 160908 185703 -16377 1449 420
36397 160932 185720 -16409 1496 473
36404 160942 185732 -16408 1525 516
36414 160954 185726 -16369 1529 480
36424 160967 185745 -16358 1537 423
36434 160991 185752 -16391 1548 421
36446 161006 185754 -16423 1551 457
36459 161016 185751 -16415 1527 457
36471 161025 185742 -16356 1504 380
36486 161036 185750 -16290 1500 314
36497 161046 185759 -16244 1522 338
36501 161036 185745 -16258 1579 395
36489 161009 185723 -16307 1599 425
36470 160990 185712 -16312 1569 438
36450 160967 185702 -16275 1557 440
36437 160951 185694 -16262 1546 463
36429 160931 185676 -16319 1518 505
36416 160917 185662 -16394 1454 470
36408 160903 185654 -16442 1362 355
36403 160900 185650 -16431 1308 260
36402 160908 185663 -16297 1392 228
36405 160916 185677 -16291 1492 282
36413 160934 185686 -16338 1564 382
36421 160946 185691 -16406 1565 481
36425 160953 185690 -16434 1526 502
36429 160957 185689 -16404 1477 444
36432 160970 185693 -16353 1427 348
36442 160971 185682 -16330 1383 266
36446 160981 185685 -16336 1373 231
36455 160988 185684 -16320 1412 268
36465 160992 185674 -16331 1465 272
36473 161006 185671 -16334 1498 285
36481 161019 185674 -16339 1529 337
36488 161024 185674 -16356 1552 382
36493 161027 185659 -16364 1534 359
36505 161036 185652 -16364 1505 318
36516 161042 185646 -16368 1476 291
36527 161052 185643 -16392 1431 263
36538 161070 185640 -16421 1390 260
36553 161079 185637 -16410 1390 306
36565 161085 185633 -16363 1431 403
36569 161080 185613 -16335 1443 543
36564 161043 185592 -16363 1398 631
36551 161020 185576 -16376 1333 604
36538 161011 185571 -16355 1248 563
36530 161011 185581 -16335 1173 577
36524 161016 185605 -16314 1138 597
36520 161017 185614 -16287 1116 588
36514 161020 185620 -16235 1085 551
36510 161018 185623 -16216 1074 544
36514 161033 185651 -16252 1122 591
36523 161056 185670 -16310 1180 627
36537 161079 185684 -16364 1204 630
36550 161093 185703 -16386 1235 664
36561 161114 185719 -16349 1342 783
36571 161131 185744 -16270 1525 971
36576 161152 185763 -16185 1680 1117
36585 161167 185780 -16142 1746 1137
36594 161186 185792 -16184 1738 1063
36602 161208 185817 -16308 1621 796
36616 161225 185831 -16364 1570 638
36633 161249 185853 -16391 1518 513
36645 161264 185871 -16389 1484 436
36660 161299 185906 -16374 1477 418
36676 161326 185943 -16355 1495 435
36690 161364 185973 -16340 1499 452
36701 161394 185998 -16314 1477 474
36718 161421 186028 -16286 1454 492
36736 161456 186066 -16266 1447 462
36757 161497 186102 -16279 1491 467
36778 161525 186138 -16271 1583 531
36792 161550 186169 -16262 1710 626
36793 161545 186182 -16258 1812 704
36787 161532 186200 -16235 1880 723
36778 161539 186227 -16191 1936 691
36772 161553 186271 -16182 1967 627
36764 161564 186313 -16238 1951 564
36756 161566 186320 -16280 1894 518
36749 161570 186327 -16288 1847 499
36742 161570 186347 -16304 1858 487
36735 161579 186360 -16299 1869 451
36742 161598 186378 -16277 1864 439
36751 161627 186415 -16211 1905 503
36761 161657 186458 -16110 1964 605
36768 161694 186515 -16087 1982 667
36778 161741 186573 -16136 1968 671
36783 161785 186640 -16189 1962 645
36787 161817 186684 -16264 1966 586
36792 161848 186709 -16389 1953 517
36802 161875 186742 -16493 1971 528
36814 161917 186781 -16530 2062 650
36826 161957 186826 -16516 2210 793
36835 161999 186862 -16484 2406 944
36851 162036 186898 -16391 2646 1165
36862 162080 186941 -16259 2866 1390
36876 162122 186983 -16215 2919 1528
36891 162176 187026 -16201 2846 1590
36906 162221 187063 -16125 2835 1678
36925 162273 187118 -16017 3048 1936
36942 162331 187158 -15950 3193 2060
36959 162382 187199 -15875 3354 2214
36976 162421 187245 -15830 3504 2362
36973 162422 187244 -15772 3653 2469
36963 162411 187244 -15690 3801 2532
36955 162428 187262 -15611 3911 2584
36952 162455 187302 -15611 3970 2643
36952 162497 187353 -15642 3979 2719
36961 162534 187408 -15632 4028 2948
36966 162585 187477 -15649 4090 3026
36976 162643 187548 -15610 4125 3048
36988 162703 187619 -15556 4138 3100
37003 162770 187705 -15522 4160 3175
37025 162849 187799 -15457 4196 3262
37048 162922 187881 -15320 4254 3348
37071 163005 187972 -15215 4357 3428
37094 163084 188067 -15283 4463 3508
37115 163155 188150 -15394 4552 3596
37137 163226 188238 -15372 4668 3700
37162 163297 188322 -15259 4796 3817
37185 163370 188404 -15095 4900 3910
37209 163440 188482 -14928 5016 4001
37238 163521 188559 -14809 5123 4130
37262 163598 188642 -14716 5211 4252
37292 163671 188732 -14634 5320 4368
37317 163751 188811 -14558 5413 4520
37344 163820 188896 -14453 5478 4720
37371 163894 188966 -14364 5494 4909
37398 163975 189040 -14355 5456 5049
37423 164045 189111 -14407 5411 5188
37450 164105 189172 -14380 5422 5328
37471 164168 189237 -14255 5468 5406
37484 164203 189274 -14149 5480 5397
37484 164212 189309 -14099 5528 5390
37478 164228 189349 -14113 5650 5444
37479 164267 189398 -14139 5766 5505
37481 164296 189448 -14138 5801 5539
37484 164330 189497 -14125 5806 5537
37483 164361 189540 -14065 5934 5571
37484 164393 189583 -13990 6046 5610
37490 164428 189629 -13930 6116 5678
37498 164467 189682 -13881 6150 5740
37506 164518 189735 -13817 6171 5786
37521 164580 189797 -13720 6210 5835
37536 164628 189853 -13652 6250 5875
37552 164683 189914 -13640 6280 5905
37564 164738 189968 -13654 6299 5933
37581 164779 190018 -13633 6327 5983
37594 164826 190066 -13588 6354 6009
37605 164862 190104 -13531 6391 6048
37619 164908 190134 -13525 6419 6078
37628 164930 190150 -13555 6443 6144
37639 164953 190155 -13517 6470 6210
37644 164965 190151 -13421 6497 6248
37650 164965 190140 -13333 6527 6298
37652 164973 190118 -13260 6558 6391
37661 164969 190098 -13205 6578 6476
37664 164966 190072 -13167 6601 6505
37671 164968 190048 -13129 6601 6494
37678 164982 190046 -13117 6582 6475
37687 164998 190050 -13112 6580 6496
37690 165003 190041 -13076 6607 6558
37679 164977 190022 -13012 6647 6586
37664 164968 190019 -12983 6665 6559
37651 164962 190024 -13018 6646 6539
37641 164960 190024 -13074 6615 6538
37628 164948 190025 -13133 6635 6548
37615 164938 190016 -13174 6693 6549
37606 164936 190024 -13205 6715 6543
37592 164935 190020 -13241 6686 6525
37584 164933 190033 -13240 6645 6480
37581 164936 190032 -13182 6605 6421
37583 164961 190051 -13110 6582 6377
37591 165001 190097 -13084 6577 6354
37607 165064 190168 -13109 6593 6364
37624 165140 190271 -13122 6663 6403
37641 165217 190367 -13127 6729 6404
37659 165279 190455 -13320 6690 6334
37674 165340 190522 -13423 6675 6315
37685 165384 190575 -13498 6645 6301
37701 165425 190622 -13541 6602 6284
37714 165470 190660 -13527 6552 6255
37727 165512 190696 -13433 6523 6231
37738 165541 190736 -13305 6523 6223
37749 165579 190760 -13219 6521 6237
37763 165614 190794 -13196 6530 6267
37777 165655 190828 -13230 6624 6349
37792 165688 190855 -13212 6658 6409
37805 165717 190870 -13180 6650 6453
37813 165721 190883 -13153 6597 6466
37807 165694 190857 -13153 6550 6452
37789 165661 190842 -13173 6527 6461
37771 165638 190827 -13176 6489 6458
37751 165612 190807 -13177 6466 6437
37740 165584 190771 -13179 6472 6383
37723 165545 190737 -13226 6476 6284
37701 165490 190674 -13335 6458 6200
37676 165428 190607 -13387 6428 6086
37661 165381 190551 -13394 6418 5942
37650 165351 190508 -13433 6438 5798
37649 165328 190479 -13472 6483 5656
37650 165301 190421 -13515 6537 5541
37643 165255 190346 -13621 6600 5468
37636 165199 190269 -13768 6632 5388
37627 165121 190156 -13889 6631 5284
37612 165035 190020 -13990 6612 5148
37601 164938 189879 -14067 6515 4923
37589 164843 189749 -14159 6403 4652
37579 164752 189606 -14313 6306 4387
37566 164656 189462 -14452 6197 4136
37555 164569 189329 -14546 6099 3942
37546 164486 189209 -14632 5987 3789
37540 164418 189102 -14718 5877 3649
37535 164361 189004 -14793 5810 3516
37531 164319 188934 -14849 5809 3424
37534 164286 188878 -14869 5827 3336
37531 164240 188812 -15025 5615 2930
37525 164183 188732 -15117 5473 2765
37511 164096 188621 -15228 5343 2638
37483 164012 188535 -15330 5219 2514
37455 163937 188457 -15388 5082 2336
37418 163857 188367 -15514 4908 2127
37386 163783 188282 -15726 4714 1930
37353 163712 188200 -15832 4631 1852
37318 163643 188118 -15823 4620 1894
37286 163571 188034 -15809 4571 1946
37253 163517 187978 -15836 4464 1927
37227 163465 187919 -15861 4333 1842
37208 163429 187867 -15786 4261 1753
37198 163406 187827 -15656 4248 1713
37192 163386 187795 -15593 4232 1752
37191 163371 187778 -15597 4186 1813
37185 163367 187765 -15584 4120 1807
37184 163358 187759 -15565 4061 1773
37184 163356 187758 -15595 4015 1741
37183 163355 187751 -15776 3811 1650
37184 163355 187751 -15854 3701 1578
37186 163356 187743 -15883 3615 1503
37191 163358 187754 -15899 3554 1451
37193 163355 187744 -15906 3511 1430
37199 163359 187737 -15899 3456 1418
37201 163366 187736 -15901 3424 1394
37206 163366 187737 -15917 3435 1355
37209 163367 187734 -15947 3463 1329
37216 163372 187729 -15971 3472 1331
37221 163379 187725 -15953 3456 1310
37231 163387 187733 -15939 3446 1298
37233 163381 187719 -15964 3442 1320
37225 163350 187700 -16013 3428 1330
37204 163323 187681 -16022 3412 1321
37180 163283 187669 -15982 3430 1298
37158 163267 187667 -15975 3484 1294
37137 163259 187685 -15987 3523 1306
37113 163249 187679 -15983 3547 1311
37085 163223 187668 -15918 3599 1352
37064 163200 187664 -15784 3649 1429
37044 163178 187655 -15741 3633 1503
37029 163168 187651 -15818 3546 1573
37023 163165 187651 -15885 3424 1583
37019 163166 187649 -15904 3332 1516
37016 163158 187634 -15914 3283 1408
37011 163145 187626 -15962 3263 1306
37007 163143 187616 -16052 3262 1253
37004 163135 187608 -16134 3264 1207
37000 163139 187614 -16188 3245 1103
36999 163138 187607 -16178 3190 871
37000 163141 187607 -16161 3239 856
37002 163143 187612 -16140 3283 905
37005 163152 187611 -16103 3321 983
37007 163147 187590 -16091 3361 1080
37013 163143 187576 -16094 3384 1154
37018 163147 187568 -16087 3397 1204
37022 163142 187561 -16077 3408 1248
37026 163150 187560 -16060 3380 1290
37034 163157 187552 -16035 3326 1306
37042 163161 187553 -15978 3285 1279
37051 163175 187544 -15921 3276 1252
37059 163180 187542 -15895 3279 1255
37067 163181 187524 -15887 3283 1268
37055 163145 187490 -15902 3301 1280
37030 163091 187452 -15906 3315 1276
37002 163058 187423 -15914 3338 1286
36984 163028 187396 -15957 3376 1335
36963 163002 187376 -16002 3400 1388
36941 162977 187350 -16030 3387 1423
36920 162941 187318 -16055 3343 1434
36902 162921 187295 -16081 3286 1425
36886 162899 187280 -16092 3214 1399
36871 162879 187269 -16069 3131 1384
36861 162880 187259 -16034 3072 1389
36859 162885 187254 -15993 3050 1384
36856 162875 187239 -15967 3038 1374
36853 162877 187229 -15981 2998 1387
36853 162870 187217 -16003 2975 1430
36849 162859 187203 -16010 3003 1467
36846 162857 187189 -15998 3027 1456
36849 162856 187181 -16016 3015 1434
36850 162853 187171 -16066 2958 1428
36852 162853 187168 -16078 2859 1428
36859 162862 187165 -16032 2774 1408
36867 162871 187156 -15980 2738 1392
36875 162876 187154 -15988 2695 1363
36880 162885 187158 -16025 2675 1313
36888 162893 187156 -16053 2714 1271
36895 162897 187162 -16092 2787 1232
36902 162914 187165 -16223 2860 1234
36909 162920 187164 -16254 2802 1279
36918 162927 187153 -16215 2726 1327
36925 162931 187153 -16136 2632 1374
36935 162940 187146 -16062 2536 1393
36932 162913 187121 -15985 2482 1374
36916 162871 187085 -15919 2490 1350
36897 162842 187069 -15945 2528 1338
36879 162822 187066 -16069 2562 1302
36866 162807 187060 -16239 2535 1211
36849 162791 187042 -16218 2494 1195
36831 162775 187036 -16163 2452 1145
36817 162747 187019 -16133 2419 1119
36805 162736 187012 -16149 2418 1129
36795 162737 187016 -16203 2434 1150
36793 162745 187021 -16262 2454 1183
36797 162758 187039 -16286 2472 1239
36800 162757 187039 -16228 2474 1277
36798 162751 187038 -16084 2508 1236
36798 162749 187037 -15952 2588 1155
36798 162738 187016 -15905 2661 1110
36798 162728 186996 -15939 2705 1128
36797 162711 186966 -16034 2694 1201
36794 162683 186919 -16164 2587 1239
36789 162650 186867 -16285 2418 1169
36787 162626 186829 -16361 2261 1027
36786 162613 186803 -16406 2150 849
36787 162591 186773 -16392 2106 747
36790 162577 186748 -16292 2174 766
36794 162578 186751 -16191 2275 815
36802 162584 186747 -16157 2310 864
36816 162595 186747 -16156 2337 941
36825 162611 186756 -16136 2391 1012
36832 162616 186755 -16120 2413 1050
36837 162606 186741 -16128 2415 1157
36826 162578 186714 -16073 2430 1289
36815 162554 186698 -15970 2462 1347
36798 162545 186710 -15933 2491 1334
36788 162548 186734 -15989 2469 1254
36777 162547 186743 -16078 2423 1218
36765 162539 186750 -16126 2377 1243
36756 162545 186754 -16117 2320 1234
36749 162551 186766 -16063 2266 1139
36743 162556 186782 -16029 2202 970
36740 162563 186800 -16089 2144 839
36746 162579 186819 -16204 2104 758
36747 162595 186836 -16284 2074 703
36752 162611 186855 -16284 2063 708
36758 162625 186869 -16230 2065 774
36759 162641 186888 -16170 2079 834
36764 162655 186895 -16161 2108 860
36771 162669 186907 -16199 2134 869
36776 162679 186914 -16222 2151 877
36785 162690 186913 -16234 2167 900
36797 162695 186914 -16244 2166 903
36804 162701 186905 -16237 2150 834
36813 162707 186907 -16213 2117 686
36824 162712 186900 -16225 2075 533
36835 162715 186900 -16277 2030 444
36847 162738 186902 -16307 2008 393
36860 162747 186916 -16286 2046 345
36873 162773 186932 -16242 2113 290
36890 162801 186950 -16230 2194 253
36903 162825 186967 -16268 2284 277
36907 162812 186961 -16293 2380 342
36917 162837 187018 -16236 2492 404
36925 162886 187110 -16123 2616 415
36929 162908 187158 -16045 2724 379
36932 162923 187199 -16108 2740 325
36912 162884 187186 -16225 2743 330
36882 162827 187137 -16281 2732 367
36852 162761 187062 -16308 2609 327
36803 162664 186953 -16280 2451 225
36742 162507 186765 -16265 2338 155
36665 162306 186502 -16339 2273 140
36555 162019 186106 -16419 2236 128
36421 161649 185603 -16444 2246 118
36299 161282 185104 -16431 2278 137
36201 161023 184745 -16403 2336 219
36129 160836 184494 -16308 2427 281
36070 160688 184304 -16132 2514 230
36021 160567 184146 -16169 2547 218
35985 160463 184012 -16222 2508 203
35962 160410 183931 -16284 2415 277
35950 160375 183887 -16309 2305 395
35937 160343 183844 -16246 2202 505
35920 160290 183777 -16152 2102 647
35896 160251 183700 -16084 1980 810
35873 160191 183621 -16057 1811 956
35850 160112 183519 -16085 1375 1080
35818 160020 183393 -16179 1162 1081
35788 159911 183269 -16291 965 1009
35760 159817 183157 -16382 775 870
35736 159746 183070 -16441 627 704
35719 159689 183006 -16473 535 601
35703 159617 182955 -16484 480 596
35695 159564 182932 -16483 476 625
35686 159539 182936 -16485 508 626
35680 159530 182952 -16476 515 604
35679 159532 182973 -16422 532 566
35680 159535 183006 -16324 591 515
35676 159538 183024 -16262 666 487
35671 159544 183058 -16295 745 500
35672 159554 183084 -16374 836 524
35681 159592 183141 -16435 917 534
35702 159643 183212 -16467 976 547
35725 159687 183273 -16471 1010 587
35746 159719 183328 -16435 987 643
35769 159766 183390 -16345 971 681
35784 159804 183435 -16247 1020 716
35800 159836 183468 -16232 1084 825
35809 159855 183480 -16278 1143 1025
35822 159864 183492 -16313 1187 1221
35840 159894 183509 -16286 1201 1358
35859 159925 183547 -16187 1208 1404
35880 159962 183592 -16130 1206 1374
35908 160008 183630 -16195 1176 1380
35930 160043 183676 -16308 1094 1435
35949 160074 183713 -16351 979 1459
35972 160119 183757 -16240 985 1367
35995 160163 183813 -16183 1071 1383
36019 160206 183868 -16106 1154 1417
36045 160247 183929 -16071 1216 1435
36066 160283 183971 -16070 1263 1397
36079 160300 184010 -16104 1315 1343
36087 160319 184076 -16147 1373 1333
36092 160344 184128 -16188 1426 1344
36094 160370 184189 -16249 1449 1332
36107 160419 184281 -16224 1346 1224
36123 160476 184371 -16145 1342 1176
36135 160522 184455 -16124 1355 1161
36143 160562 184522 -16183 1339 1192
36153 160613 184588 -16235 1303 1245
36163 160653 184637 -16273 1275 1273
36178 160696 184673 -16338 1228 1223
36192 160739 184712 -16419 1152 1139
36204 160775 184751 -16487 1104 1112
36220 160815 184800 -16490 1130 1145
36230 160856 184840 -16462 1190 1215
36245 160889 184872 -16463 1262 1290
36256 160917 184899 -16470 1325 1328
36275 160964 184954 -16415 1361 1344
36289 161024 185016 -16316 1440 1398
36307 161061 185059 -16258 1571 1470
36325 161100 185092 -16255 1687 1475
36346 161148 185137 -16285 1755 1435
36368 161204 185188 -16314 1808 1440
36388 161252 185234 -16331 1850 1514
36402 161288 185266 -16342 1841 1635
36422 161325 185292 -16360 1824 1735
36435 161363 185310 -16359 1821 1799
36448 161378 185331 -16282 1791 1868
36451 161369 185320 -16140 1775 1937
36438 161345 185308 -16004 1784 1974
36425 161341 185311 -15925 1804 2010
36412 161338 185320 -15923 1834 2115
36403 161346 185334 -15999 1821 2264
36394 161361 185349 -16115 1783 2421
36386 161359 185354 -16287 1729 2578
36378 161353 185360 -16276 1734 2498
36370 161350 185344 -16214 1688 2381
36367 161337 185340 -16117 1617 2267
36370 161341 185338 -15992 1550 2182
36373 161344 185338 -15881 1501 2153
36380 161337 185322 -15806 1473 2078
36383 161341 185319 -15807 1463 1977
36388 161345 185318 -15906 1489 1932
36391 161351 185314 -16065 1511 1953
36394 161358 185300 -16206 1539 1941
36396 161346 185281 -16303 1586 1843
36398 161339 185249 -16381 1593 1737
36400 161334 185232 -16439 1562 1674
36406 161327 185221 -16457 1497 1631
36412 161320 185204 -16444 1403 1560
36422 161326 185203 -16435 1330 1509
36428 161339 185200 -16436 1330 1513
36434 161347 185193 -16432 1353 1539
36444 161354 185189 -16311 1366 1538
36453 161356 185181 -16272 1371 1538
36457 161349 185162 -16265 1351 1522
36448 161306 185121 -16258 1327 1470
36433 161263 185085 -16273 1328 1415
36416 161236 185060 -16331 1334 1409
36402 161217 185048 -16384 1351 1441
36392 161203 185042 -16393 1410 1492
36383 161204 185047 -16362 1507 1557
36376 161201 185054 -16289 1609 1611
36371 161195 185062 -16186 1690 1654
36365 161200 185067 -16126 1758 1672
36367 161204 185068 -16130 1810 1659
36372 161224 185068 -16152 1816 1625
36379 161226 185067 -16176 1792 1554
36384 161225 185067 -16235 1735 1485
36384 161231 185066 -16326 1655 1473
36387 161239 185064 -16383 1572 1489
36391 161248 185066 -16386 1502 1483
36397 161254 185068 -16328 1449 1454
36407 161270 185075 -16238 1431 1397
36414 161278 185076 -16187 1444 1358
36424 161295 185084 -16189 1481 1380
36435 161306 185086 -16212 1541 1415
36447 161323 185092 -16226 1607 1417
36459 161331 185090 -16204 1657 1379
36471 161341 185091 -16159 1678 1319
36484 161362 185108 -16153 1710 1269
36495 161384 185125 -16220 1761 1281
36507 161403 185133 -16295 1800 1346
36519 161407 185141 -16279 1825 1393
36514 161392 185130 -16271 1875 1428
36502 161368 185109 -16341 1916 1493
36486 161354 185116 -16369 1910 1577
36475 161341 185116 -16315 1884 1646
36467 161344 185122 -16226 1853 1689
36459 161354 185133 -16148 1837 1760
36449 161335 185129 -16033 1835 1836
36446 161347 185156 -15837 1847 1921
36448 161393 185218 -15650 1918 2140
36464 161453 185308 -15510 2092 2436
36484 161528 185389 -15328 2305 2625
36508 161632 185498 -15231 2498 2793
36526 161691 185554 -15361 2551 2984
36541 161735 185595 -15518 2445 3010
36554 161762 185628 -15581 2362 2802
36569 161794 185653 -15636 2373 2465
36579 161814 185677 -15718 2447 2162
36587 161830 185684 -15866 2519 1986
36602 161854 185697 -16064 2587 1935
36612 161876 185715 -16263 2627 1932
36621 161899 185718 -16462 2596 1949
36631 161916 185725 -16633 2482 2002
36641 161937 185741 -16722 2331 2040
36656 161964 185757 -16698 2207 2021
36666 161983 185779 -16597 2125 1963
36678 162022 185794 -16470 2038 1869
36693 162046 185813 -16373 1946 1815
36706 162070 185826 -16343 1890 1875
36712 162081 185826 -16279 1834 2125
36705 162043 185800 -16270 1880 2151
36691 162013 185774 -16281 1904 2086
36677 161996 185759 -16280 1887 2022
36666 161979 185763 -16238 1871 1997
36660 161981 185760 -16158 1891 2003
36653 161978 185769 -16047 1929 2029
36646 161965 185769 -15948 1960 2057
36640 161967 185774 -15891 1984 2067
36641 161972 185777 -15921 2051 2130
36645 161996 185798 -15986 2050 2155
36650 162018 185815 -16039 2054 2154
36661 162031 185816 -16082 2070 2116
36663 162040 185824 -16142 2083 2094
36669 162045 185835 -16196 2077 2065
36676 162057 185824 -16205 2058 2021
36684 162059 185838 -16174 2039 1980
36691 162071 185837 -16126 2038 1936
36700 162083 185850 -16084 2053 1918
36712 162106 185866 -16062 2084 1935
36727 162125 185885 -16076 2111 1953
36741 162147 185898 -16101 2125 1962
36753 162166 185911 -16114 2136 1957
36763 162183 185918 -16128 2125 1939
36771 162193 185924 -16153 2101 1923
36787 162212 185940 -16176 2078 1913
36796 162225 185940 -16166 2052 1909
36806 162233 185941 -16136 2035 1914
36803 162214 185922 -16138 2030 1936
36789 162167 185887 -16136 2013 1948
36773 162134 185864 -16121 1972 1935
36754 162111 185832 -16114 1935 1899
36738 162077 185802 -16113 1914 1856
36726 162061 185786 -16124 1896 1809
36715 162040 185772 -16141 1875 1767
36708 162036 185777 -16193 1846 1752
36701 162033 185774 -16262 1826 1740
36700 162041 185789 -16291 1824 1705
36704 162054 185799 -16289 1832 1690
36711 162071 185813 -16136 2013 1948
36719 162074 185817 -16121 1972 1935
36723 162086 185819 -16114 1935 1899
36727 162089 185830 -16113 1914 1856
36731 162102 185828 -16124 1896 1809
36737 162106 185832 -16141 1875 1767
36746 162123 185844 -16193 1846 1752
36753 162130 185847 -16262 1826 1740
36764 162144 185855 -16291 1824 1705
36770 162165 185869 -16289 1832 1690
36783 162178 185874 -16208 1815 1705
36794 162199 185885 -16199 1853 1670
36807 162211 185897 -16216 1888 1657
36815 162223 185895 -16228 1902 1653
36831 162248 185909 -16229 1892 1632
36842 162252 185911 -16209 1901 1596
36839 162240 185894 -16190 1919 1571
36828 162204 185862 -16207 1921 1564
36810 162173 185834 -16247 1912 1551
36794 162150 185828 -16276 1876 1539
36779 162131 185815 -16283 1846 1532
36767 162113 185792 -16287 1848 1525
36750 162086 185778 -16290 1847 1529
36739 162065 185768 -16279 1845 1550
36728 162052 185761 -16236 1831 1571
36723 162054 185772 -16189 1816 1578
36724 162063 185779 -16167 1825 1573
36729 162079 185793 -16177 1828 1562
36734 162093 185799 -16220 1824 1558
36739 162099 185799 -16255 1806 1564
36746 162108 185807 -16256 1755 1555
36752 162119 185818 -16241 1722 1533
36757 162128 185817 -16234 1714 1526
36761 162139 185819 -16231 1687 1522
36771 162154 185833 -16232 1649 1513
36775 162169 185836 -16237 1628 1500
36787 162178 185851 -16243 1617 1503
36799 162192 185854 -16250 1632 1535
36807 162202 185856 -16243 1651 1555
36819 162217 185867 -16236 1646 1545
36829 162236 185872 -16246 1622 1542
36842 162250 185883 -16265 1608 1544
36855 162272 185896 -16275 1608 1523
36868 162282 185901 -16264 1591 1495
36871 162276 185886 -16248 1588 1486
36861 162233 185845 -16250 1596 1483
36843 162196 185821 -16276 1605 1491
36826 162169 185804 -16298 1614 1502
36811 162157 185797 -16297 1616 1499
36798 162134 185783 -16288 1610 1501
36782 162116 185777 -16253 1559 1500
36771 162106 185769 -16255 1569 1519
36760 162101 185761 -16223 1594 1540
36750 162092 185766 -16192 1620 1560
36750 162101 185772 -16191 1635 1556
36754 162122 185782 -16230 1634 1536
36759 162138 185801 -16297 1625 1526
36765 162139 185798 -16336 1611 1527
36770 162145 185804 -16331 1602 1519
36776 162157 185814 -16207 1584 1468
36780 162160 185823 -16195 1580 1463
36784 162171 185828 -16233 1592 1460
36793 162183 185834 -16288 1603 1463
36804 162195 185837 -16317 1585 1474
36815 162209 185850 -16316 1565 1486
36822 162228 185858 -16307 1543 1483
36832 162240 185870 -16310 1522 1474
36844 162258 185877 -16334 1527 1490
36855 162274 185889 -16323 1510 1521
36867 162291 185898 -16250 1491 1530
36878 162306 185908 -16185 1499 1499
36895 162328 185919 -16175 1504 1471
36907 162338 185928 -16211 1514 1459
36918 162351 185930 -16257 1531 1456
36912 162325 185900 -16287 1557 1470
36895 162281 185864 -16312 1585 1484
36875 162256 185847 -16313 1600 1477
36860 162232 185833 -16290 1608 1467
36844 162220 185821 -16266 1603 1472
36830 162200 185814 -16249 1588 1469
36816 162188 185816 -16244 1575 1471
36804 162172 185803 -16230 1559 1479
36790 162163 185793 -16222 1563 1491
36786 162162 185801 -16242 1591 1494
36790 162182 185818 -16279 1594 1477
36796 162202 185834 -16317 1589 1473
36797 162211 185840 -16330 1593 1474
36802 162220 185842 -16296 1584 1475
36807 162233 185853 -16237 1570 1466
36809 162242 185857 -16183 1551 1451
36815 162251 185860 -16173 1549 1442
36822 162263 185869 -16221 1562 1441
36831 162281 185879 -16275 1575 1444
36843 162302 185895 -16306 1586 1452
36849 162317 185909 -16312 1575 1468
36857 162335 185919 -16285 1558 1459
36868 162348 185924 -16271 1542 1445
36879 162362 185937 -16290 1547 1454
36891 162375 185946 -16304 1566 1470
36901 162397 185953 -16231 1527 1437
36916 162413 185955 -16231 1534 1422
36927 162428 185962 -16267 1539 1433
36938 162446 185972 -16298 1549 1450
36948 162444 185968 -16296 1571 1455
36939 162409 185936 -16287 1583 1455
36922 162369 185909 -16273 1582 1451
36901 162348 185893 -16260 1571 1452
36885 162323 185887 -16270 1560 1454
36869 162312 185867 -16273 1553 1449
36855 162295 185865 -16264 1541 1440
36842 162284 185860 -16251 1527 1436
36824 162275 185857 -16241 1518 1452
36814 162268 185852 -16256 1522 1462
36809 162271 185864 -16284 1536 1437
36810 162287 185882 -16322 1546 1418
36816 162305 185893 -16349 1544 1426
36819 162309 185898 -16337 1528 1434
36821 162315 185909 -16285 1526 1429
36828 162333 185917 -16232 1531 1423
36829 162338 185925 -16197 1520 1428
36836 162352 185929 -16208 1517 1416
36842 162361 185939 -16269 1518 1404
36848 162373 185947 -16324 1506 1411
36859 162387 185958 -16336 1510 1414
36869 162410 185966 -16323 1512 1416
36875 162422 185979 -16292 1506 1416
36883 162438 185986 -16265 1523 1425
36896 162459 185991 -16275 1548 1445
36911 162475 186006 -16280 1557 1449
36922 162492 186020 -16227 1519 1411
36936 162514 186035 -16253 1542 1409
36947 162540 186046 -16290 1545 1406
36963 162563 186061 -16317 1535 1409
36974 162570 186063 -16314 1549 1414
36971 162549 186038 -16292 1568 1422
36955 162506 186009 -16258 1565 1417
36934 162481 185988 -16226 1559 1402
36915 162458 185981 -16243 1552 1407
36896 162441 185972 -16269 1522 1401
36880 162417 185967 -16264 1524 1409
36863 162406 185952 -16247 1526 1431
36848 162391 185953 -16259 1535 1435
36834 162385 185955 -16300 1538 1416
36823 162383 185962 -16333 1524 1405
36823 162400 185980 -16338 1512 1405
36825 162416 185995 -16319 1520 1397
36831 162434 186009 -16291 1527 1398
36834 162438 186010 -16206 1501 1392
36837 162455 186024 -16207 1498 1385
36841 162462 186032 -16252 1514 1382
36844 162465 186036 -16305 1532 1383
36851 162479 186046 -16340 1531 1387
36859 162498 186060 -16329 1537 1389
36867 162514 186075 -16288 1553 1393
36878 162539 186088 -16270 1565 1403
36887 162551 186104 -16275 1571 1426
36897 162566 186113 -16280 1558 1449
36909 162584 186124 -16253 1521 1426
36921 162601 186140 -16224 1493 1384
36932 162619 186146 -16240 1496 1371
36944 162640 186157 -16270 1507 1383
36956 162660 186171 -16296 1507 1383
36973 162683 186188 -16311 1507 1389
36985 162704 186203 -16299 1517 1395
36996 162717 186207 -16277 1521 1391
36993 162689 186184 -16255 1517 1397
36976 162652 186153 -16247 1517 1402
36956 162624 186141 -16258 1516 1381
36937 162600 186131 -16279 1533 1378
36919 162591 186125 -16281 1528 1384
36900 162575 186120 -16266 1529 1395
36882 162562 186117 -16262 1551 1388
36864 162538 186115 -16287 1561 1367
36848 162528 186104 -16331 1556 1358
36834 162521 186104 -16361 1533 1361
36830 162533 186123 -16339 1522 1349
36832 162546 186135 -16280 1520 1329
36836 162557 186140 -16229 1520 1326
36840 162577 186154 -16215 1531 1343
36844 162582 186163 -16222 1532 1362
36848 162603 186177 -16248 1536 1356
36850 162612 186188 -16283 1533 1351
36853 162620 186192 -16300 1537 1371
36861 162633 186207 -16300 1554 1383
36870 162653 186215 -16293 1542 1378
36878 162667 186231 -16285 1542 1372
36890 162679 186239 -16253 1534 1365
36900 162701 186255 -16237 1530 1355
36911 162713 186266 -16239 1538 1360
36922 162735 186272 -16260 1537 1368
36935 162749 186278 -16283 1537 1373
36944 162767 186284 -16306 1539 1372
36956 162788 186297 -16312 1534 1369
36967 162804 186305 -16301 1550 1375
36979 162820 186312 -16292 1564 1382
36989 162833 186317 -16281 1556 1379
36995 162829 186302 -16261 1541 1361
36986 162786 186264 -16259 1530 1334
36968 162745 186233 -16290 1525 1336
36945 162722 186221 -16311 1518 1339
36927 162703 186214 -16303 1518 1346
36911 162683 186198 -16270 1518 1362
36897 162668 186199 -16262 1525 1370
36880 162657 186196 -16287 1532 1350
36868 162647 186201 -16311 1530 1339
36858 162639 186195 -16332 1515 1357
36854 162649 186211 -16303 1491 1338
36855 162667 186224 -16246 1483 1319
36858 162678 186239 -16217 1509 1334
36864 162685 186238 -16213 1524 1358
36870 162690 186250 -16230 1528 1371
36876 162709 186266 -16269 1535 1358
36882 162720 186270 -16312 1526 1345
36889 162739 186280 -16333 1538 1365
36897 162754 186295 -16321 1550 1387
36906 162770 186305 -16300 1559 1376
36913 162788 186317 -16264 1546 1340
36926 162804 186328 -16263 1538 1344
36939 162823 186345 -16257 1531 1336
36952 162845 186358 -16255 1535 1329
36965 162865 186375 -16270 1529 1346
36979 162889 186388 -16285 1524 1359
36993 162904 186401 -16287 1534 1343
37007 162931 186415 -16296 1543 1329
37020 162956 186428 -16306 1542 1330
37036 162974 186443 -16264 1518 1324
37050 162995 186462 -16240 1513 1321
37065 163019 186473 -16258 1527 1334
37073 163014 186460 -16283 1528 1337
37062 162968 186427 -16292 1529 1334
37042 162930 186407 -16303 1550 1329
37027 162906 186400 -16299 1549 1331
37012 162893 186385 -16304 1529 1344
36997 162877 186380 -16323 1534 1329
36985 162870 186378 -16329 1531 1294
36970 162852 186372 -16324 1502 1268
36959 162844 186369 -16318 1483 1261
36952 162843 186370 -16305 1472 1268
36952 162851 186380 -16267 1477 1274
36958 162868 186392 -16241 1499 1293
36963 162875 186408 -16249 1507 1303
36968 162890 186416 -16273 1513 1306
36975 162891 186422 -16303 1534 1309
36980 162909 186428 -16327 1540 1301
36984 162915 186434 -16335 1532 1297
36987 162923 186441 -16302 1523 1272
36997 162942 186454 -16273 1522 1256
37007 162959 186470 -16288 1526 1280
37018 162978 186485 -16298 1533 1305
37030 162992 186496 -16288 1537 1317
37040 163012 186507 -16268 1541 1310
37055 163030 186518 -16275 1555 1311
37066 163042 186522 -16302 1560 1330
37079 163056 186535 -16317 1559 1337
37094 163084 186549 -16316 1567 1332
37107 163103 186562 -16289 1569 1325
37119 163118 186576 -16257 1560 1305
37135 163141 186583 -16236 1550 1290
37150 163159 186589 -16232 1539 1296
37157 163164 186597 -16261 1544 1309
37157 163129 186557 -16296 1542 1311
37142 163083 186528 -16315 1540 1302
37124 163062 186514 -16318 1540 1302
37108 163045 186504 -16283 1532 1306
37094 163023 186499 -16256 1541 1323
37084 163015 186488 -16284 1506 1272
37072 163005 186486 -16308 1515 1255
37061 162990 186484 -16319 1529 1281
37051 162993 186496 -16305 1531 1294
37049 162997 186498 -16259 1533 1285
37052 163010 186509 -16230 1552 1284
37058 163028 186533 -16244 1546 1303
37065 163042 186540 -16277 1539 1317
37073 163057 186550 -16317 1546 1299
37081 163069 186563 -16329 1525 1266
37087 163074 186564 -16314 1504 1250
37093 163083 186568 -16288 1500 1243
37099 163094 186584 -16261 1496 1239
37110 163111 186596 -16270 1498 1260
37121 163133 186604 -16300 1515 1301
37132 163148 186617 -16311 1526 1323
37144 163168 186624 -16302 1523 1303
37158 163183 186639 -16295 1532 1271
37172 163201 186654 -16296 1542 1259
37184 163218 186660 -16296 1534 1268
37196 163237 186675 -16283 1518 1275
37210 163263 186688 -16271 1520 1282
37226 163278 186701 -16274 1535 1285
37240 163294 186709 -16264 1539 1271
37254 163325 186726 -16263 1535 1263
37270 163340 186730 -16281 1545 1259
37274 163331 186709 -16312 1553 1261
37264 163285 186679 -16329 1543 1269
37245 163249 186649 -16313 1546 1281
37229 163225 186639 -16286 1543 1298
37213 163212 186621 -16243 1514 1283
37201 163198 186627 -16281 1521 1280
37188 163176 186617 -16309 1527 1277
37173 163167 186612 -16333 1528 1296
37164 163158 186611 -16328 1523 1295
37157 163157 186616 -16286 1537 1284
37154 163157 186628 -16250 1542 1290
37158 163174 186643 -16241 1541 1301
37163 163188 186650 -16255 1548 1311
37170 163200 186656 -16305 1521 1268
37174 163209 186663 -16317 1512 1261
37180 163218 186662 -16306 1519 1274
37186 163226 186669 -16268 1534 1292
37193 163234 186675 -16246 1529 1302
37201 163248 186693 -16266 1520 1313
37210 163263 186700 -16294 1526 1330
37222 163283 186715 -16301 1517 1326
37232 163305 186728 -16287 1501 1308
37246 163320 186739 -16267 1496 1288
37259 163337 186751 -16263 1488 1266
37272 163357 186761 -16283 1496 1256
37283 163378 186772 -16305 1517 1266
37299 163400 186789 -16311 1541 1281
37317 163419 186801 -16301 1547 1284
37332 163440 186819 -16291 1539 1279
37348 163465 186828 -16282 1544 1271
37363 163492 186848 -16287 1541 1265
37378 163503 186857 -16305 1527 1272
37381 163485 186835 -16314 1514 1276
37368 163451 186801 -16288 1506 1257
37352 163425 186792 -16243 1503 1259
37339 163401 186789 -16239 1504 1292
37325 163393 186786 -16267 1514 1285
37316 163386 186775 -16301 1521 1256
37306 163371 186780 -16343 1516 1257
37294 163366 186777 -16351 1511 1272
37289 163361 186777 -16318 1515 1264
37280 163359 186777 -16270 1543 1266
37279 163369 186790 -16233 1567 1286
37285 163388 186812 -16231 1528 1268
37294 163408 186826 -16281 1531 1254
37301 163414 186834 -16323 1524 1244
37308 163431 186849 -16345 1544 1270
37315 163440 186858 -16335 1571 1294
37321 163452 186862 -16296 1562 1288
37329 163462 186865 -16280 1549 1288
37338 163476 186881 -16289 1560 1295
37346 163500 186895 -16296 1571 1301
37359 163515 186914 -16273 1556 1282
37370 163536 186927 -16238 1544 1245
37385 163557 186937 -16235 1541 1240
37399 163579 186949 -16254 1539 1262
37410 163602 186965 -16275 1557 1271
37425 163616 186974 -16292 1583 1270
37439 163636 186988 -16300 1595 1274
37456 163659 187007 -16305 1593 1276
37469 163679 187015 -16298 1602 1274
37483 163697 187027 -16288 1612 1270
37496 163716 187045 -16292 1594 1259
37511 163744 187049 -16293 1563 1244
37520 163736 187042 -16295 1550 1242
37513 163694 187003 -16301 1564 1250
37496 163654 186982 -16283 1576 1258
37480 163640 186969 -16272 1577 1266
37465 163626 186963 -16281 1580 1263
37450 163612 186959 -16299 1587 1246
37439 163597 186955 -16338 1583 1247
37423 163584 186948 -16363 1567 1263
37413 163574 186949 -16340 1551 1249
37405 163566 186944 -16280 1550 1225
37398 163560 186948 -16242 1556 1230
37403 163579 186961 -16236 1548 1247
37409 163606 186978 -16254 1537 1253
37413 163612 186988 -16293 1536 1238
37421 163621 186994 -16329 1550 1227
37427 163641 187017 -16340 1561 1242
37436 163660 187025 -16323 1556 1254
37440 163672 187030 -16291 1559 1237
37449 163682 187044 -16275 1582 1242
37458 163696 187051 -16240 1578 1290
37470 163714 187071 -16244 1577 1301
37482 163729 187077 -16247 1563 1297
37491 163746 187083 -16265 1546 1278
37499 163762 187098 -16299 1554 1263
37511 163777 187111 -16324 1565 1259
37526 163794 187122 -16321 1576 1265
37537 163813 187132 -16309 1595 1276
37549 163830 187138 -16289 1624 1297
37565 163854 187161 -16223 1603 1250
37580 163873 187167 -16223 1596 1235
37591 163896 187175 -16257 1594 1241
37606 163919 187189 -16301 1593 1257
37614 163916 187193 -16323 1597 1266
37613 163892 187167 -16308 1584 1276
37601 163856 187137 -16269 1574 1287
37586 163829 187120 -16257 1584 1278
37569 163820 187114 -16280 1587 1256
37558 163803 187112 -16323 1554 1241
37546 163795 187112 -16304 1557 1240
37537 163789 187113 -16271 1570 1248
37525 163794 187123 -16230 1598 1269
37519 163799 187130 -16211 1617 1290
37517 163804 187144 -16231 1617 1299
37517 163827 187161 -16266 1603 1280
37524 163849 187185 -16306 1586 1258
37527 163865 187196 -16326 1586 1269
37536 163869 187206 -16311 1593 1290
37541 163880 187214 -16271 1572 1267
37543 163883 187210 -16253 1564 1245
37547 163889 187213 -16263 1581 1256
37552 163904 187220 -16275 1582 1267
37561 163926 187237 -16277 1570 1265
37572 163939 187248 -16261 1562 1252
37584 163959 187263 -16267 1582 1237
37594 163975 187282 -16295 1607 1241
37605 163990 187289 -16319 1619 1250
37615 164007 187298 -16326 1638 1254
37623 164016 187309 -16298 1631 1256
37633 164027 187315 -16262 1608 1246
37645 164048 187323 -16248 1599 1253
37655 164062 187333 -16241 1579 1260
37669 164075 187341 -16251 1564 1254
37679 164088 187347 -16283 1557 1258
37691 164107 187356 -16307 1547 1262
37701 164120 187368 -16302 1550 1252
37705 164113 187349 -16280 1553 1256
37695 164081 187324 -16277 1552 1288
37675 164047 187305 -16276 1524 1235
37654 164019 187295 -16306 1508 1203
37638 164005 187287 -16327 1502 1221
37624 163986 187281 -16324 1516 1228
37610 163970 187275 -16287 1522 1222
37592 163959 187266 -16251 1522 1218
37579 163943 187263 -16253 1530 1218
37567 163944 187265 -16283 1551 1230
37561 163953 187275 -16328 1561 1228
37566 163974 187297 -16357 1552 1188
37571 163988 187303 -16346 1541 1164
37574 163998 187316 -16315 1536 1176
37577 164005 187327 -16282 1550 1190
37580 164019 187335 -16269 1567 1200
37580 164025 187349 -16294 1579 1233
37585 164036 187352 -16311 1574 1260
37593 164045 187355 -16303 1565 1243
37600 164065 187378 -16291 1592 1214
37609 164086 187395 -16295 1611 1199
37620 164108 187414 -16317 1613 1194
37632 164133 187434 -16321 1598 1188
37643 164159 187450 -16315 1589 1197
37657 164176 187471 -16299 1602 1201
37667 164201 187491 -16271 1623 1183
37679 164224 187506 -16269 1634 1189
37694 164247 187527 -16285 1629 1212
37708 164278 187551 -16304 1637 1228
37720 164297 187563 -16322 1649 1243
37730 164313 187561 -16308 1648 1253
37730 164291 187549 -16266 1641 1254
37714 164252 187514 -16259 1604 1206
37693 164220 187494 -16297 1597 1192
37673 164201 187490 -16327 1600 1186
37655 164183 187497 -16340 1606 1216
37638 164179 187490 -16305 1612 1237
37623 164164 187496 -16254 1620 1237
37610 164164 187498 -16222 1622 1239
37594 164156 187496 -16226 1617 1236
37580 164153 187506 -16266 1614 1241
37574 164163 187519 -16318 1575 1179
37576 164181 187533 -16310 1601 1194
37576 164187 187548 -16285 1631 1203
37580 164199 187540 -16268 1654 1197
37581 164206 187550 -16289 1674 1203
37584 164215 187552 -16308 1689 1218
37588 164238 187564 -16313 1701 1225
37593 164263 187579 -16315 1708 1214
37601 164298 187604 -16294 1727 1196
37610 164339 187621 -16273 1714 1156
37620 164369 187643 -16275 1724 1158
37636 164415 187666 -16278 1759 1180
37653 164463 187700 -16286 1796 1197
37671 164511 187735 -16281 1805 1196
37689 164542 187775 -16287 1789 1184
37705 164577 187802 -16283 1805 1178
37721 164602 187841 -16255 1829 1189
37741 164643 187877 -16266 1806 1176
37757 164673 187908 -16276 1768 1152
37774 164701 187938 -16249 1740 1158
37786 164707 187948 -16251 1736 1169
37781 164690 187932 -16279 1764 1145
37764 164651 187904 -16319 1791 1139
37739 164616 187889 -16345 1800 1168
37715 164591 187883 -16320 1809 1192
37697 164584 187883 -16270 1823 1209
37675 164568 187876 -16240 1828 1212
37655 164542 187869 -16231 1826 1218
37633 164532 187861 -16243 1816 1205
37610 164520 187861 -16275 1779 1180
37593 164520 187863 -16316 1748 1173
37582 164517 187859 -16331 1727 1158
37581 164525 187879 -16314 1713 1148
37582 164538 187889 -16284 1726 1149
37578 164537 187884 -16251 1740 1158
37578 164537 187880 -16256 1741 1185
37576 164542 187882 -16275 1727 1187
37577 164548 187882 -16285 1724 1167
37578 164553 187888 -16289 1721 1137
37585 164563 187904 -16259 1688 1102
37592 164582 187914 -16251 1674 1094
37600 164603 187936 -16285 1694 1106
37609 164616 187945 -16314 1707 1131
37618 164635 187962 -16317 1726 1147
37628 164653 187981 -16301 1746 1147
37639 164672 187997 -16279 1748 1144
37653 164696 188015 -16276 1747 1136
37667 164723 188042 -16293 1752 1146
37677 164737 188053 -16284 1747 1156
37690 164755 188062 -16231 1651 1121
37701 164770 188065 -16235 1654 1110
37705 164760 188057 -16269 1684 1126
37693 164714 188023 -16307 1700 1133
37671 164675 187993 -16342 1697 1142
37645 164648 187988 -16353 1691 1149
37627 164625 187973 -16320 1683 1129
37602 164592 187965 -16268 1659 1109
37578 164557 187946 -16242 1660 1101
37550 164526 187923 -16233 1674 1094
37520 164476 187882 -16252 1630 1065
37498 164448 187851 -16291 1617 1041
37485 164435 187841 -16322 1626 1046
37478 164437 187846 -16339 1607 1052
37481 164445 187852 -16322 1608 1043
37478 164440 187841 -16311 1599 1037
37478 164443 187837 -16318 1590 1051
37479 164441 187839 -16318 1590 1058
37480 164448 187854 -16306 1597 1054
37484 164452 187866 -16268 1601 1040
37494 164480 187891 -16221 1581 1008
37506 164520 187930 -16218 1549 997
37528 164568 187999 -16273 1526 1006
37553 164624 188062 -16326 1517 1000
37572 164664 188107 -16331 1539 983
37582 164685 188113 -16299 1576 968
37589 164692 188112 -16284 1587 973
37597 164701 188114 -16305 1571 967
37608 164713 188111 -16316 1553 944
37618 164725 188105 -16314 1534 949
37627 164722 188094 -16221 1581 1008
37624 164711 188072 -16218 1549 997
37609 164660 188026 -16273 1526 1006
37585 164611 187991 -16326 1517 1000
37558 164574 187950 -16331 1539 983
37533 164543 187931 -16299 1576 968
37513 164518 187914 -16284 1587 973
37488 164490 187902 -16305 1571 967
37466 164471 187885 -16316 1553 944
37446 164444 187878 -16314 1534 949
37432 164435 187868 -16266 1491 915
37423 164438 187872 -16291 1503 860
37424 164447 187878 -16333 1494 832
37425 164451 187883 -16374 1460 816
37429 164455 187884 -16374 1431 770
37428 164459 187885 -16346 1429 753
37430 164456 187886 -16313 1429 761
37429 164456 187880 -16280 1421 759
37432 164464 187887 -16279 1414 751
37436 164473 187888 -16296 1393 727
37444 164485 187897 -16315 1371 703
37453 164491 187905 -16337 1355 701
37461 164511 187916 -16338 1337 694
37473 164519 187927 -16333 1320 659
37485 164536 187944 -16341 1310 626
37497 164557 187952 -16357 1305 623
37511 164569 187965 -16364 1287 634
37519 164593 187973 -16354 1270 628
37535 164610 187997 -16351 1255 626
37546 164621 187999 -16352 1240 626
37551 164629 188003 -16345 1250 613
37546 164596 187979 -16343 1262 609
37527 164562 187955 -16346 1249 618
37504 164538 187938 -16355 1247 621
37485 164517 187935 -16359 1265 607
37469 164500 187937 -16352 1277 602
37453 164485 187926 -16352 1273 598
37431 164464 187920 -16354 1260 585
37417 164454 187913 -16355 1245 590
37404 164441 187906 -16343 1236 610
37400 164445 187922 -16330 1243 620
37401 164459 187940 -16340 1258 584
37405 164469 187953 -16378 1256 539
37411 164478 187960 -16419 1237 528
37412 164485 187967 -16411 1218 522
37416 164485 187981 -16375 1218 520
37415 164489 187975 -16333 1228 532
37416 164486 187974 -16308 1226 549
37423 164497 187976 -16324 1218 548
37432 164520 187999 -16357 1211 528
37441 164538 188015 -16378 1242 558
37451 164555 188025 -16375 1242 549
37464 164563 188023 -16353 1216 520
37471 164570 188020 -16350 1205 517
37476 164575 188024 -16350 1213 531
37485 164592 188021 -16347 1212 528
37498 164619 188032 -16354 1201 513
37514 164648 188058 -16354 1192 518
37530 164679 188076 -16341 1200 529
37542 164703 188085 -16349 1183 514
37556 164717 188091 -16373 1185 495
37554 164697 188071 -16390 1196 482
37541 164674 188050 -16390 1187 464
37524 164646 188036 -16369 1159 447
37504 164637 188036 -16349 1161 447
37492 164624 188033 -16330 1180 470
37481 164623 188038 -16309 1176 482
37470 164608 188038 -16314 1150 464
37460 164606 188037 -16341 1129 459
37452 164611 188051 -16360 1162 483
37454 164627 188062 -16369 1201 498
37460 164654 188092 -16382 1202 482
37472 164671 188109 -16395 1189 454
37481 164683 188123 -16387 1163 421
37491 164701 188143 -16353 1150 408
37498 164714 188156 -16320 1148 428
37511 164735 188169 -16313 1147 440
37521 164752 188191 -16338 1157 439
37536 164764 188204 -16375 1167 418
37545 164787 188222 -16397 1168 413
37558 164802 188240 -16401 1166 422
37571 164819 188250 -16380 1163 410
37588 164832 188254 -16364 1163 402
37604 164851 188269 -16369 1161 403
37620 164873 188295 -16368 1153 406
37636 164889 188311 -16357 1143 391
37654 164907 188328 -16358 1138 372
37673 164928 188336 -16365 1142 371
37690 164944 188354 -16368 1162 379
37707 164960 188363 -16343 1176 391
37721 164975 188370 -16360 1160 352
37721 164955 188350 -16378 1134 341
37710 164912 188318 -16376 1119 344
37695 164888 188303 -16366 1129 352
37682 164872 188298 -16374 1130 363
37671 164862 188294 -16393 1137 375
37663 164848 188288 -16397 1146 373
37651 164837 188281 -16366 1143 357
37644 164832 188290 -16328 1175 390
37638 164830 188295 -16359 1184 366
37643 164850 188316 -16397 1178 367
37656 164881 188341 -16415 1181 380
37670 164899 188365 -16400 1195 383
37679 164915 188392 -16367 1208 381
37695 164939 188415 -16332 1214 392
37702 164958 188433 -16316 1212 401
37717 164974 188454 -16342 1195 392
37733 164998 188484 -16374 1194 384
37748 165022 188513 -16370 1215 393
37765 165053 188545 -16361 1227 375
37786 165087 188579 -16372 1227 371
37809 165120 188611 -16371 1229 391
37824 165151 188639 -16358 1238 397
37843 165169 188661 -16351 1239 401
37856 165187 188676 -16351 1242 424
37877 165210 188697 -16359 1251 420
37895 165240 188725 -16366 1258 415
37914 165260 188740 -16357 1263 439
37928 165282 188757 -16348 1275 447
37944 165296 188763 -16355 1296 431
37946 165270 188749 -16362 1300 411
37937 165244 188723 -16359 1296 398
37926 165228 188714 -16355 1301 398
37916 165219 188721 -16362 1304 412
37913 165214 188723 -16357 1280 431
37906 165208 188724 -16342 1264 434
37902 165203 188729 -16341 1276 430
37899 165200 188736 -16357 1272 411
37898 165211 188747 -16381 1265 409
37902 165218 188749 -16381 1272 406
37912 165237 188764 -16366 1274 405
37919 165244 188768 -16323 1282 395
37929 165248 188772 -16293 1282 379
37936 165259 188772 -16303 1277 377
37942 165264 188777 -16344 1270 369
37951 165269 188778 -16390 1259 382
37961 165274 188786 -16365 1285 393
37972 165291 188788 -16353 1296 386
37985 165302 188798 -16353 1289 400
38001 165319 188807 -16359 1278 401
38014 165332 188816 -16346 1269 395
38029 165353 188828 -16334 1277 385
38045 165369 188842 -16342 1281 383
38059 165387 188860 -16351 1275 377
38076 165407 188868 -16365 1269 365
38093 165436 188884 -16363 1269 365
38112 165453 188904 -16358 1282 377
38130 165473 188917 -16353 1297 375
38148 165493 188922 -16340 1294 356
38157 165488 188918 -16345 1290 353
38151 165449 188883 -16359 1295 359
38142 165425 188864 -16374 1295 352
38130 165401 188845 -16374 1290 353
38121 165385 188831 -16346 1298 371
38114 165372 188826 -16341 1308 398
38107 165360 188826 -16372 1297 389
38102 165364 188822 -16396 1286 375
38097 165360 188819 -16398 1280 365
38097 165357 188827 -16357 1266 350
38104 165374 188842 -16303 1273 359
38108 165385 188847 -16288 1295 386
38118 165392 188844 -16300 1301 397
38125 165395 188846 -16324 1299 394
38134 165402 188850 -16359 1298 385
38142 165409 188860 -16355 1302 421
38147 165419 188866 -16330 1308 416
38156 165429 188870 -16338 1301 417
38169 165439 188878 -16353 1303 418
38182 165459 188880 -16355 1317 420
38193 165471 188891 -16344 1325 433
38206 165479 188896 -16325 1323 431
38222 165500 188907 -16316 1324 421
38236 165511 188919 -16335 1327 423
38249 165527 188923 -16351 1324 440
38268 165544 188940 -16352 1320 447
38280 165562 188955 -16356 1324 440
38299 165590 188972 -16348 1329 432
38313 165610 188984 -16336 1333 417
38331 165636 189003 -16333 1342 406
38347 165646 189009 -16350 1349 406
38357 165648 189000 -16379 1332 411
38351 165618 188973 -16381 1319 409
38340 165577 188952 -16360 1324 406
38328 165560 188939 -16337 1321 428
38322 165549 188936 -16326 1321 445
38313 165546 188933 -16342 1321 419
38307 165531 188925 -16379 1311 405
38301 165521 188927 -16404 1283 408
38299 165519 188931 -16386 1271 394
38297 165524 188938 -16337 1285 374
38303 165536 188946 -16306 1294 379
38309 165550 188965 -16310 1296 395
38316 165565 188970 -16331 1291 389
38324 165567 188968 -16367 1292 377
38328 165571 188980 -16363 1282 397
38334 165581 188986 -16358 1288 393
38342 165599 188997 -16347 1291 365
38352 165604 189007 -16351 1300 362
38363 165618 189018 -16362 1309 378
38375 165634 189020 -16361 1307 386
38387 165651 189043 -16343 1304 381
38399 165671 189063 -16343 1308 372
38413 165684 189068 -16361 1315 370
38422 165700 189081 -16360 1315 387
38434 165711 189090 -16360 1319 402
38450 165730 189104 -16363 1328 413
38465 165752 189113 -16351 1336 413
38476 165771 189129 -16334 1337 389
38490 165782 189137 -16330 1330 378
38503 165790 189141 -16344 1324 385
38512 165799 189139 -16359 1307 385
38510 165776 189112 -16374 1295 383
38498 165733 189080 -16363 1287 386
38480 165700 189058 -16324 1288 389
38466 165680 189042 -16305 1296 394
38452 165658 189035 -16332 1302 372
38440 165644 189019 -16379 1309 344
38429 165624 189012 -16404 1307 348
38415 165608 189005 -16385 1302 347
38404 165597 188987 -16342 1304 337
38396 165590 188989 -16308 1312 351
38396 165600 188998 -16296 1311 373
38399 165613 189013 -16321 1317 384
38401 165622 189010 -16365 1315 374
38405 165619 189014 -16388 1296 343
38406 165621 189019 -16395 1290 324
38407 165630 189018 -16389 1290 337
38409 165624 189019 -16368 1297 349
38417 165641 189026 -16358 1303 364
38421 165644 189037 -16372 1301 384
38429 165659 189039 -16378 1298 387
38436 165667 189044 -16360 1296 370
38447 165676 189048 -16344 1302 347
38451 165680 189053 -16351 1297 340
38459 165692 189061 -16355 1305 365
38468 165701 189063 -16361 1328 372
38480 165717 189076 -16358 1344 380
38491 165731 189083 -16349 1334 373
38503 165749 189090 -16338 1314 351
38514 165765 189101 -16340 1312 336
38528 165785 189114 -16361 1326 349
38539 165793 189114 -16382 1335 366
38534 165760 189092 -16385 1336 366
38519 165726 189058 -16316 1310 366
38503 165687 189036 -16315 1318 356
38481 165665 189029 -16346 1324 342
38465 165643 189019 -16385 1311 339
38446 165625 189001 -16412 1297 349
38430 165605 188988 -16397 1294 348
38413 165582 188983 -16356 1295 340
38398 165573 188976 -16318 1314 344
38387 165571 188985 -16308 1331 342
38380 165575 189001 -16324 1333 343
38380 165590 189020 -16340 1340 351
38381 165607 189034 -16362 1339 337
38381 165614 189043 -16376 1324 326
38383 165615 189049 -16366 1314 341
38381 165623 189054 -16333 1317 340
38382 165632 189061 -16309 1334 339
38388 165637 189075 -16331 1349 366
38395 165655 189099 -16365 1347 387
38405 165676 189112 -16368 1337 371
38412 165696 189131 -16344 1344 351
38423 165718 189149 -16319 1354 360
38431 165736 189165 -16324 1357 379
38441 165749 189180 -16351 1365 379
38453 165778 189210 -16365 1372 363
38468 165798 189239 -16356 1391 365
38483 165834 189261 -16345 1404 372
38495 165858 189287 -16348 1394 366
38505 165875 189304 -16336 1376 342
38518 165898 189323 -16326 1371 315
38528 165917 189335 -16338 1364 308
38537 165928 189339 -16346 1366 345
38541 165919 189326 -16341 1369 346
38527 165872 189284 -16320 1363 341
38500 165823 189252 -16325 1358 327
38474 165795 189236 -16345 1370 302
38451 165769 189221 -16379 1371 275
38427 165742 189203 -16407 1354 268
38400 165712 189186 -16398 1355 276
38380 165687 189178 -16368 1363 284
38357 165674 189170 -16275 1376 334
38337 165661 189163 -16282 1370 340
38321 165652 189168 -16322 1374 304
38312 165651 189176 -16362 1370 273
38304 165658 189190 -16399 1352 269
38299 165659 189189 -16409 1356 287
38298 165651 189191 -16382 1366 297
38290 165638 189170 -16359 1371 284
38281 165624 189132 -16403 1321 213
38273 165605 189116 -16527 1186 72
38262 165580 189073 -16686 1024 -21
38253 165548 189024 -16904 851 -31
38244 165523 188983 -17067 686 -104
38232 165490 188943 -17040 609 -170
38227 165475 188927 -16897 630 -67
38222 165486 188931 -16735 700 193
38221 165493 188940 -16572 771 590
38222 165520 188964 -16353 856 1060
38225 165539 188987 -16102 950 1603
38233 165571 189008 -15845 1042 2183
38240 165600 189026 -15597 1108 2623
38250 165632 189053 -15410 1096 2885
38265 165659 189066 -15346 1014 3026
38275 165673 189065 -15403 882 3096
38286 165687 189054 -15554 705 3099
38297 165688 189048 -15774 526 3041
38304 165691 189026 -15968 397 2954
38300 165667 188993 -16081 299 2852
38282 165611 188941 -16135 232 2763
38253 165554 188901 -16172 203 2687
38224 165517 188870 -16189 151 2587
38196 165492 188848 -16211 85 2503
38174 165464 188830 -16261 62 2487
38148 165453 188825 -16277 58 2496
38122 165428 188815 -16245 71 2511
38096 165413 188800 -16199 102 2565
38078 165398 188798 -16158 124 2624
38063 165392 188804 -16143 136 2658
38054 165402 188808 -16164 149 2662
38051 165407 188806 -16208 156 2640
38047 165406 188808 -16189 157 2604
38044 165406 188805 -16192 174 2577
38041 165413 188810 -16197 192 2529
38037 165408 188799 -16214 213 2483
38034 165403 188797 -16239 229 2447
38033 165408 188800 -16254 231 2411
38039 165416 188805 -16247 235 2364
38040 165428 188815 -16248 241 2343
38048 165433 188819 -16259 254 2336
38051 165445 188822 -16256 276 2324
38059 165453 188832 -16247 281 2336
38065 165468 188834 -16250 298 2336
38072 165483 188843 -16250 306 2320
38080 165491 188846 -16241 312 2315
38089 165508 188858 -16220 319 2314
38096 165521 188865 -16201 333 2330
38108 165539 188876 -16188 349 2333
38115 165548 188873 -16172 348 2299
38124 165558 188874 -16162 359 2253
38133 165571 188882 -16159 387 2226
38141 165588 188886 -16171 401 2223
38153 165599 188886 -16196 412 2190
38165 165614 188895 -16213 426 2129
38175 165614 188894 -16216 436 2061
38173 165593 188869 -16249 454 2003
38150 165539 188831 -16313 474 1931
38124 165506 188798 -16368 490 1846
38097 165471 188781 -16409 506 1782
38071 165447 188774 -16424 521 1746
38049 165421 188756 -16334 576 1707
38022 165401 188741 -16323 602 1692
37994 165367 188728 -16326 625 1676
37976 165359 188717 -16351 647 1661
37956 165345 188715 -16385 670 1646
37943 165348 188726 -16388 683 1623
37938 165355 188737 -16353 713 1609
37938 165360 188745 -16329 760 1622
37935 165370 188750 -16319 777 1635
37935 165374 188756 -16424 521 1746
37933 165383 188764 -16334 576 1707
37935 165391 188775 -16323 602 1692
37937 165393 188778 -16326 625 1676
37938 165408 188797 -16351 647 1661
37948 165427 188813 -16385 670 1646
37955 165443 188825 -16388 683 1623
37962 165461 188845 -16353 713 1609
37973 165475 188867 -16329 760 1622
37980 165494 188877 -16319 777 1635
37988 165507 188887 -16289 795 1633
37996 165515 188892 -16311 789 1617
38012 165551 188914 -16325 787 1599
38020 165562 188931 -16323 803 1578
38034 165585 188957 -16322 812 1569
38048 165604 188971 -16327 820 1564
38061 165620 188986 -16334 832 1562
38073 165644 189011 -16347 836 1570
38087 165672 189034 -16347 845 1569
38102 165696 189060 -16315 874 1566
38120 165726 189088 -16287 890 1567
38136 165760 189117 -16280 876 1575
38150 165780 189134 -16278 867 1572
38148 165769 189126 -16291 864 1566
38134 165728 189106 -16313 839 1543
38109 165703 189105 -16333 818 1501
38087 165689 189110 -16362 815 1489
38067 165683 189124 -16386 810 1487
38052 165674 189128 -16396 812 1483
38035 165660 189136 -16381 826 1491
38016 165647 189137 -16333 845 1496
37999 165642 189134 -16293 861 1508
37983 165636 189144 -16305 883 1548
37976 165643 189162 -16336 900 1558
37976 165657 189180 -16346 892 1533
37973 165661 189186 -16351 887 1535
37972 165667 189194 -16337 874 1537
37967 165667 189197 -16305 846 1509
37968 165673 189206 -16288 837 1489
37965 165671 189207 -16292 848 1493
37966 165674 189219 -16296 864 1494
37969 165681 189219 -16316 863 1482
37975 165696 189229 -16350 845 1479
37977 165696 189235 -16349 845 1491
37982 165706 189236 -16332 856 1519
37984 165703 189236 -16311 868 1533
37989 165714 189234 -16288 881 1532
37995 165716 189235 -16301 887 1547
38001 165723 189234 -16321 884 1568
38010 165732 189237 -16327 878 1574
38017 165748 189241 -16301 884 1554
38031 165758 189251 -16271 886 1532
38042 165769 189260 -16275 882 1529
38047 165782 189263 -16295 885 1529
38057 165798 189268 -16322 890 1527
38070 165811 189273 -16332 898 1520
38083 165835 189300 -16322 908 1509
38096 165857 189317 -16311 904 1515
38106 165873 189337 -16309 892 1532
38101 165854 189327 -16312 888 1531
38086 165826 189327 -16286 866 1501
38066 165840 189370 -16283 859 1485
38044 165847 189420 -16305 861 1488
38025 165870 189489 -16328 860 1499
38004 165885 189553 -16324 868 1505
37978 165873 189570 -16292 876 1511
37962 165884 189608 -16227 874 1537
37946 165887 189630 -16148 890 1560
37932 165897 189629 -16115 915 1565
37919 165890 189616 -16098 953 1547
37917 165889 189587 -15985 1053 1568
37914 165869 189554 -15786 1192 1678
37910 165867 189533 -15582 1384 1872
37906 165851 189512 -15322 1687 2119
37903 165853 189516 -15075 1908 2147
37902 165858 189519 -15044 2023 1925
37901 165862 189529 -15240 2166 1689
37901 165864 189532 -15605 2290 1433
37903 165869 189538 -16041 2372 1119
37907 165878 189539 -16447 2395 822
37909 165885 189536 -16837 2425 567
37917 165901 189542 -17179 2479 310
37929 165914 189549 -17386 2579 89
37937 165942 189568 -17377 2771 -45
37953 165968 189583 -17176 2988 -54
37968 165995 189604 -16912 3173 40
37982 166016 189620 -16639 3315 157
37995 166037 189633 -16365 3416 294
38009 166065 189641 -16132 3457 443
38022 166079 189654 -15967 3422 582
38037 166094 189658 -15847 3227 780
38053 166114 189672 -15872 3144 863
38065 166133 189681 -15936 3106 965
38081 166157 189700 -15979 3079 1047
38099 166183 189719 -15999 3046 1099
38111 166196 189723 -16022 2995 1136
38112 166182 189703 -16039 2952 1164
38094 166140 189669 -16061 2926 1198
38073 166106 189663 -16082 2886 1211
38054 166099 189660 -16073 2847 1234
38040 166093 189669 -16054 2830 1267
38025 166093 189668 -16034 2818 1308
38013 166087 189665 -16019 2827 1359
38000 166072 189662 -16016 2850 1408
37984 166069 189672 -16038 2904 1452
37979 166079 189700 -16068 2962 1468
37978 166103 189744 -16120 2974 1463
37984 166133 189806 -16209 2965 1476
37996 166177 189847 -16284 2965 1475
38003 166205 189878 -16339 2949 1434
38009 166232 189921 -16443 2896 1378
38014 166271 189961 -16577 2781 1323
38023 166300 190011 -16635 2670 1311
38026 166319 190021 -16548 2657 1352
38037 166342 190033 -16278 2770 1437
38045 166342 190026 -15867 2959 1518
38049 166328 190003 -15501 3159 1566
38055 166317 189971 -15367 3317 1619
38061 166311 189949 -15483 3356 1728
38069 166294 189917 -15727 3315 1925
38076 166290 189880 -15916 3314 2092
38088 166271 189842 -15963 3360 2069
38102 166269 189830 -15935 3386 1873
38118 166280 189836 -15926 3372 1613
38139 166327 189883 -15953 3302 1337
38156 166391 189965 -16026 3205 1092
38179 166454 190038 -16153 3102 919
38205 166519 190103 -16263 3033 814
38237 166593 190181 -16312 3010 726
38268 166676 190259 -16234 2933 441
38297 166740 190324 -16240 2920 334
38316 166768 190361 -16240 3001 451
38322 166781 190404 -16163 3280 908
38322 166812 190467 -15992 3658 1407
38316 166838 190512 -15774 3969 1670
38310 166854 190544 -15554 4159 1768
38304 166867 190577 -15408 4213 1822
38301 166895 190610 -15354 4169 1842
38292 166903 190631 -15319 3891 1796
38283 166898 190649 -15332 3859 1855
38280 166918 190692 -15427 3936 2064
38279 166957 190750 -15520 4014 2266
38283 167007 190812 -15544 4044 2370
38293 167052 190870 -15525 4028 2378
38302 167078 190900 -15564 3989 2404
38313 167110 190950 -15634 3924 2454
38325 167139 190981 -15644 3846 2465
38332 167142 190986 -15610 3819 2541
38339 167151 190988 -15582 3881 2755
38341 167141 190970 -15531 4007 3007
38343 167133 190949 -15407 4210 3211
38355 167132 190950 -15200 4455 3272
38371 167155 190972 -15017 4634 3217
38374 167137 190939 -14958 4696 3128
38359 167057 190826 -14942 4658 2945
38350 167009 190744 -14938 4625 2685
38356 166994 190713 -15012 4632 2448
38377 167012 190727 -15196 4597 2301
38402 167046 190747 -15373 4593 2197
38423 167067 190764 -15480 4709 2140
38450 167111 190804 -15603 4837 2170
38483 167168 190868 -15745 4858 2197
38509 167208 190922 -15833 4778 2183
38530 167236 190943 -15833 4645 2095
38537 167228 190929 -15793 4486 1911
38529 167197 190887 -15801 4344 1744
38511 167155 190857 -15878 4263 1682
38491 167117 190814 -15945 4210 1650
38481 167101 190812 -15822 4148 1463
38480 167115 190837 -15688 4192 1396
38484 167126 190879 -15633 4246 1376
38482 167117 190884 -15675 4316 1436
38468 167078 190853 -15702 4430 1524
38448 167019 190793 -15685 4563 1614
38426 166967 190728 -15663 4623 1694
38417 166931 190687 -15661 4576 1703
38423 166939 190695 -15668 4506 1630
38435 166969 190730 -15675 4464 1505
38448 167000 190773 -15718 4401 1377
38459 167031 190804 -15784 4314 1303
38473 167042 190817 -15827 4268 1289
38484 167055 190830 -15813 4253 1240
38493 167063 190845 -15748 4245 1063
38503 167088 190860 -15648 4283 903
38512 167097 190866 -15571 4368 895
38521 167106 190855 -15522 4473 958
38531 167106 190848 -15528 4555 1008
38541 167103 190839 -15598 4557 974
38550 167105 190825 -15653 4546 905
38564 167105 190815 -15656 4585 863
38575 167108 190810 -15619 4636 825
38586 167111 190804 -15619 4634 798
38601 167121 190818 -15671 4551 721
38615 167134 190831 -15752 4435 607
38635 167162 190848 -15822 4345 514
38652 167180 190863 -15844 4304 464
38672 167203 190875 -15838 4299 473
38683 167204 190875 -15816 4292 489
38688 167186 190853 -15755 4292 521
38684 167147 190831 -15684 4314 575
38671 167111 190798 -15671 4331 627
38660 167094 190793 -15685 4323 676
38651 167073 190788 -15673 4328 695
38647 167055 190785 -15664 4350 736
38642 167044 190788 -15654 4357 827
38634 167041 190796 -15628 4361 922
38623 167026 190792 -15580 4377 953
38616 167012 190782 -15520 4411 922
38613 167006 190786 -15554 4520 982
38614 167016 190787 -15550 4535 976
38622 167036 190807 -15442 4617 922
38627 167047 190817 -15420 4773 963
38636 167049 190812 -15474 4943 1058
38637 167049 190803 -15502 5101 1107
38643 167057 190806 -15551 5191 1114
38652 167068 190813 -15608 5255 1138
38661 167077 190819 -15635 5337 1210
38673 167097 190841 -15514 5483 1381
38688 167116 190856 -15447 5462 1438
38704 167139 190882 -15380 5424 1472
38721 167175 190921 -15332 5424 1508
38739 167209 190953 -15303 5431 1545
38756 167237 190982 -15252 5428 1546
38771 167263 191015 -15200 5453 1525
38787 167296 191037 -15181 5504 1538
38801 167309 191057 -15211 5560 1575
38816 167330 191074 -15250 5616 1645
38828 167351 191080 -15213 5621 1668
38841 167367 191102 -15136 5622 1669
38855 167392 191120 -15076 5630 1689
38870 167412 191141 -15038 5631 1683
38885 167440 191158 -15022 5603 1657
38892 167447 191158 -15063 5578 1656
38888 167406 191129 -15098 5557 1627
38872 167380 191112 -15093 5550 1576
38858 167363 191094 -15110 5544 1549
38848 167356 191090 -15159 5504 1516
38836 167349 191094 -15215 5448 1476
38829 167342 191100 -15287 5383 1435
38821 167339 191103 -15351 5315 1375
38813 167339 191113 -15400 5254 1331
38811 167348 191130 -15405 5205 1290
38810 167377 191163 -15372 5176 1248
38813 167399 191191 -15387 5172 1246
38822 167424 191218 -15476 5159 1264
38825 167444 191230 -15534 5137 1247
38833 167470 191255 -15531 5137 1210
38843 167490 191287 -15526 5126 1235
38854 167517 191306 -15533 5089 1303
38860 167537 191334 -15548 5028 1350
38871 167565 191353 -15524 4972 1368
38881 167602 191381 -15503 4939 1385
38894 167634 191412 -15516 4910 1399
38903 167652 191426 -15514 4889 1413
38913 167676 191449 -15518 4868 1452
38927 167696 191458 -15512 4841 1479
38940 167718 191470 -15600 4804 1598
38951 167738 191473 -15656 4769 1688
38969 167749 191482 -15580 4697 1717
38981 167774 191500 -15396 4635 1664
38993 167786 191496 -15291 4597 1569
39003 167789 191491 -15384 4528 1486
39013 167804 191491 -15535 4424 1428
39025 167813 191479 -15586 4372 1355
39032 167822 191466 -15624 4361 1309
39040 167823 191446 -15759 4298 1317
39043 167819 191427 -15937 4184 1348
39046 167809 191400 -16064 4043 1391
39045 167789 191359 -16126 3889 1414
39038 167743 191306 -16221 3709 1438
39020 167696 191267 -16312 3492 1508
39006 167652 191230 -16278 3263 1624
38996 167637 191228 -16115 3019 1743
38984 167626 191205 -15947 2797 1852
38981 167613 191203 -15873 2617 1910
38982 167615 191217 -15874 2486 1927
38978 167611 191218 -15881 2441 1947
38974 167608 191218 -15867 2510 1972
38973 167610 191220 -15988 2481 1974
38969 167593 191209 -16192 2281 1844
38969 167563 191170 -16174 2223 1658
38964 167532 191116 -16014 2422 1554
38960 167490 191047 -15989 2643 1539
38961 167454 191002 -16030 2812 1567
38959 167422 190953 -16012 2944 1585
38957 167386 190906 -16008 2919 1572
38961 167369 190883 -16021 2780 1484
38972 167365 190892 -16085 2557 1351
38980 167387 190902 -16211 2354 1268
38990 167398 190911 -16314 2263 1227
38999 167394 190899 -16383 2187 1190
39008 167397 190889 -16382 2110 1160
39014 167377 190851 -16292 2080 1194
39020 167365 190812 -16155 2127 1303
39017 167327 190739 -16032 2239 1405
39016 167287 190656 -15990 2344 1492
39017 167269 190621 -15920 2604 1512
39026 167271 190609 -15978 2520 1364
39034 167278 190620 -16129 2295 1248
39051 167305 190644 -16324 1922 1190
39064 167321 190661 -16511 1467 1113
39076 167339 190666 -16577 1216 1079
39077 167321 190649 -16515 1215 1139
39064 167272 190602 -16365 1363 1257
39049 167225 190553 -16180 1540 1358
39029 167171 190498 -15953 1812 1426
39014 167135 190461 -15992 1942 1440
38998 167084 190418 -16113 1998 1397
38984 167071 190408 -16267 1972 1332
38969 167035 190364 -16367 1901 1262
38955 166996 190310 -16350 1862 1141
38944 166972 190271 -16237 1897 984
38937 166948 190230 -16143 2013 984
38935 166925 190186 -16146 2119 1135
38933 166890 190132 -16200 2117 1223
38920 166848 190068 -16231 2049 1213
38913 166801 190006 -16226 1986 1142
38905 166767 189941 -16208 1968 1019
38902 166744 189910 -16199 1992 910
38897 166717 189872 -16197 2012 846
38897 166707 189858 -16241 1998 820
38907 166720 189856 -16350 1928 825
38920 166758 189900 -16442 1819 858
38943 166822 189985 -16451 1716 878
38963 166882 190074 -16447 1576 886
38983 166953 190173 -16492 1363 893
39008 167027 190278 -16515 1158 884
39039 167117 190396 -16421 1125 904
39069 167207 190493 -16205 1336 977
39096 167270 190568 -15983 1650 1123
39115 167303 190601 -15852 1879 1314
39131 167336 190620 -15750 2017 1442
39143 167351 190623 -15672 2141 1464
39141 167328 190595 -15741 2222 1430
39127 167288 190550 -15935 2227 1337
39103 167249 190531 -16166 2224 1006
39078 167233 190521 -16240 2199 883
39058 167227 190534 -16330 2171 782
39037 167224 190540 -16405 2200 782
39029 167253 190559 -16451 2274 915
39003 167230 190568 -16455 2359 1101
38971 167186 190537 -16389 2423 1250
38953 167196 190575 -16281 2431 1352
38966 167278 190709 -16251 2322 1410
38979 167346 190794 -16254 2114 1395
38970 167332 190757 -16211 1860 1320
38958 167298 190688 -16186 1657 1227
38924 167205 190571 -16150 1660 1213
38847 167013 190350 -16189 1722 1308
38747 166776 190056 -16331 1677 1439
38633 166511 189711 -16428 1531 1528
38519 166244 189387 -16355 1365 1566
38435 166054 189148 -16162 1298 1591
38370 165894 188940 -16006 1290 1565
38325 165780 188806 -16028 1211 1477
38298 165707 188709 -16192 1068 1395
38286 165680 188673 -16368 863 1346
38282 165675 188670 -16482 670 1295
38279 165661 188651 -16490 647 1203
38282 165653 188629 -16436 781 1092
38281 165645 188617 -16375 1014 1075
38277 165643 188589 -16319 1321 1150
38275 165628 188565 -16263 1599 1198
38265 165598 188526 -16269 1758 1210
38254 165555 188484 -16360 1794 1268
38230 165488 188420 -16465 1748 1381
38198 165403 188363 -16495 1720 1518
38165 165343 188324 -16405 1732 1613
38136 165310 188314 -16258 1727 1664
38115 165284 188314 -16156 1694 1700
38096 165272 188313 -16084 1669 1694
38082 165267 188325 -16062 1690 1729
38074 165286 188355 -16145 1724 1851
38067 165301 188382 -16246 1760 1966
38061 165312 188403 -16283 1812 2036
38055 165319 188413 -16221 1807 2217
38056 165331 188425 -16209 1810 2263
38055 165348 188427 -16194 1768 2228
38051 165352 188425 -16187 1690 2149
38049 165354 188421 -16228 1584 2111
38047 165356 188428 -16295 1476 2197
38050 165368 188439 -16345 1392 2329
38054 165383 188455 -16362 1301 2405
38062 165394 188466 -16340 1207 2467
38068 165402 188466 -16052 1245 2587
38072 165406 188451 -15884 1333 2619
38078 165409 188445 -15736 1419 2573
38084 165416 188436 -15682 1478 2504
38095 165427 188422 -15772 1505 2524
38107 165432 188420 -15923 1526 2553
38119 165450 188418 -16059 1565 2478
38132 165468 188417 -16165 1631 2330
38142 165487 188411 -16236 1691 2184
38155 165492 188417 -16313 1703 2115
38170 165508 188422 -16350 1720 2178
38190 165531 188443 -16337 1744 2215
38207 165556 188469 -16287 1793 2216
38209 165559 188488 -16190 1869 2221
38203 165553 188514 -16090 1954 2313
38195 165564 188562 -16030 2089 2523
38187 165578 188616 -15962 2327 2738
38180 165608 188687 -15848 2666 2934
38172 165625 188741 -15698 3035 3092
38162 165650 188785 -15546 3346 3190
38157 165673 188834 -15408 3585 3241
38151 165702 188894 -15355 3746 3224
38148 165749 188954 -15397 3821 3146
38149 165784 189003 -15498 3825 3033
38152 165824 189047 -15650 3756 2942
38159 165847 189088 -15799 3601 2903
38165 165880 189135 -15921 3420 2873
38173 165914 189188 -15983 3272 2788
38178 165942 189233 -15983 3138 2667
38180 165982 189272 -15897 2926 2599
38191 166017 189321 -15913 2833 2626
38199 166054 189362 -15898 2791 2688
38207 166090 189413 -15868 2784 2747
38218 166135 189456 -15869 2731 2782
38231 166186 189511 -15916 2644 2809
38243 166229 189557 -15962 2587 2866
38253 166264 189601 -15983 2579 2935
38267 166315 189657 -15990 2546 2981
38281 166366 189710 -15965 2539 3057
38295 166406 189737 -15987 2509 3130
38308 166440 189768 -16026 2406 3173
38325 166468 189797 -16050 2290 3195
38337 166498 189819 -16023 2210 3226
38344 166503 189822 -15994 2159 3275
38333 166472 189808 -15986 2123 3313
38316 166443 189792 -15962 2096 3335
38293 166424 189778 -15916 2070 3347
38273 166404 189778 -15704 2085 3345
38258 166402 189774 -15612 2144 3374
38241 166387 189779 -15557 2199 3407
38226 166378 189782 -15558 2256 3413
38213 166372 189781 -15618 2297 3393
38203 166382 189798 -15714 2333 3375
38199 166391 189815 -15808 2349 3350
38201 166403 189825 -15927 2305 3293
38200 166409 189837 -16064 2245 3220
38206 166419 189851 -16142 2214 3151
38211 166442 189878 -16145 2222 3128
38211 166456 189890 -16082 2242 3169
38213 166463 189897 -15986 2257 3223
38215 166465 189913 -15908 2265 3247
38220 166478 189930 -15850 2273 3270
38225 166495 189941 -15810 2280 3293
38228 166499 189945 -15838 2260 3276
38235 166515 189961 -15937 2226 3241
38243 166525 189965 -16016 2207 3226
38249 166545 189990 -16012 2223 3233
38257 166566 190006 -15939 2314 3262
38265 166587 190022 -15856 2417 3306
38273 166606 190037 -15825 2471 3365
38285 166633 190055 -15832 2503 3448
38291 166643 190067 -15790 2537 3534
38302 166663 190086 -15713 2607 3616
38298 166665 190075 -15716 2711 3679
38280 166621 190044 -15766 2815 3694
38256 166592 190040 -15777 2846 3677
38231 166582 190040 -15770 2793 3677
38208 166567 190041 -15692 2765 3735
38187 166561 190039 -15627 2816 3793
38165 166549 190048 -15590 2893 3853
38147 166545 190054 -15561 2956 3888
38125 166534 190058 -15519 3028 3932
38113 166542 190079 -15480 3124 3994
38103 166557 190106 -15439 3215 4068
38103 166582 190147 -15383 3297 4163
38106 166608 190183 -15279 3402 4260
38110 166632 190213 -15198 3491 4345
38110 166651 190233 -15200 3533 4439
38109 166670 190248 -15221 3578 4511
38113 166678 190263 -15206 3631 4539
38114 166698 190295 -15107 3692 4554
38119 166721 190309 -15045 3749 4599
38125 166751 190345 -15063 3793 4655
38136 166791 190388 -15078 3841 4698
38151 166829 190432 -15080 3904 4746
38165 166872 190480 -15059 3973 4825
38180 166911 190524 -15003 4038 4911
38199 166961 190573 -14946 4105 4991
38212 166998 190616 -14916 4131 5056
38228 167036 190654 -14879 4124 5090
38244 167076 190692 -14851 4129 5133
38260 167120 190733 -14831 4157 5225
38278 167147 190770 -14780 4204 5352
38286 167176 190796 -14741 4261 5487
38277 167155 190800 -14717 4343 5567
38261 167139 190807 -14689 4399 5572
38238 167133 190819 -14680 4412 5577
38221 167131 190844 -14645 4442 5582
38206 167125 190861 -14601 4449 5573
38186 167123 190870 -14598 4415 5554
38169 167117 190875 -14633 4374 5530
38152 167119 190905 -14697 4323 5533
38142 167132 190927 -14743 4312 5571
38133 167152 190964 -14752 4343 5626
38136 167178 190995 -14718 4374 5665
38144 167214 191039 -14663 4409 5686
38154 167245 191071 -14621 4450 5713
38160 167269 191106 -14526 4563 5729
38165 167296 191133 -14536 4599 5775
38168 167317 191160 -14548 4594 5803
38176 167344 191196 -14540 4582 5813
38187 167373 191222 -14519 4577 5821
38198 167401 191259 -14505 4583 5845
38210 167427 191288 -14501 4594 5876
38221 167457 191322 -14515 4589 5890
38237 167495 191350 -14528 4568 5883
38249 167512 191374 -14502 4578 5834
38262 167553 191418 -14464 4608 5820
38281 167587 191454 -14459 4631 5866
38297 167617 191493 -14449 4649 5882
38315 167654 191528 -14449 4657 5889
38331 167691 191559 -14470 4640 5900
38345 167711 191577 -14487 4607 5916
38348 167720 191590 -14514 4622 5935
38343 167700 191572 -14537 4670 5935
38324 167671 191564 -14532 4699 5924
38302 167648 191553 -14502 4578 5834
38286 167628 191550 -14464 4608 5820
38269 167609 191542 -14459 4631 5866
38248 167588 191529 -14449 4649 5882
38235 167571 191527 -14449 4657 5889
38220 167562 191529 -14470 4640 5900
38211 167565 191538 -14487 4607 5916
38206 167561 191540 -14514 4622 5935
38209 167572 191549 -14537 4670 5935
38211 167576 191552 -14532 4699 5924
38216 167573 191530 -14420 4719 5883
38212 167551 191488 -14416 4694 5869
38204 167513 191426 -14416 4670 5859
38190 167463 191345 -14441 4648 5843
38182 167426 191285 -14495 4628 5824
38181 167404 191237 -14551 4587 5805
38178 167391 191210 -14591 4538 5773
38184 167392 191189 -14598 4480 5733
38197 167395 191176 -14609 4431 5708
38205 167402 191160 -14628 4406 5636
38222 167413 191163 -14647 4375 5545
38241 167429 191173 -14681 4338 5501
38260 167446 191184 -14694 4323 5456
38278 167461 191191 -14695 4307 5383
38295 167464 191202 -14712 4279 5292
38313 167473 191207 -14747 4257 5220
38328 167475 191193 -14780 4242 5169
38339 167481 191193 -14808 4233 5102
38338 167450 191166 -14841 4218 4985
38324 167398 191125 -14904 4179 4849
38306 167354 191094 -14986 4102 4734
38288 167326 191077 -15020 4008 4609
38269 167294 191048 -15036 3931 4492
38253 167247 191018 -15060 3843 4402
38237 167219 190988 -15119 3726 4327
38218 167181 190953 -15241 3549 4242
38204 167157 190932 -15327 3335 4123
38196 167141 190916 -15402 3176 4030
38199 167133 190907 -15507 3054 3934
38204 167138 190913 -15584 2964 3826
38214 167139 190900 -15608 2950 3765
38213 167137 190898 -15610 2967 3711
38219 167132 190889 -15620 2968 3650
38226 167128 190890 -15619 2956 3592
38233 167129 190889 -15607 2960 3512
38243 167131 190895 -15618 2992 3405
38256 167146 190903 -15697 3034 3317
38270 167169 190925 -15791 3082 3233
38284 167201 190946 -15824 3137 3107
38299 167213 190967 -15854 3201 3003
38317 167252 190997 -15962 3346 2842
38337 167284 191029 -16006 3414 2765
38357 167333 191066 -16024 3460 2708
38379 167372 191104 -16017 3489 2671
38403 167422 191146 -15977 3514 2618
38425 167467 191178 -15907 3557 2563
38448 167510 191211 -15857 3604 2555
38475 167562 191264 -15850 3644 2608
38502 167619 191318 -15852 3673 2675
38521 167661 191347 -15829 3659 2730
38542 167687 191361 -15800 3639 2773
38543 167676 191357 -15765 3644 2834
38540 167660 191360 -15723 3660 2887
38528 167654 191364 -15692 3672 2915
38521 167639 191368 -15663 3661 2922
38513 167643 191368 -15644 3635 2910
38513 167644 191383 -15676 3635 2947
38509 167645 191391 -15729 3694 3015
38507 167650 191411 -15738 3735 3027
38501 167651 191414 -15640 3692 2958
38510 167677 191445 -15592 3724 2966
38522 167705 191482 -15590 3776 2982
38534 167730 191503 -15615 3795 2985
38546 167747 191519 -15634 3775 2989
38557 167780 191547 -15622 3732 2999
38568 167799 191563 -15570 3690 3018
38580 167820 191585 -15493 3650 3025
38591 167836 191597 -15474 3603 2989
38608 167866 191629 -15523 3553 2944
38621 167889 191650 -15575 3513 2947
38638 167925 191679 -15618 3517 2962
38657 167951 191710 -15605 3550 2949
38677 167988 191742 -15622 3563 2938
38693 168003 191755 -15696 3563 2963
38713 168023 191768 -15752 3561 2977
38728 168036 191778 -15774 3560 2939
38745 168060 191788 -15744 3562 2891
38760 168070 191788 -15702 3580 2877
38774 168071 191782 -15677 3605 2874
38788 168070 191765 -15671 3590 2844
38801 168073 191745 -15703 3569 2825
38816 168080 191745 -15748 3572 2827
38831 168082 191738 -15758 3583 2805
38846 168089 191741 -15760 3620 2772
38848 168069 191711 -15805 3655 2740
38839 168018 191662 -15858 3681 2715
38827 167979 191631 -15877 3700 2685
38816 167960 191620 -15870 3683 2641
38806 167941 191599 -15856 3634 2583
38797 167919 191581 -15820 3546 2488
38793 167901 191562 -15808 3453 2389
38785 167876 191540 -15828 3398 2337
38773 167846 191505 -15808 3376 2361
38766 167806 191464 -15793 3383 2428
38764 167789 191436 -15809 3399 2434
38773 167781 191422 -15849 3411 2399
38777 167767 191399 -15919 3418 2401
38783 167741 191370 -15961 3398 2389
38795 167743 191361 -15966 3370 2337
38802 167736 191346 -15996 3213 2211
38810 167730 191335 -16042 3096 2082
38818 167731 191323 -16118 2963 1946
38826 167727 191311 -16211 2860 1860
38838 167735 191302 -16284 2782 1829
38853 167748 191318 -16318 2729 1826
38865 167756 191306 -16312 2723 1814
38879 167757 191308 -16290 2781 1812
38890 167748 191275 -16285 2910 1845
38902 167752 191264 -16287 3027 1878
38917 167759 191270 -16261 3066 1887
38934 167774 191273 -16226 3052 1889
38956 167781 191277 -16198 3006 1904
38971 167799 191272 -16155 2955 1960
38991 167797 191266 -16085 2921 2033
39009 167810 191259 -15989 2896 2107
39029 167810 191248 -15884 2831 2121
39046 167812 191231 -15788 2749 2055
39052 167795 191196 -15746 2728 2007
39042 167737 191136 -15743 2804 2019
39027 167664 191059 -15741 2919 2060
39013 167607 190999 -15754 3030 2051
39006 167584 190982 -15794 3108 1965
39001 167575 190980 -15840 3123 1871
38989 167554 190943 -15894 3129 1769
38975 167523 190896 -15939 3145 1690
38962 167496 190867 -15936 3141 1656
38951 167493 190850 -15930 3126 1657
38941 167487 190828 -15944 3106 1680
38938 167485 190807 -15951 3022 1656
38944 167485 190795 -15857 2957 1704
38950 167492 190787 -15864 2996 1779
38962 167511 190805 -16003 2873 1793
38980 167540 190832 -16133 2662 1746
38999 167581 190879 -16129 2563 1723
39018 167620 190933 -16071 2577 1799
39031 167659 190964 -16058 2595 1909
39046 167687 190983 -16050 2574 1993
39065 167717 191008 -15939 2564 2021
39090 167756 191044 -15713 2762 2058
39116 167803 191092 -15753 2842 2124
39136 167834 191114 -15861 2888 2217
39154 167847 191127 -15940 2965 2398
39173 167868 191141 -15957 3024 2581
39189 167874 191141 -15930 3028 2662
39202 167890 191140 -15891 3003 2636
39213 167880 191119 -15870 2983 2541
39219 167868 191105 -15874 2957 2502
39229 167875 191097 -15890 2948 2543
39239 167871 191088 -15872 2979 2521
39248 167863 191069 -15865 3009 2420
39244 167817 191018 -15894 2995 2288
39228 167747 190960 -15927 2960 2190
39207 167689 190903 -15967 2880 2127
39184 167631 190841 -15988 2767 2038
39159 167577 190786 -16010 2677 1926
39137 167517 190720 -16044 2588 1852
39118 167466 190673 -16048 2509 1789
39107 167442 190654 -16075 2467 1722
39104 167445 190660 -16129 2460 1694
39104 167460 190682 -16149 2449 1658
39111 167481 190724 -16169 2397 1615
39123 167518 190759 -16174 2325 1578
39132 167540 190794 -16143 2257 1544
39139 167546 190805 -16106 2197 1529
39139 167548 190801 -16078 2152 1512
39140 167546 190801 -16067 2158 1496
39142 167553 190801 -16053 2225 1496
39143 167551 190797 -16044 2318 1528
39149 167557 190801 -15968 2520 1669
39155 167559 190802 -15913 2610 1682
39162 167572 190809 -15898 2703 1657
39170 167586 190810 -15947 2709 1617
39175 167591 190808 -16051 2642 1594
39180 167583 190799 -16199 2531 1597
39189 167597 190806 -16309 2387 1611
39199 167610 190820 -16309 2277 1619
39213 167636 190834 -16227 2242 1592
39226 167648 190853 -16119 2251 1603
39241 167673 190861 -16133 2196 1557
39249 167691 190867 -16088 2151 1485
39260 167698 190872 -16045 2157 1468
39260 167679 190858 -16037 2206 1505
39248 167646 190831 -16043 2268 1534
39236 167615 190817 -16084 2339 1556
39219 167600 190818 -16127 2393 1561
39205 167587 190812 -16140 2393 1546
39198 167573 190813 -16149 2380 1530
39185 167571 190814 -16205 2347 1512
39175 167556 190814 -16268 2289 1496
39167 167552 190821 -16322 2243 1506
39163 167556 190835 -16351 2196 1519
39162 167577 190861 -16335 2144 1514
39169 167599 190880 -16305 2094 1504
39170 167605 190884 -16272 2045 1488
39170 167600 190881 -16253 1997 1449
39171 167604 190882 -16263 1952 1405
39174 167608 190884 -16277 1928 1383
39173 167604 190870 -16286 1956 1394
39175 167615 190873 -16269 1998 1425
39180 167629 190882 -16227 2017 1433
39185 167644 190897 -16209 2026 1430
39196 167653 190902 -16224 2040 1442
39208 167674 190924 -16235 2052 1459
39218 167695 190939 -16234 2053 1493
39229 167702 190941 -16232 2067 1537
39241 167708 190943 -16212 2078 1562
39251 167731 190959 -16051 2062 1507
39263 167753 190975 -16037 2099 1503
39277 167769 190984 -16026 2159 1493
39290 167787 191003 -16021 2188 1450
39297 167797 191008 -16037 2198 1417
39305 167810 190999 -16082 2233 1425
39301 167785 190982 -16151 2278 1448
39284 167737 190942 -16210 2331 1479
39259 167693 190896 -16256 2364 1512
39236 167649 190871 -16250 2365 1542
39220 167633 190858 -16230 2318 1575
39203 167612 190854 -16256 2220 1602
39188 167600 190847 -16261 2151 1610
39168 167587 190839 -16243 2100 1591
39154 167575 190832 -16208 2051 1551
39142 167566 190829 -16156 2025 1519
39139 167575 190842 -16112 2016 1503
39137 167591 190856 -16080 2015 1503
39138 167594 190858 -16068 2022 1511
39137 167593 190853 -16116 2036 1553
39139 167609 190863 -16168 2028 1533
39137 167608 190861 -16212 2010 1524
39140 167613 190879 -16218 2012 1534
39139 167627 190884 -16196 2034 1524
39142 167630 190896 -16196 2032 1517
39149 167648 190904 -16199 2018 1518
39157 167666 190922 -16185 2009 1509
39164 167690 190926 -16181 2010 1507
39168 167699 190936 -16185 2022 1522
39174 167704 190940 -16183 2017 1517
39185 167712 190950 -16198 2019 1496
39190 167726 190952 -16220 2032 1497
39202 167745 190953 -16236 2038 1520
39206 167745 190953 -16237 2046 1534
39214 167763 190961 -16193 2046 1523
39221 167766 190966 -16139 2031 1505
39231 167778 190962 -16136 2023 1492
39232 167766 190945 -16173 2011 1487
39218 167724 190901 -16205 1991 1477
39191 167668 190862 -16196 1960 1474
39167 167639 190843 -16167 1942 1481
39142 167614 190823 -16155 1954 1488
39124 167593 190816 -16180 1957 1493
39103 167573 190805 -16224 1961 1481
39085 167563 190793 -16259 1962 1464
39068 167542 190788 -16273 1953 1454
39052 167542 190789 -16260 1941 1446
39039 167536 190795 -16232 1938 1425
39039 167557 190817 -16200 1953 1388
39037 167558 190818 -16169 1950 1369
39034 167563 190816 -16169 1945 1374
39030 167559 190814 -16213 1954 1377
39027 167569 190812 -16239 1949 1369
39026 167569 190814 -16254 1953 1385
39027 167572 190831 -16267 1969 1398
39028 167586 190841 -16239 1983 1372
39031 167601 190857 -16218 1990 1356
39037 167609 190862 -16234 1989 1360
39043 167623 190863 -16253 1983 1369
39049 167637 190874 -16197 1948 1346
39054 167648 190885 -16196 1959 1334
39062 167652 190889 -16222 1975 1324
39067 167665 190898 -16258 1962 1339
39075 167678 190895 -16282 1949 1360
39087 167699 190904 -16268 1942 1358
39097 167716 190923 -16222 1928 1350
39107 167737 190931 -16182 1925 1354
39116 167751 190942 -16179 1928 1360
39117 167737 190922 -16182 1922 1362
39098 167683 190885 -16189 1920 1359
39072 167644 190857 -16210 1932 1372
39047 167606 190835 -16204 1932 1374
39018 167583 190821 -16205 1935 1374
38992 167559 190808 -16237 1958 1369
38971 167538 190809 -16264 1975 1332
38948 167522 190800 -16279 1980 1320
38928 167514 190799 -16271 1987 1329
38910 167498 190795 -16238 1985 1339
38897 167501 190803 -16187 1972 1337
38891 167505 190817 -16145 1959 1328
38889 167518 190833 -16151 1961 1329
38884 167526 190835 -16188 1982 1335
38881 167528 190837 -16226 1997 1333
38879 167529 190842 -16257 2001 1326
38879 167534 190840 -16257 2004 1333
38876 167536 190850 -16231 2012 1342
38879 167556 190861 -16208 2013 1335
38884 167563 190865 -16219 2009 1337
38888 167570 190877 -16232 2006 1345
38892 167592 190895 -16194 1985 1342
38905 167612 190913 -16161 1965 1332
38911 167625 190927 -16167 1970 1313
38919 167646 190947 -16187 1976 1309
38930 167664 190962 -16203 1982 1320
38941 167692 190982 -16206 1998 1335
38956 167710 190996 -16215 2017 1351
38968 167735 191015 -16206 2029 1350
38980 167748 191027 -16184 2030 1347
38988 167764 191037 -16180 2032 1354
38984 167731 191007 -16187 2015 1351
38957 167681 190961 -16219 2007 1344
38929 167639 190943 -16217 1983 1318
38902 167612 190930 -16196 1972 1312
38873 167588 190925 -16211 1989 1327
38848 167566 190915 -16250 2002 1312
38823 167546 190905 -16282 1996 1300
38797 167524 190900 -16296 1985 1307
38773 167503 190897 -16276 1985 1305
38753 167494 190895 -16223 1975 1287
38738 167499 190903 -16168 1965 1287
38735 167517 190920 -16154 1973 1301
38735 167523 190936 -16167 1977 1310
38733 167527 190941 -16194 1984 1307
38728 167534 190952 -16245 2002 1292
38728 167551 190971 -16279 2009 1287
38728 167552 190980 -16276 2011 1299
38728 167560 190987 -16245 2013 1309
38730 167575 191007 -16217 2008 1314
38735 167588 191021 -16214 2000 1329
38738 167595 191034 -16208 1983 1313
38746 167615 191044 -16204 1981 1294
38753 167628 191052 -16206 1995 1282
38761 167643 191066 -16209 1998 1263
38765 167648 191069 -16223 2005 1269
38769 167661 191073 -16233 2012 1278
38779 167676 191089 -16246 2013 1284
38787 167689 191092 -16256 2017 1294
38799 167709 191116 -16245 2021 1303
38810 167732 191129 -16221 2029 1303
38821 167745 191136 -16191 2019 1275
38827 167747 191137 -16195 2016 1253
38817 167710 191113 -16223 2020 1254
38792 167667 191077 -16227 2019 1251
38758 167627 191058 -16210 2023 1253
38731 167597 191039 -16182 2015 1248
38701 167574 191034 -16177 2012 1251
38677 167553 191025 -16186 2012 1249
38650 167528 191017 -16208 1999 1244
38628 167513 191012 -16246 1992 1256
38604 167497 191013 -16223 1961 1238
38591 167501 191021 -16209 1959 1226
38577 167506 191045 -16199 1961 1219
38576 167525 191068 -16195 1956 1204
38579 167538 191087 -16207 1949 1207
38578 167550 191097 -16231 1961 1213
38575 167550 191106 -16256 1979 1204
38579 167559 191114 -16265 1989 1204
38579 167568 191121 -16260 1996 1216
38577 167579 191133 -16237 1980 1219
38581 167583 191147 -16210 1957 1211
38588 167597 191161 -16212 1963 1209
38594 167617 191174 -16217 1972 1215
38602 167631 191190 -16211 1975 1215
38610 167652 191203 -16209 1987 1205
38624 167667 191220 -16212 1992 1200
38635 167693 191231 -16219 1989 1199
38646 167704 191243 -16231 1996 1193
38657 167720 191254 -16240 2013 1181
38666 167739 191265 -16236 2019 1175
38677 167748 191272 -16218 2002 1182
38689 167771 191279 -16212 1999 1202
38700 167784 191291 -16216 2008 1215
38710 167800 191301 -16204 2003 1208
38711 167777 191279 -16205 2000 1212
38691 167723 191230 -16211 1999 1220
38664 167677 191196 -16211 2008 1217
38637 167649 191175 -16202 2012 1228
38614 167618 191159 -16189 2007 1250
38589 167596 191144 -16184 2011 1243
38569 167576 191138 -16211 1995 1164
38552 167560 191128 -16261 2003 1179
38534 167540 191122 -16262 1997 1198
38518 167533 191119 -16240 1997 1194
38506 167538 191121 -16212 1991 1199
38506 167546 191142 -16188 1986 1218
38508 167562 191152 -16194 1983 1229
38512 167566 191153 -16212 1991 1231
38513 167573 191158 -16226 1993 1235
38518 167579 191165 -16214 1962 1234
38523 167586 191170 -16217 1966 1226
38526 167595 191180 -16225 1960 1215
38531 167608 191186 -16237 1954 1213
38540 167616 191198 -16252 1959 1207
38548 167633 191213 -16252 1966 1190
38559 167649 191218 -16241 1961 1168
38569 167664 191236 -16231 1949 1158
38581 167686 191251 -16243 1944 1148
38593 167708 191260 -16272 1911 1127
38608 167720 191275 -16282 1917 1140
38621 167737 191279 -16272 1936 1148
38635 167753 191300 -16237 1942 1142
38648 167769 191306 -16214 1954 1133
38663 167780 191309 -16203 1959 1127
38680 167808 191326 -16212 1956 1133
38697 167829 191347 -16254 1953 1133
38710 167856 191358 -16291 1951 1127
38721 167859 191359 -16290 1952 1129
38715 167819 191334 -16253 1926 1130
38695 167776 191298 -16230 1911 1146
38672 167742 191282 -16240 1927 1145
38653 167726 191275 -16262 1937 1096
38637 167705 191266 -16301 1944 1067
38624 167693 191271 -16333 1934 1085
38610 167684 191262 -16329 1917 1099
38597 167674 191256 -16291 1904 1103
38586 167667 191261 -16255 1902 1106
38579 167671 191270 -16235 1903 1096
38579 167683 191281 -16229 1868 1082
38585 167691 191295 -16263 1857 1071
38590 167702 191298 -16294 1878 1081
38594 167701 191302 -16287 1878 1095
38596 167710 191312 -16275 1885 1096
38602 167721 191319 -16270 1900 1095
38607 167725 191320 -16287 1920 1099
38610 167734 191331 -16300 1946 1115
38622 167753 191349 -16291 1955 1131
38633 167767 191357 -16269 1939 1116
38642 167785 191369 -16234 1898 1089
38654 167797 191373 -16225 1874 1082
38666 167807 191378 -16263 1879 1088
38676 167822 191387 -16297 1894 1108
38686 167833 191386 -16306 1917 1124
38698 167846 191395 -16288 1921 1127
38711 167861 191402 -16254 1924 1112
38734 167881 191413 -16241 1935 1105
38747 167906 191442 -16263 1936 1123
38765 167931 191455 -16286 1923 1124
38777 167949 191473 -16262 1856 1085
38788 167947 191463 -16254 1854 1093
38779 167908 191438 -16225 1847 1103
38766 167871 191414 -16232 1851 1128
38747 167851 191408 -16274 1873 1139
38737 167841 191404 -16305 1875 1122
38726 167829 191401 -16317 1873 1111
38714 167822 191402 -16302 1882 1100
38708 167813 191398 -16275 1889 1082
38697 167806 191405 -16247 1877 1061
38691 167804 191407 -16218 1857 1058
38686 167816 191421 -16220 1869 1073
38693 167829 191438 -16246 1895 1078
38702 167853 191452 -16279 1903 1066
38711 167854 191460 -16308 1897 1070
38718 167867 191479 -16312 1883 1086
38725 167881 191483 -16285 1889 1081
38731 167889 191488 -16261 1903 1078
38741 167896 191494 -16276 1912 1098
38749 167912 191504 -16294 1909 1118
38761 167929 191522 -16271 1864 1096
38773 167949 191536 -16234 1846 1057
38789 167964 191549 -16222 1866 1051
38802 167976 191562 -16241 1871 1066
38815 167997 191569 -16274 1889 1092
38835 168014 191596 -16295 1896 1097
38848 168030 191603 -16303 1898 1082
38865 168058 191620 -16300 1906 1067
38884 168085 191642 -16303 1909 1062
38904 168113 191658 -16314 1913 1054
38922 168135 191673 -16301 1893 1037
38934 168147 191681 -16292 1891 1041
38935 168129 191669 -16295 1918 1059
38921 168102 191659 -16269 1927 1064
38906 168075 191646 -16251 1953 1080
38891 168060 191632 -16263 1995 1117
38880 168051 191641 -16285 2011 1126
38869 168044 191632 -16313 1998 1119
38857 168034 191639 -16317 1993 1127
38851 168030 191635 -16273 1989 1132
38842 168022 191634 -16142 1922 1103
38840 168018 191635 -16155 1916 1106
38838 168025 191649 -16187 1905 1107
38843 168041 191664 -16237 1892 1095
38851 168051 191677 -16288 1895 1108
38859 168074 191681 -16316 1903 1170
38866 168074 191696 -16319 1908 1247
38873 168079 191703 -16294 1881 1259
38883 168094 191707 -16275 1851 1241
38892 168096 191698 -16260 1822 1222
38901 168103 191706 -16234 1789 1193
38914 168113 191708 -16203 1790 1181
38923 168120 191714 -16174 1813 1176
38938 168132 191720 -16169 1848 1196
38953 168144 191724 -16188 1887 1234
38970 168160 191734 -16217 1919 1248
38983 168171 191741 -16238 1951 1250
38996 168188 191749 -16226 1971 1236
39015 168204 191754 -16215 1974 1212
39031 168221 191772 -16220 1961 1196
39047 168237 191782 -16202 1940 1168
39063 168260 191791 -16206 1942 1155
39076 168267 191791 -16243 1962 1174
39073 168230 191757 -16246 1968 1197
39063 168188 191729 -16209 1979 1215
39048 168165 191715 -16189 1995 1228
39036 168144 191702 -16199 2002 1212
39027 168132 191692 -16239 1999 1176
39020 168108 191688 -16287 2000 1149
39009 168095 191674 -16287 2008 1116
39000 168085 191677 -16170 1968 1027
38992 168080 191674 -16166 1987 1031
38992 168084 191682 -16172 2010 1044
38995 168096 191692 -16174 2041 1048
39003 168110 191705 -16204 2063 1051
39012 168115 191709 -16242 2062 1065
39021 168121 191715 -16260 2071 1092
39028 168136 191723 -16265 2090 1105
39039 168153 191742 -16271 2109 1093
39048 168157 191747 -16271 2154 1085
39055 168166 191753 -16270 2149 1099
39067 168184 191768 -16256 2135 1100
39077 168195 191774 -16238 2120 1091
39092 168211 191788 -16215 2102 1095
39106 168225 191795 -16215 2082 1108
39120 168243 191804 -16243 2065 1113
39131 168255 191805 -16248 2056 1097
39145 168273 191816 -16246 2050 1080
39161 168289 191824 -16199 1998 1046
39177 168302 191829 -16199 1978 1004
39189 168311 191831 -16225 1945 994
39208 168327 191844 -16256 1918 1005
39222 168344 191841 -16281 1920 1013
39238 168352 191843 -16274 1930 1035
39244 168347 191835 -16272 1949 1064
39240 168307 191798 -16298 1967 1065
39228 168265 191759 -16317 1966 1039
39213 168240 191750 -16319 1951 1015
39204 168225 191740 -16293 1929 1011
39195 168207 191739 -16266 1937 1026
39186 168194 191734 -16239 1953 1037
39178 168184 191723 -16200 1945 1039
39171 168172 191719 -16172 1944 1041
39163 168161 191717 -16180 1947 1046
39162 168166 191723 -16228 1949 1037
39166 168179 191741 -16263 1948 1025
39174 168191 191752 -16272 1951 1034
39180 168196 191750 -16263 1952 1050
39184 168200 191752 -16227 1911 1037
39191 168207 191759 -16256 1908 1036
39199 168212 191766 -16262 1909 1029
39205 168219 191768 -16256 1905 999
39212 168228 191773 -16234 1927 992
39221 168239 191777 -16217 1968 1006
39230 168250 191781 -16227 1973 1016
39239 168264 191777 -16244 1961 1026
39247 168281 191782 -16271 1969 1032
39260 168309 191801 -16269 1982 1020
39273 168329 191806 -16245 1994 994
39286 168355 191806 -16231 2002 961
39304 168380 191820 -16234 1982 931
39323 168417 191841 -16263 1963 906
39342 168444 191871 -16290 1963 879
39367 168483 191899 -16301 1978 890
39387 168513 191921 -16276 1998 904
39405 168528 191941 -16233 2012 895
39417 168528 191937 -16246 2013 881
39419 168504 191922 -16311 1931 804
39415 168489 191922 -16316 1946 817
39408 168477 191923 -16290 1945 814
39405 168471 191929 -16255 1940 812
39403 168468 191940 -16235 1940 807
39397 168474 191960 -16224 1950 809
39392 168482 191985 -16227 1968 801
39391 168492 191999 -16271 1974 789
39385 168502 192025 -16335 1973 782
39390 168523 192037 -16361 1943 785
39396 168542 192069 -16351 1900 791
39407 168565 192079 -16324 1895 760
39414 168579 192090 -16301 1905 754
39421 168586 192096 -16303 1879 778
39426 168600 192107 -16316 1855 783
39431 168603 192104 -16301 1866 773
39436 168611 192109 -16271 1884 765
39444 168620 192115 -16255 1886 778
39455 168634 192127 -16274 1883 785
39463 168645 192128 -16310 1867 780
39476 168653 192133 -16308 1821 784
39488 168673 192132 -16302 1800 781
39503 168690 192141 -16305 1799 754
39516 168704 192156 -16303 1771 721
39530 168718 192157 -16305 1744 694
39544 168737 192161 -16301 1744 697
39563 168755 192185 -16296 1781 734
39578 168773 192195 -16273 1780 762
39591 168780 192186 -16228 1718 729
39600 168779 192181 -16232 1664 690
39602 168748 192137 -16273 1605 658
39591 168702 192089 -16293 1567 618
39578 168662 192055 -16314 1547 590
39560 168622 192028 -16346 1498 574
39548 168600 192011 -16348 1460 549
39538 168582 191999 -16299 1456 530
39525 168560 191993 -16246 1474 530
39513 168542 191988 -16255 1472 529
39503 168526 191972 -16298 1448 520
39498 168523 191979 -16347 1428 495
39496 168527 191979 -16346 1410 466
39502 168537 191997 -16335 1405 445
