Time(s)	RED_denoised_wiener
0.000000	290.317585
0.010000	446.672958
0.020000	473.068534
0.030000	503.527559
0.040000	533.833584
0.050000	554.079596
0.060000	546.623750
0.070000	535.124721
0.080000	524.408464
0.090000	511.862306
0.100000	485.547068
0.110000	467.739986
0.120000	479.060511
0.130000	502.226230
0.140000	503.909150
0.150000	475.492879
0.160000	429.194136
0.170000	381.817850
0.180000	328.465156
0.190000	244.133169
0.200000	82.389469
0.210000	-162.890828
0.220000	-450.580161
0.230000	-646.816525
0.240000	-747.732610
0.250000	-775.334846
0.260000	-790.743850
0.270000	-810.686319
0.280000	-821.292874
0.290000	-803.311558
0.300000	-762.198369
0.310000	-744.003620
0.320000	-733.892013
0.330000	-717.652819
0.340000	-702.934488
0.350000	-734.359062
0.360000	-803.787575
0.370000	-854.888489
0.380000	-860.676835
0.390000	-834.484236
0.400000	-799.548900
0.410000	-770.344846
0.420000	-732.296781
0.430000	-695.228066
0.440000	-657.635809
0.450000	-619.738254
0.460000	-584.604890
0.470000	-551.192679
0.480000	-530.562722
0.490000	-517.223785
0.500000	-505.475422
0.510000	-486.869417
0.520000	-463.372092
0.530000	-438.808811
0.540000	-418.227397
0.550000	-391.662196
0.560000	-369.092657
0.570000	-355.791107
0.580000	-353.904397
0.590000	-346.489257
0.600000	-332.715335
0.610000	-315.820125
0.620000	-289.120506
0.630000	-254.796750
0.640000	-203.782797
0.650000	-155.807065
0.660000	-119.034526
0.670000	-79.711636
0.680000	-40.619383
0.690000	-11.589879
0.700000	22.911203
0.710000	56.851827
0.720000	57.414145
0.730000	-8.327428
0.740000	-107.188591
0.750000	-172.702446
0.760000	-212.615595
0.770000	-234.697886
0.780000	-248.668230
0.790000	-251.946411
0.800000	-232.648765
0.810000	-209.565887
0.820000	-180.190755
0.830000	-149.158179
0.840000	-116.673693
0.850000	-90.724869
0.860000	-86.462576
0.870000	-82.477325
0.880000	-68.568334
0.890000	-48.220034
0.900000	-23.957366
0.910000	-0.253913
0.920000	31.737797
0.930000	66.386809
0.940000	103.161424
0.950000	138.400151
0.960000	168.967805
0.970000	210.513150
0.980000	273.808949
0.990000	375.356795
1.000000	504.289921
1.010000	629.860918
1.020000	720.149504
1.030000	776.504999
1.040000	808.079172
1.050000	829.880559
1.060000	846.027725
1.070000	841.585977
1.080000	832.777431
1.090000	830.993758
1.100000	821.504401
1.110000	775.745932
1.120000	695.363429
1.130000	636.697451
1.140000	618.501701
1.150000	621.928194
1.160000	633.704472
1.170000	647.894954
1.180000	663.637052
1.190000	683.921513
1.200000	699.919720
1.210000	713.025364
1.220000	721.576537
1.230000	723.844896
1.240000	716.946027
1.250000	699.049820
1.260000	689.088349
1.270000	685.581123
1.280000	692.628408
1.290000	702.127950
1.300000	717.582673
1.310000	730.357057
1.320000	742.281252
1.330000	756.973255
1.340000	767.666763
1.350000	780.339846
1.360000	791.407999
1.370000	804.107085
1.380000	815.514155
1.390000	825.931602
1.400000	839.345426
1.410000	848.439983
1.420000	852.910760
1.430000	856.674660
1.440000	857.507153
1.450000	854.627783
1.460000	856.175737
1.470000	860.267612
1.480000	851.855601
1.490000	849.380054
1.500000	860.218909
1.510000	850.426010
1.520000	782.953894
1.530000	683.357281
1.540000	619.518346
1.550000	593.487449
1.560000	589.078916
1.570000	592.002186
1.580000	597.377852
1.590000	604.574258
1.600000	607.707847
1.610000	610.885730
1.620000	609.392039
1.630000	611.277165
1.640000	603.730301
1.650000	582.068753
1.660000	553.478780
1.670000	533.928532
1.680000	533.588524
1.690000	534.755389
1.700000	534.448786
1.710000	533.636276
1.720000	537.028952
1.730000	548.223491
1.740000	558.952351
1.750000	569.543227
1.760000	583.259149
1.770000	604.908964
1.780000	628.243748
1.790000	648.988040
1.800000	660.262188
1.810000	668.811938
1.820000	679.649667
1.830000	688.985188
1.840000	697.088218
1.850000	701.523987
1.860000	707.921612
1.870000	711.406343
1.880000	712.475210
1.890000	718.679896
1.900000	719.684531
1.910000	710.673160
1.920000	713.671816
1.930000	712.933269
1.940000	675.649183
1.950000	591.291191
1.960000	509.494755
1.970000	467.317195
1.980000	447.894521
1.990000	438.389549
2.000000	439.366043
2.010000	452.833813
2.020000	475.189742
2.030000	487.603498
2.040000	488.427525
2.050000	490.446024
2.060000	498.342572
2.070000	501.946903
2.080000	483.936761
2.090000	461.908776
2.100000	450.220102
2.110000	449.196453
2.120000	450.176058
2.130000	453.539219
2.140000	463.840017
2.150000	485.912241
2.160000	506.483346
2.170000	518.999092
2.180000	532.196991
2.190000	553.109179
2.200000	583.924855
2.210000	612.206209
2.220000	633.701914
2.230000	653.689042
2.240000	675.165266
2.250000	701.866037
2.260000	729.631979
2.270000	755.738259
2.280000	782.469975
2.290000	804.947890
2.300000	825.016419
2.310000	849.193225
2.320000	879.573134
2.330000	893.726499
2.340000	912.269581
2.350000	944.249035
2.360000	972.581494
2.370000	946.699694
2.380000	875.743671
2.390000	813.291525
2.400000	779.499343
2.410000	762.814388
2.420000	758.290779
2.430000	762.358137
2.440000	751.711273
2.450000	711.273896
2.460000	620.465532
2.470000	476.587121
2.480000	246.065466
2.490000	-109.952266
2.500000	-587.890993
2.510000	-1018.364786
2.520000	-1341.797093
2.530000	-1558.656461
2.540000	-1697.285293
2.550000	-1784.284399
2.560000	-1857.909762
2.570000	-1936.848860
2.580000	-2026.822711
2.590000	-2104.992784
2.600000	-2163.100745
2.610000	-2211.513359
2.620000	-2259.368005
2.630000	-2300.652019
2.640000	-2319.267677
2.650000	-2331.874496
2.660000	-2341.791607
2.670000	-2348.414132
2.680000	-2341.283434
2.690000	-2316.968373
2.700000	-2272.104408
2.710000	-2208.198606
2.720000	-2140.960636
2.730000	-2076.398722
2.740000	-2014.463693
2.750000	-1936.879167
2.760000	-1869.418373
2.770000	-1825.991233
2.780000	-1779.926016
2.790000	-1721.146845
2.800000	-1675.530568
2.810000	-1684.343073
2.820000	-1720.947143
2.830000	-1734.471430
2.840000	-1715.810609
2.850000	-1674.650385
2.860000	-1629.697973
2.870000	-1590.804257
2.880000	-1558.225004
2.890000	-1527.945856
2.900000	-1505.778570
2.910000	-1488.729566
2.920000	-1457.954970
2.930000	-1421.252883
2.940000	-1391.144160
2.950000	-1375.764016
2.960000	-1363.278402
2.970000	-1344.950249
2.980000	-1319.098636
2.990000	-1281.462683
3.000000	-1243.294767
3.010000	-1210.293146
3.020000	-1178.798466
3.030000	-1148.131708
3.040000	-1120.977955
3.050000	-1097.295961
3.060000	-1067.130014
3.070000	-1036.169602
3.080000	-1009.948004
3.090000	-990.366228
3.100000	-973.415986
3.110000	-951.218368
3.120000	-926.913629
3.130000	-899.391473
3.140000	-872.089639
3.150000	-844.552993
3.160000	-817.935736
3.170000	-789.034767
3.180000	-760.128995
3.190000	-729.169970
3.200000	-701.006382
3.210000	-693.004608
3.220000	-683.441324
3.230000	-664.876584
3.240000	-653.606087
3.250000	-678.447431
3.260000	-745.038176
3.270000	-799.184781
3.280000	-829.919657
3.290000	-839.956878
3.300000	-835.140065
3.310000	-821.392680
3.320000	-800.345318
3.330000	-779.841996
3.340000	-769.551840
3.350000	-757.561425
3.360000	-740.778444
3.370000	-720.287975
3.380000	-707.027544
3.390000	-712.678453
3.400000	-722.532494
3.410000	-730.420488
3.420000	-724.015070
3.430000	-713.217883
3.440000	-706.153498
3.450000	-709.003763
3.460000	-711.573853
3.470000	-713.810821
3.480000	-719.330683
3.490000	-728.267784
3.500000	-735.732918
3.510000	-737.050935
3.520000	-741.498798
3.530000	-742.783031
3.540000	-741.274408
3.550000	-735.166953
3.560000	-724.378931
3.570000	-711.883143
3.580000	-699.804703
3.590000	-690.590153
3.600000	-676.859777
3.610000	-654.963381
3.620000	-624.913901
3.630000	-597.354470
3.640000	-568.917879
3.650000	-548.099475
3.660000	-539.565674
3.670000	-519.754276
3.680000	-494.949094
3.690000	-502.146736
3.700000	-548.570359
3.710000	-609.437223
3.720000	-633.771929
3.730000	-635.892261
3.740000	-622.270138
3.750000	-591.643879
3.760000	-556.456772
3.770000	-519.018072
3.780000	-491.654283
3.790000	-462.642526
3.800000	-431.197763
3.810000	-398.922411
3.820000	-383.099461
3.830000	-380.126354
3.840000	-388.320792
3.850000	-392.607472
3.860000	-393.565344
3.870000	-386.052699
3.880000	-366.125935
3.890000	-339.837722
3.900000	-304.975754
3.910000	-274.642991
3.920000	-250.438410
3.930000	-232.421381
3.940000	-207.174314
3.950000	-173.543298
3.960000	-137.238493
3.970000	-102.302967
3.980000	-69.602518
3.990000	-35.692279
4.000000	-0.282934
4.010000	32.599259
4.020000	55.052469
4.030000	72.287035
4.040000	92.423180
4.050000	119.658444
4.060000	156.149788
4.070000	187.680141
4.080000	202.913325
4.090000	208.112950
4.100000	235.778783
4.110000	277.797829
4.120000	274.867682
4.130000	219.990821
4.140000	151.445804
4.150000	109.554711
4.160000	93.610269
4.170000	95.464274
4.180000	122.851547
4.190000	154.661546
4.200000	182.495082
4.210000	196.890320
4.220000	212.573213
4.230000	235.797729
4.240000	257.645315
4.250000	264.728913
4.260000	253.113163
4.270000	246.773610
4.280000	246.888984
4.290000	254.188057
4.300000	260.678904
4.310000	275.354267
4.320000	292.467180
4.330000	309.903020
4.340000	323.623128
4.350000	336.176545
4.360000	346.476155
4.370000	351.151248
4.380000	351.048600
4.390000	354.187198
4.400000	366.991925
4.410000	379.553922
4.420000	389.331495
4.430000	396.638204
4.440000	410.404818
4.450000	428.736537
4.460000	448.853192
4.470000	471.890136
4.480000	490.991153
4.490000	510.787180
4.500000	528.487646
4.510000	532.706547
4.520000	541.110211
4.530000	561.980094
4.540000	567.346842
4.550000	520.276319
4.560000	434.771008
4.570000	376.094636
4.580000	359.439275
4.590000	363.862324
4.600000	378.851797
4.610000	397.689692
4.620000	418.660970
4.630000	438.228614
4.640000	448.508408
4.650000	456.191417
4.660000	472.084640
4.670000	485.145335
4.680000	483.710597
4.690000	460.162088
4.700000	439.143854
4.710000	429.855404
4.720000	429.262784
4.730000	434.602356
4.740000	441.430276
4.750000	453.090824
4.760000	461.620448
4.770000	470.665193
4.780000	481.190881
4.790000	494.628733
4.800000	514.154264
4.810000	532.619008
4.820000	557.880882
4.830000	587.636986
4.840000	615.986818
4.850000	630.359427
4.860000	641.212369
4.870000	660.810106
4.880000	698.820971
4.890000	736.907618
4.900000	741.779153
4.910000	737.887937
4.920000	756.814682
4.930000	797.503269
4.940000	795.066426
4.950000	767.404393
4.960000	757.111274
4.970000	770.264032
4.980000	737.006574
4.990000	642.333519
5.000000	557.531596
5.010000	508.003211
5.020000	487.028130
5.030000	474.696590
5.040000	463.619134
5.050000	460.154645
5.060000	473.277736
5.070000	485.600867
5.080000	492.699338
5.090000	495.121635
5.100000	509.893903
5.110000	508.244470
5.120000	466.497129
5.130000	410.230730
5.140000	381.206416
5.150000	381.503084
5.160000	394.927403
5.170000	402.830713
5.180000	401.418000
5.190000	405.605339
5.200000	412.254741
5.210000	414.766310
5.220000	406.153058
5.230000	402.386427
5.240000	404.406292
5.250000	403.376007
5.260000	400.750884
5.270000	408.457543
5.280000	424.787995
5.290000	437.908002
5.300000	454.606423
5.310000	479.415861
5.320000	508.465460
5.330000	529.297249
5.340000	542.423992
5.350000	567.963103
5.360000	596.030825
5.370000	605.662635
5.380000	599.433163
5.390000	597.474648
5.400000	602.518699
5.410000	571.893009
5.420000	490.410840
5.430000	387.164154
5.440000	312.091459
5.450000	297.785596
5.460000	330.375780
5.470000	351.683372
5.480000	337.819017
5.490000	329.490014
5.500000	359.304829
5.510000	395.852342
5.520000	401.839373
5.530000	403.119695
5.540000	422.430308
5.550000	422.286622
5.560000	385.141003
5.570000	358.697793
5.580000	376.210384
5.590000	406.329924
5.600000	403.305284
5.610000	387.207928
5.620000	393.841825
5.630000	430.405805
5.640000	467.676774
5.650000	488.033995
5.660000	495.970906
5.670000	506.422639
5.680000	528.982136
5.690000	556.162799
5.700000	573.372263
5.710000	586.357221
5.720000	601.161585
5.730000	628.295599
5.740000	661.971139
5.750000	696.632916
5.760000	726.177453
5.770000	750.718871
5.780000	781.813378
5.790000	833.877486
5.800000	894.105955
5.810000	923.027556
5.820000	941.629219
5.830000	958.207336
5.840000	966.176099
5.850000	926.696277
5.860000	849.587621
5.870000	790.040736
5.880000	768.634887
5.890000	790.072294
5.900000	837.353146
5.910000	884.142031
5.920000	932.546563
5.930000	970.569945
5.940000	1011.205405
5.950000	1053.690063
5.960000	1093.249743
5.970000	1125.541066
5.980000	1135.661295
5.990000	1135.862710
6.000000	1136.463426
6.010000	1146.242511
6.020000	1159.955912
6.030000	1184.049770
6.040000	1212.810155
6.050000	1259.637816
6.060000	1312.656385
6.070000	1362.961888
6.080000	1404.237357
6.090000	1441.043239
6.100000	1484.229432
6.110000	1534.824528
6.120000	1592.611406
6.130000	1644.296286
6.140000	1688.084404
6.150000	1729.514004
6.160000	1776.957373
6.170000	1822.077709
6.180000	1850.873010
6.190000	1878.780166
6.200000	1916.165607
6.210000	1953.485139
6.220000	1984.858438
6.230000	2030.317741
6.240000	2080.526676
6.250000	2085.427501
6.260000	2029.010349
6.270000	1960.772008
6.280000	1929.546591
6.290000	1929.687481
6.300000	1944.773376
6.310000	1976.037772
6.320000	2019.037073
6.330000	2066.097862
6.340000	2106.677714
6.350000	2141.573393
6.360000	2182.398489
6.370000	2210.682836
6.380000	2226.887234
6.390000	2215.797956
6.400000	2209.888423
6.410000	2210.541881
6.420000	2222.278470
6.430000	2240.640755
6.440000	2260.712885
6.450000	2284.135937
6.460000	2302.831560
6.470000	2320.373387
6.480000	2331.301651
6.490000	2353.049223
6.500000	2373.398415
6.510000	2394.137556
6.520000	2408.845899
6.530000	2429.315067
6.540000	2457.972695
6.550000	2480.818347
6.560000	2499.846824
6.570000	2514.015851
6.580000	2529.442329
6.590000	2555.590057
6.600000	2594.383752
6.610000	2626.471550
6.620000	2640.712537
6.630000	2665.157899
6.640000	2686.958583
6.650000	2667.802944
6.660000	2582.601928
6.670000	2482.016025
6.680000	2428.971265
6.690000	2414.723532
6.700000	2427.689698
6.710000	2444.420949
6.720000	2462.821535
6.730000	2476.460121
6.740000	2472.622005
6.750000	2456.566763
6.760000	2431.433615
6.770000	2418.405441
6.780000	2402.493854
6.790000	2380.957882
6.800000	2355.913024
6.810000	2347.571073
6.820000	2355.953225
6.830000	2359.801060
6.840000	2354.379459
6.850000	2335.371574
6.860000	2309.507459
6.870000	2264.560143
6.880000	2195.992051
6.890000	2100.753608
6.900000	1987.174026
6.910000	1851.244626
6.920000	1699.381368
6.930000	1510.655891
6.940000	1297.006271
6.950000	1061.702567
6.960000	808.634352
6.970000	533.455104
6.980000	258.047193
6.990000	36.219635
7.000000	-93.845209
7.010000	-105.701291
7.020000	-36.789952
7.030000	63.994085
7.040000	167.298634
7.050000	232.971344
7.060000	223.370890
7.070000	130.672497
7.080000	28.641130
7.090000	-31.382157
7.100000	-51.598015
7.110000	-44.495509
7.120000	-22.201383
7.130000	5.698122
7.140000	18.797429
7.150000	16.242572
7.160000	12.467238
7.170000	28.766765
7.180000	57.349945
7.190000	80.555192
7.200000	79.519251
7.210000	81.090958
7.220000	97.936614
7.230000	139.904550
7.240000	196.916699
7.250000	258.332602
7.260000	320.864871
7.270000	374.354891
7.280000	421.459902
7.290000	458.302772
7.300000	493.030041
7.310000	532.521133
7.320000	578.859508
7.330000	625.988174
7.340000	670.298603
7.350000	711.733067
7.360000	746.661180
7.370000	776.089177
7.380000	800.953897
7.390000	825.048644
7.400000	849.499977
7.410000	874.264084
7.420000	894.289990
7.430000	919.777592
7.440000	953.648011
7.450000	985.173426
7.460000	1006.933406
7.470000	1040.231579
7.480000	1068.028712
7.490000	1045.460321
7.500000	958.788308
7.510000	857.439794
7.520000	791.124359
7.530000	735.790790
7.540000	679.065022
7.550000	590.329306
7.560000	426.540938
7.570000	187.444281
7.580000	-105.694546
7.590000	-391.173119
7.600000	-628.194528
7.610000	-850.443161
7.620000	-1100.777045
7.630000	-1449.887877
7.640000	-1806.376996
7.650000	-2146.236503
7.660000	-2500.512565
7.670000	-2779.422291
7.680000	-3014.457298
7.690000	-3238.346365
7.700000	-3478.319603
7.710000	-3748.538058
7.720000	-4015.726621
7.730000	-4243.219991
7.740000	-4449.229701
7.750000	-4641.544070
7.760000	-4815.033232
7.770000	-4934.581672
7.780000	-5035.494040
7.790000	-5159.435225
7.800000	-5269.873146
7.810000	-5351.147066
7.820000	-5385.715909
7.830000	-5411.146912
7.840000	-5440.295238
7.850000	-5480.269842
7.860000	-5523.641227
7.870000	-5517.742808
7.880000	-5490.015845
7.890000	-5476.047711
7.900000	-5488.471236
7.910000	-5465.960854
7.920000	-5433.977218
7.930000	-5450.442870
7.940000	-5523.159371
7.950000	-5583.863886
7.960000	-5594.573324
7.970000	-5558.547496
7.980000	-5476.463481
7.990000	-5353.728007
8.000000	-5202.857657
8.010000	-5047.423919
8.020000	-4922.101210
8.030000	-4847.233164
8.040000	-4802.385907
8.050000	-4773.212687
8.060000	-4742.483297
8.070000	-4718.082159
8.080000	-4678.320758
8.090000	-4613.138494
8.100000	-4534.707813
8.110000	-4449.334149
8.120000	-4353.222770
8.130000	-4246.696941
8.140000	-4131.230200
8.150000	-4008.884121
8.160000	-3862.340611
8.170000	-3663.531391
8.180000	-3408.760781
8.190000	-3103.878896
8.200000	-2777.116452
8.210000	-2444.631303
8.220000	-2107.598249
8.230000	-1802.398392
8.240000	-1534.994415
8.250000	-1304.748609
8.260000	-1123.717009
8.270000	-989.463217
8.280000	-891.860665
8.290000	-799.274427
8.300000	-722.275795
8.310000	-679.262553
8.320000	-652.747648
8.330000	-629.417284
8.340000	-629.132282
8.350000	-693.118879
8.360000	-797.492781
8.370000	-874.186995
8.380000	-902.471003
8.390000	-896.170899
8.400000	-867.933357
8.410000	-825.294628
8.420000	-780.896746
8.430000	-754.591650
8.440000	-750.971518
8.450000	-753.316567
8.460000	-738.514963
8.470000	-716.952842
8.480000	-712.915724
8.490000	-739.376972
8.500000	-766.350529
8.510000	-778.326003
8.520000	-774.644370
8.530000	-765.456067
8.540000	-752.733520
8.550000	-733.724010
8.560000	-715.667389
8.570000	-697.118453
8.580000	-680.428448
8.590000	-662.313918
8.600000	-645.689425
8.610000	-629.982429
8.620000	-611.423972
8.630000	-595.157487
8.640000	-581.961648
8.650000	-571.143331
8.660000	-565.322962
8.670000	-558.586643
8.680000	-549.844802
8.690000	-532.829373
8.700000	-519.897800
8.710000	-513.858902
8.720000	-497.709094
8.730000	-480.104638
8.740000	-468.997197
8.750000	-451.103806
8.760000	-444.181985
8.770000	-480.955180
8.780000	-576.796556
8.790000	-685.781968
8.800000	-749.186068
8.810000	-773.597904
8.820000	-768.058393
8.830000	-748.241122
8.840000	-727.065197
8.850000	-712.679590
8.860000	-712.544765
8.870000	-722.894844
8.880000	-729.135170
8.890000	-718.923152
8.900000	-708.945128
8.910000	-716.425709
8.920000	-740.511143
8.930000	-756.000042
8.940000	-758.606188
8.950000	-752.736098
8.960000	-742.170284
8.970000	-726.263689
8.980000	-709.886134
8.990000	-695.253508
9.000000	-680.058650
9.010000	-668.730485
9.020000	-655.003347
9.030000	-638.023441
9.040000	-616.079693
9.050000	-600.819977
9.060000	-592.257185
9.070000	-587.073344
9.080000	-577.889042
9.090000	-570.828855
9.100000	-560.620852
9.110000	-549.067916
9.120000	-535.141861
9.130000	-522.783789
9.140000	-504.427281
9.150000	-476.305629
9.160000	-450.885663
9.170000	-430.260194
9.180000	-418.476805
9.190000	-389.258364
9.200000	-366.331680
9.210000	-386.083865
9.220000	-455.564699
9.230000	-544.932922
9.240000	-599.854817
9.250000	-618.383052
9.260000	-606.957981
9.270000	-578.975107
9.280000	-551.526930
9.290000	-528.653083
9.300000	-514.550886
9.310000	-502.421563
9.320000	-480.013368
9.330000	-444.000855
9.340000	-414.659756
9.350000	-403.675090
9.360000	-405.376465
9.370000	-391.738696
9.380000	-361.617219
9.390000	-326.286068
9.400000	-295.970859
9.410000	-271.923998
9.420000	-247.417218
9.430000	-226.037667
9.440000	-205.962225
9.450000	-188.272251
9.460000	-167.267639
9.470000	-142.967673
9.480000	-118.024841
9.490000	-93.101611
9.500000	-74.240227
9.510000	-52.971858
9.520000	-29.254347
9.530000	3.400586
9.540000	38.922605
9.550000	79.354789
9.560000	118.971604
9.570000	152.871884
9.580000	181.931006
9.590000	215.975344
9.600000	264.117468
9.610000	303.219820
9.620000	331.258755
9.630000	367.085702
9.640000	402.557203
9.650000	383.390062
9.660000	299.542933
9.670000	200.758287
9.680000	146.455466
9.690000	130.848201
9.700000	147.266912
9.710000	187.168197
9.720000	240.977975
9.730000	295.715170
9.740000	332.242350
9.750000	353.560387
9.760000	374.443716
9.770000	403.961801
9.780000	429.825498
9.790000	438.599689
9.800000	434.830161
9.810000	431.501454
9.820000	431.381328
9.830000	442.659876
9.840000	467.825797
9.850000	492.013454
9.860000	506.530566
9.870000	511.301228
9.880000	521.521663
9.890000	537.793816
9.900000	548.056723
9.910000	547.552378
9.920000	548.217390
9.930000	558.882667
9.940000	568.905325
9.950000	572.139890
9.960000	576.881328
9.970000	591.980867
9.980000	609.393636
9.990000	616.726426
10.000000	621.544429
10.010000	628.715384
10.020000	642.611804
10.030000	664.280282
10.040000	668.191724
10.050000	672.551292
10.060000	688.003992
10.070000	696.664169
10.080000	652.994318
10.090000	557.825514
10.100000	473.408220
10.110000	436.171254
10.120000	433.610135
10.130000	455.111691
10.140000	493.411172
10.150000	527.939267
10.160000	554.514651
10.170000	567.019368
10.180000	584.946728
10.190000	610.310122
10.200000	633.940492
10.210000	636.833329
10.220000	619.247026
10.230000	595.655836
10.240000	579.143719
10.250000	570.037669
10.260000	566.629567
10.270000	570.022343
10.280000	577.032470
10.290000	586.608739
10.300000	597.698267
10.310000	606.784965
10.320000	612.968202
10.330000	618.901597
10.340000	624.829182
10.350000	635.294716
10.360000	649.273221
10.370000	661.942768
10.380000	669.652843
10.390000	677.547673
10.400000	684.615249
10.410000	697.774377
10.420000	704.123554
10.430000	706.645359
10.440000	701.547547
10.450000	698.822138
10.460000	715.926951
10.470000	735.839418
10.480000	737.898527
10.490000	737.892596
10.500000	734.425642
10.510000	693.459137
10.520000	600.275786
10.530000	484.083219
10.540000	418.518457
10.550000	391.074797
10.560000	386.357551
10.570000	393.683929
10.580000	402.802699
10.590000	423.954463
10.600000	437.437645
10.610000	440.543955
10.620000	439.703552
10.630000	448.759912
10.640000	456.841254
10.650000	444.559058
10.660000	411.304014
10.670000	385.043736
10.680000	372.315187
10.690000	373.786461
10.700000	378.569007
10.710000	383.491658
10.720000	386.768125
10.730000	390.816781
10.740000	394.900501
10.750000	392.401220
10.760000	392.351541
10.770000	395.572324
10.780000	406.755970
10.790000	414.642570
10.800000	419.802715
10.810000	423.658507
10.820000	429.464706
10.830000	435.270552
10.840000	436.396462
10.850000	440.861587
10.860000	447.580842
10.870000	453.057140
10.880000	452.038389
10.890000	450.561863
10.900000	459.454092
10.910000	460.598931
10.920000	468.237337
10.930000	481.540108
10.940000	464.536392
10.950000	385.772847
10.960000	256.231307
10.970000	155.139155
10.980000	105.718678
10.990000	89.002680
11.000000	87.155731
11.010000	91.170506
11.020000	100.563061
11.030000	109.270019
11.040000	108.576932
11.050000	108.033663
11.060000	114.530944
11.070000	119.368739
11.080000	115.771303
11.090000	90.300053
11.100000	65.057289
11.110000	46.469797
11.120000	35.275941
11.130000	34.594508
11.140000	37.081091
11.150000	49.038744
11.160000	60.456946
11.170000	72.128300
11.180000	78.430970
11.190000	82.524567
11.200000	94.038827
11.210000	105.155777
11.220000	118.291125
11.230000	126.711661
11.240000	140.205403
11.250000	153.509611
11.260000	163.408841
11.270000	167.927971
11.280000	173.586076
11.290000	181.281489
11.300000	192.047743
11.310000	198.562914
11.320000	211.175592
11.330000	233.109210
11.340000	241.182148
11.350000	253.052363
11.360000	274.774981
11.370000	299.244299
11.380000	259.154184
11.390000	155.241620
11.400000	48.651249
11.410000	-6.160700
11.420000	-13.728198
11.430000	1.668366
11.440000	29.883577
11.450000	57.775045
11.460000	81.139195
11.470000	85.472839
11.480000	88.770250
11.490000	97.090813
11.500000	107.997707
11.510000	101.614066
11.520000	74.557090
11.530000	43.479080
11.540000	26.072838
11.550000	24.254377
11.560000	27.173913
11.570000	25.654766
11.580000	19.587163
11.590000	22.379663
11.600000	35.922929
11.610000	56.376411
11.620000	77.874165
11.630000	91.987257
11.640000	106.825403
11.650000	122.865155
11.660000	146.079860
11.670000	160.638057
11.680000	172.683001
11.690000	181.012549
11.700000	188.920357
11.710000	191.987827
11.720000	187.785243
11.730000	183.277740
11.740000	179.255430
11.750000	193.235955
11.760000	203.239589
11.770000	207.539008
11.780000	221.894418
11.790000	236.728534
11.800000	212.088638
11.810000	126.926224
11.820000	22.744324
11.830000	-45.883773
11.840000	-78.792926
11.850000	-83.090491
11.860000	-72.725629
11.870000	-58.331345
11.880000	-43.348402
11.890000	-36.964387
11.900000	-32.637624
11.910000	-22.637058
11.920000	-7.325218
11.930000	0.279455
11.940000	-13.724538
11.950000	-36.439639
11.960000	-56.169616
11.970000	-60.532553
11.980000	-54.036700
11.990000	-41.668976
12.000000	-29.281598
12.010000	-22.847747
12.020000	-16.870251
12.030000	-13.088229
12.040000	-7.819094
12.050000	-3.386866
12.060000	2.202356
12.070000	7.931417
12.080000	14.186272
12.090000	18.868245
12.100000	26.146195
12.110000	34.749014
12.120000	43.064153
12.130000	49.589148
12.140000	59.626620
12.150000	72.705999
12.160000	80.794311
12.170000	85.809598
12.180000	98.946989
12.190000	116.832776
12.200000	132.382487
12.210000	155.863378
12.220000	165.021850
12.230000	133.843587
12.240000	46.983870
12.250000	-42.026931
12.260000	-91.125419
12.270000	-102.726010
12.280000	-88.633484
12.290000	-70.157429
12.300000	-52.804296
12.310000	-42.295507
12.320000	-41.673734
12.330000	-40.101362
12.340000	-26.581885
12.350000	-1.310351
12.360000	7.059489
12.370000	-7.161827
12.380000	-28.279211
12.390000	-33.699747
12.400000	-27.396178
12.410000	-18.624061
12.420000	-3.515567
12.430000	6.370875
12.440000	18.378665
12.450000	23.950599
12.460000	30.612282
12.470000	40.143171
12.480000	54.475034
12.490000	68.277934
12.500000	82.650998
12.510000	92.691853
12.520000	102.146439
12.530000	107.381311
12.540000	113.294536
12.550000	119.351822
12.560000	123.400913
12.570000	129.301650
12.580000	134.786678
12.590000	139.553171
12.600000	143.803541
12.610000	161.806449
12.620000	179.037856
12.630000	189.045171
12.640000	206.292973
12.650000	211.153682
12.660000	171.142943
12.670000	70.271067
12.680000	-41.529051
12.690000	-105.289687
12.700000	-129.422326
12.710000	-122.888101
12.720000	-106.049661
12.730000	-85.150409
12.740000	-70.056216
12.750000	-68.442567
12.760000	-61.693017
12.770000	-40.128322
12.780000	-8.070584
12.790000	4.747225
12.800000	-11.428775
12.810000	-34.658935
12.820000	-51.178099
12.830000	-50.442550
12.840000	-42.352105
12.850000	-28.906257
12.860000	-19.581696
12.870000	-13.376156
12.880000	-7.173713
12.890000	0.782056
12.900000	11.865140
12.910000	29.578110
12.920000	51.854102
12.930000	69.319578
12.940000	82.502483
12.950000	94.366702
12.960000	113.799506
12.970000	133.334691
12.980000	150.743436
12.990000	164.269908
13.000000	180.342513
13.010000	200.491075
13.020000	215.545008
13.030000	229.715206
13.040000	242.032889
13.050000	252.575223
13.060000	272.517662
13.070000	306.383442
13.080000	324.207581
13.090000	283.122821
13.100000	191.003520
13.110000	97.610622
13.120000	47.418372
13.130000	36.599247
13.140000	53.445119
13.150000	79.202112
13.160000	105.801526
13.170000	126.776406
13.180000	129.441268
13.190000	127.055760
13.200000	133.048657
13.210000	143.922524
13.220000	137.572219
13.230000	112.145575
13.240000	90.130006
13.250000	77.290116
13.260000	69.962698
13.270000	67.075952
13.280000	77.122547
13.290000	98.802490
13.300000	121.223693
13.310000	133.830972
13.320000	135.986472
13.330000	137.188394
13.340000	143.039693
13.350000	149.487143
13.360000	155.067917
13.370000	162.431780
13.380000	170.721136
13.390000	177.339639
13.400000	180.678434
13.410000	186.903587
13.420000	195.251466
13.430000	199.754708
13.440000	196.799125
13.450000	195.943536
13.460000	201.300044
13.470000	197.045858
13.480000	184.817188
13.490000	188.510951
13.500000	203.223550
13.510000	184.836681
13.520000	106.980357
13.530000	14.660167
13.540000	-48.297673
13.550000	-75.651155
13.560000	-76.649813
13.570000	-61.998015
13.580000	-43.035222
13.590000	-24.357861
13.600000	-18.473847
13.610000	-17.025198
13.620000	-13.281724
13.630000	-5.738312
13.640000	-8.497207
13.650000	-35.482324
13.660000	-67.319268
13.670000	-91.275926
13.680000	-103.196209
13.690000	-111.802873
13.700000	-115.743428
13.710000	-116.368505
13.720000	-118.330956
13.730000	-120.282202
13.740000	-127.969164
13.750000	-131.851746
13.760000	-131.329732
13.770000	-124.448683
13.780000	-113.065188
13.790000	-104.090563
13.800000	-97.479232
13.810000	-100.450062
13.820000	-99.534092
13.830000	-89.195622
13.840000	-68.298611
13.850000	-53.019608
13.860000	-49.733719
13.870000	-56.518281
13.880000	-61.171370
13.890000	-52.717732
13.900000	-46.044096
13.910000	-52.939349
13.920000	-53.861408
13.930000	-52.588956
13.940000	-83.125638
13.950000	-172.249250
13.960000	-285.251488
13.970000	-365.546582
13.980000	-420.583637
13.990000	-446.175670
14.000000	-451.984162
14.010000	-443.824491
14.020000	-439.113466
14.030000	-442.134103
14.040000	-446.911409
14.050000	-436.109269
14.060000	-403.770637
14.070000	-365.841230
14.080000	-348.354145
14.090000	-350.863641
14.100000	-352.912464
14.110000	-343.608692
14.120000	-325.203176
14.130000	-301.387254
14.140000	-278.530723
14.150000	-263.195743
14.160000	-250.188632
14.170000	-243.057477
14.180000	-229.833071
14.190000	-209.311175
14.200000	-181.844096
14.210000	-158.289281
14.220000	-137.517664
14.230000	-114.284790
14.240000	-89.570274
14.250000	-73.667735
14.260000	-56.929874
14.270000	-41.110325
14.280000	-18.959652
14.290000	17.420725
14.300000	50.913817
14.310000	66.262264
14.320000	66.142018
14.330000	60.763404
14.340000	43.630001
14.350000	28.292032
14.360000	6.697843
14.370000	-40.237025
14.380000	-152.318518
14.390000	-307.289483
14.400000	-450.272385
14.410000	-569.153066
14.420000	-694.704286
14.430000	-873.754222
14.440000	-1061.243849
14.450000	-1185.642600
14.460000	-1194.863298
14.470000	-1053.603441
14.480000	-790.216171
14.490000	-350.626109
14.500000	-8.781078
14.510000	215.644847
14.520000	385.304577
14.530000	508.288930
14.540000	589.816884
14.550000	625.213938
14.560000	630.694804
14.570000	566.961520
14.580000	437.331614
14.590000	297.829170
14.600000	218.649447
14.610000	193.796446
14.620000	173.489366
14.630000	125.788524
14.640000	45.378330
14.650000	-33.467961
14.660000	-84.445104
14.670000	-85.426318
14.680000	-48.720061
14.690000	16.600719
14.700000	101.983035
14.710000	201.946269
14.720000	306.316767
14.730000	381.203656
14.740000	410.676924
14.750000	401.500581
14.760000	390.095857
14.770000	422.802177
14.780000	512.065902
14.790000	607.909963
14.800000	643.968677
14.810000	605.804882
14.820000	537.343016
14.830000	481.675543
14.840000	441.584755
14.850000	410.832961
14.860000	373.778945
14.870000	303.604707
14.880000	197.684682
14.890000	86.779991
14.900000	8.253798
14.910000	-26.470654
14.920000	-46.309161
14.930000	-62.694491
14.940000	-80.207776
14.950000	-98.592780
14.960000	-117.126108
14.970000	-137.184433
14.980000	-152.711551
14.990000	-162.476793
15.000000	-166.320648
15.010000	-166.462993
15.020000	-161.941568
15.030000	-154.477049
15.040000	-148.924842
15.050000	-144.161684
15.060000	-134.916979
15.070000	-123.219874
15.080000	-117.613766
15.090000	-115.601084
15.100000	-113.326753
15.110000	-103.659808
15.120000	-94.768188
15.130000	-84.710442
15.140000	-78.916126
15.150000	-79.437974
15.160000	-63.682457
15.170000	-40.939074
15.180000	-42.194291
15.190000	-100.130656
15.200000	-185.555249
15.210000	-246.946558
15.220000	-272.042928
15.230000	-270.842398
15.240000	-259.232158
15.250000	-243.396872
15.260000	-230.776689
15.270000	-231.978467
15.280000	-233.606957
15.290000	-226.590163
15.300000	-213.821547
15.310000	-213.595515
15.320000	-230.349329
15.330000	-246.224108
15.340000	-255.595087
15.350000	-256.212905
15.360000	-255.217455
15.370000	-245.179064
15.380000	-231.893413
15.390000	-217.151373
15.400000	-206.931241
15.410000	-206.806155
15.420000	-208.614812
15.430000	-203.141386
15.440000	-192.345636
15.450000	-180.833655
15.460000	-172.758193
15.470000	-160.844056
15.480000	-146.544117
15.490000	-133.877439
15.500000	-120.662148
15.510000	-104.592825
15.520000	-95.829964
15.530000	-100.980534
15.540000	-95.260179
15.550000	-84.467394
15.560000	-100.777861
15.570000	-169.617267
15.580000	-256.479021
15.590000	-310.068984
15.600000	-325.321633
15.610000	-317.256879
15.620000	-297.168217
15.630000	-279.467404
15.640000	-267.665450
15.650000	-264.355853
15.660000	-261.814644
15.670000	-247.912352
15.680000	-232.036267
15.690000	-223.147528
15.700000	-231.273849
15.710000	-239.321087
15.720000	-236.207330
15.730000	-223.542065
15.740000	-205.493573
15.750000	-188.782294
15.760000	-171.768937
15.770000	-158.717321
15.780000	-139.683698
15.790000	-115.025563
15.800000	-88.619548
15.810000	-66.350576
15.820000	-52.896503
15.830000	-43.995288
15.840000	-37.523416
15.850000	-30.648635
15.860000	-24.170717
15.870000	-23.992908
15.880000	-32.150801
15.890000	-43.326889
15.900000	-34.425122
15.910000	-8.408673
15.920000	14.577306
15.930000	31.547452
15.940000	43.916102
15.950000	31.769451
15.960000	-35.783964
15.970000	-139.211931
15.980000	-221.054895
15.990000	-260.635870
16.000000	-270.090642
16.010000	-268.085600
16.020000	-264.777364
16.030000	-262.187157
16.040000	-266.148549
16.050000	-270.596514
16.060000	-272.535131
16.070000	-258.316732
16.080000	-245.346936
16.090000	-238.007595
16.100000	-244.843067
16.110000	-244.622715
16.120000	-230.718487
16.130000	-215.629359
16.140000	-208.924655
16.150000	-211.283519
16.160000	-208.428147
16.170000	-194.966959
16.180000	-183.652815
16.190000	-178.631232
16.200000	-173.185255
16.210000	-159.630252
16.220000	-137.073550
16.230000	-121.679782
16.240000	-114.256455
16.250000	-115.732897
16.260000	-113.070705
16.270000	-112.842710
16.280000	-108.852510
16.290000	-108.325135
16.300000	-91.228322
16.310000	-74.243727
16.320000	-71.264927
16.330000	-74.103239
16.340000	-61.266352
16.350000	-49.736236
16.360000	-87.019213
16.370000	-165.552032
16.380000	-238.330919
16.390000	-280.094501
16.400000	-296.393993
16.410000	-289.628167
16.420000	-271.147958
16.430000	-249.821095
16.440000	-240.584452
16.450000	-234.948649
16.460000	-226.692586
16.470000	-203.056761
16.480000	-177.537788
16.490000	-165.501397
16.500000	-166.671185
16.510000	-169.245303
16.520000	-165.145502
16.530000	-157.015782
16.540000	-143.606011
16.550000	-124.785989
16.560000	-107.749718
16.570000	-85.179179
16.580000	-66.602296
16.590000	-55.217347
16.600000	-48.768682
16.610000	-42.577407
16.620000	-32.264197
16.630000	-25.966576
16.640000	-21.392222
16.650000	-16.684522
16.660000	-11.852709
16.670000	-8.400335
16.680000	-5.299764
16.690000	-2.111038
16.700000	-2.417570
16.710000	-8.811812
16.720000	-1.132096
16.730000	17.430970
16.740000	9.734730
16.750000	-58.643932
16.760000	-158.214478
16.770000	-236.647440
16.780000	-275.915657
16.790000	-284.715191
16.800000	-269.935810
16.810000	-243.119408
16.820000	-226.308240
16.830000	-229.814594
16.840000	-243.948669
16.850000	-249.472905
16.860000	-248.637208
16.870000	-247.129496
16.880000	-263.014987
16.890000	-289.706697
16.900000	-319.377418
16.910000	-338.923868
16.920000	-347.427512
16.930000	-349.811012
16.940000	-345.115112
16.950000	-341.042002
16.960000	-332.754722
16.970000	-329.965796
16.980000	-328.341652
16.990000	-333.903648
17.000000	-338.207521
17.010000	-336.169115
17.020000	-330.078411
17.030000	-324.425105
17.040000	-322.597132
17.050000	-321.647593
17.060000	-324.114521
17.070000	-328.843247
17.080000	-334.614745
17.090000	-327.319541
17.100000	-321.175179
17.110000	-332.450238
17.120000	-334.599820
17.130000	-337.328655
17.140000	-360.366510
17.150000	-441.905313
17.160000	-544.907127
17.170000	-612.407478
17.180000	-648.929876
17.190000	-658.554685
17.200000	-657.298006
17.210000	-646.975157
17.220000	-642.346959
17.230000	-645.672889
17.240000	-655.029008
17.250000	-658.654508
17.260000	-654.381292
17.270000	-653.984623
17.280000	-668.040120
17.290000	-690.244522
17.300000	-704.648231
17.310000	-706.844864
17.320000	-705.266633
17.330000	-702.069282
17.340000	-698.523535
17.350000	-697.939845
17.360000	-701.080253
17.370000	-710.120709
17.380000	-714.909127
17.390000	-715.301336
17.400000	-714.719662
17.410000	-720.464063
17.420000	-728.804264
17.430000	-737.267516
17.440000	-743.191857
17.450000	-753.734349
17.460000	-759.169052
17.470000	-764.543956
17.480000	-769.098711
17.490000	-771.319457
17.500000	-760.303423
17.510000	-745.451103
17.520000	-721.100010
17.530000	-665.504685
17.540000	-556.862073
17.550000	-373.189594
17.560000	-108.777673
17.570000	534.621352
17.580000	1601.735268
17.590000	2376.849733
17.600000	2712.220720
17.610000	2889.719543
17.620000	2936.500701
17.630000	2894.330691
17.640000	2796.141197
17.650000	2657.934832
17.660000	2499.498636
17.670000	2359.297195
17.680000	2245.814345
17.690000	2136.615595
17.700000	2017.193109
17.710000	1907.737562
17.720000	1812.570184
17.730000	1727.879377
17.740000	1650.658599
17.750000	1573.384847
17.760000	1482.105668
17.770000	1384.325806
17.780000	1296.286855
17.790000	1221.943365
17.800000	1135.430036
17.810000	1047.037665
17.820000	976.978103
17.830000	920.441071
17.840000	869.562464
17.850000	826.918012
17.860000	812.573232
17.870000	805.661067
17.880000	792.983767
17.890000	752.759407
17.900000	698.537022
17.910000	640.561166
17.920000	572.423847
17.930000	477.714901
17.940000	389.827041
17.950000	321.525027
17.960000	269.231862
17.970000	167.879568
17.980000	33.907310
17.990000	-32.823214
18.000000	-1.894301
18.010000	78.638936
18.020000	80.798492
18.030000	-26.585651
18.040000	-244.666129
18.050000	-520.896799
18.060000	-691.813833
18.070000	-682.040336
18.080000	-483.858732
18.090000	-128.648059
18.100000	220.679462
18.110000	490.310640
18.120000	701.891449
18.130000	886.621419
18.140000	1056.028894
18.150000	1204.935228
18.160000	1283.760095
18.170000	1308.478247
18.180000	1255.765959
18.190000	1113.434551
18.200000	889.907748
18.210000	632.413807
18.220000	416.095564
18.230000	254.907858
18.240000	131.939669
18.250000	41.675531
18.260000	16.938980
18.270000	89.490254
18.280000	264.247934
18.290000	493.759212
18.300000	714.565451
18.310000	883.366398
18.320000	973.982634
18.330000	980.962159
18.340000	912.821895
18.350000	815.043199
18.360000	741.401059
18.370000	691.024639
18.380000	658.685436
18.390000	632.037064
18.400000	630.775037
18.410000	654.712112
18.420000	686.200589
18.430000	695.070010
18.440000	651.343919
18.450000	565.589841
18.460000	433.831203
18.470000	280.906035
18.480000	153.094587
18.490000	72.539790
18.500000	29.654659
18.510000	-16.528829
18.520000	-59.270440
18.530000	-87.200962
18.540000	-101.178704
18.550000	-104.496048
18.560000	-106.720493
18.570000	-109.385378
18.580000	-118.557730
18.590000	-136.881655
18.600000	-161.997589
18.610000	-186.981778
18.620000	-206.725500
18.630000	-215.697155
18.640000	-209.406031
18.650000	-185.033566
18.660000	-154.409917
18.670000	-128.985397
18.680000	-101.311702
18.690000	-69.903421
18.700000	-42.187789
18.710000	-22.095002
18.720000	4.703104
18.730000	18.336313
18.740000	-15.395209
18.750000	-95.752931
18.760000	-171.972649
18.770000	-196.801685
18.780000	-182.663865
18.790000	-148.150587
18.800000	-116.985722
18.810000	-91.724561
18.820000	-83.614667
18.830000	-89.208054
18.840000	-101.182854
18.850000	-108.631579
18.860000	-119.084894
18.870000	-138.667786
18.880000	-168.255724
18.890000	-194.280861
18.900000	-214.073017
18.910000	-233.868258
18.920000	-249.812452
18.930000	-261.080488
18.940000	-263.826760
18.950000	-272.960722
18.960000	-282.065641
18.970000	-293.481472
18.980000	-296.217692
18.990000	-299.006158
19.000000	-297.282971
19.010000	-293.834088
19.020000	-293.971556
19.030000	-285.898035
19.040000	-280.004065
19.050000	-281.564219
19.060000	-281.947973
19.070000	-278.529788
19.080000	-290.233927
19.090000	-350.484671
19.100000	-436.648699
19.110000	-502.657934
19.120000	-528.417511
19.130000	-519.517734
19.140000	-489.490748
19.150000	-456.004789
19.160000	-431.498795
19.170000	-428.106790
19.180000	-431.717148
19.190000	-425.817860
19.200000	-418.284746
19.210000	-417.813376
19.220000	-439.151091
19.230000	-458.652162
19.240000	-467.005450
19.250000	-457.780758
19.260000	-436.173556
19.270000	-411.201584
19.280000	-386.608823
19.290000	-360.889547
19.300000	-338.341493
19.310000	-319.181003
19.320000	-301.349185
19.330000	-277.071266
19.340000	-248.999923
19.350000	-225.926024
19.360000	-214.258317
19.370000	-197.331499
19.380000	-173.505295
19.390000	-155.389990
19.400000	-137.650083
19.410000	-100.355383
19.420000	-57.501593
19.430000	-67.723477
19.440000	-128.799272
19.450000	-195.586888
19.460000	-224.714900
19.470000	-224.872927
19.480000	-189.869177
19.490000	-141.515282
19.500000	-93.614074
19.510000	-70.799884
19.520000	-54.185145
19.530000	-27.370240
19.540000	-4.786359
19.550000	3.125020
19.560000	-18.010261
19.570000	-44.887997
19.580000	-64.875113
19.590000	-77.211809
19.600000	-82.354699
19.610000	-78.139693
19.620000	-69.799079
19.630000	-59.670647
19.640000	-61.218247
19.650000	-62.074759
19.660000	-63.619146
19.670000	-55.724452
19.680000	-45.344016
19.690000	-37.646174
19.700000	-37.010188
19.710000	-35.811602
19.720000	-42.329921
19.730000	-48.876256
19.740000	-32.550834
19.750000	-14.003351
19.760000	-37.111577
19.770000	-123.679054
19.780000	-225.088009
19.790000	-298.980928
19.800000	-341.111296
19.810000	-352.572850
19.820000	-335.746699
19.830000	-312.493385
19.840000	-300.311763
19.850000	-310.003693
19.860000	-324.408048
19.870000	-328.460976
19.880000	-332.849462
19.890000	-348.860828
19.900000	-382.884862
19.910000	-413.123879
19.920000	-428.556991
19.930000	-429.023733
19.940000	-423.193521
19.950000	-416.521412
19.960000	-409.756949
19.970000	-401.954090
19.980000	-392.260119
19.990000	-380.327468
20.000000	-362.025370
20.010000	-338.320474
20.020000	-316.413191
20.030000	-297.903366
20.040000	-288.751406
20.050000	-284.395588
20.060000	-268.662438
20.070000	-254.906765
20.080000	-255.174202
20.090000	-250.603858
20.100000	-243.681873
20.110000	-274.675130
20.120000	-367.748867
20.130000	-486.182524
20.140000	-562.668331
20.150000	-601.155238
20.160000	-608.866190
20.170000	-604.762720
20.180000	-594.630172
20.190000	-586.979785
20.200000	-596.345905
20.210000	-606.714595
20.220000	-608.681212
20.230000	-601.073205
20.240000	-608.020300
20.250000	-635.315497
20.260000	-659.546309
20.270000	-672.533184
20.280000	-674.361656
20.290000	-672.036256
20.300000	-662.081006
20.310000	-651.500639
20.320000	-643.054286
20.330000	-638.226841
20.340000	-633.278258
20.350000	-626.222623
20.360000	-617.105621
20.370000	-606.149748
20.380000	-590.856075
20.390000	-589.731502
20.400000	-593.794332
20.410000	-599.257189
20.420000	-585.616034
20.430000	-532.712876
20.440000	-441.424243
20.450000	-323.125815
20.460000	-148.716041
20.470000	83.930777
20.480000	370.468633
20.490000	593.251724
20.500000	765.048614
20.510000	918.888968
20.520000	1088.490889
20.530000	1245.429695
20.540000	1359.669879
20.550000	1394.694060
20.560000	1382.779554
20.570000	1301.216088
20.580000	1198.828007
20.590000	1067.323814
20.600000	962.127627
20.610000	857.284449
20.620000	765.944656
20.630000	607.731784
20.640000	408.930484
20.650000	140.968607
20.660000	-141.673757
20.670000	-430.355667
20.680000	-594.064846
20.690000	-603.726834
20.700000	936.493069
20.710000	1382.917824
20.720000	1591.219744
20.730000	1657.820650
20.740000	1683.260200
20.750000	1635.785575
20.760000	1572.624877
20.770000	1429.162531
20.780000	1293.823422
20.790000	1155.346058
20.800000	1046.222668
20.810000	923.737035
20.820000	833.946565
20.830000	752.348513
20.840000	694.194083
20.850000	614.876816
20.860000	536.372493
20.870000	457.757027
20.880000	415.401591
20.890000	394.578591
20.900000	379.509610
20.910000	344.120457
20.920000	317.517872
20.930000	307.352177
20.940000	310.913230
20.950000	296.252574
20.960000	276.514850
20.970000	251.866497
20.980000	263.645481
20.990000	301.755170
21.000000	376.247560
21.010000	445.585010
21.020000	500.019897
21.030000	538.187567
21.040000	556.201748
21.050000	569.927557
21.060000	574.409671
21.070000	585.474617
21.080000	588.283426
21.090000	582.478238
21.100000	586.626006
21.110000	588.146547
21.120000	550.653487
21.130000	455.279975
21.140000	334.572558
21.150000	248.906924
21.160000	205.429222
21.170000	202.593829
21.180000	228.675121
21.190000	266.683505
21.200000	306.691010
21.210000	332.840855
21.220000	353.858402
21.230000	375.741393
21.240000	400.432026
21.250000	416.355532
21.260000	404.736620
21.270000	366.775299
21.280000	322.176151
21.290000	288.606931
21.300000	274.674933
21.310000	278.493886
21.320000	294.915573
21.330000	322.475112
21.340000	351.885554
21.350000	381.561652
21.360000	413.616519
21.370000	456.081937
21.380000	507.071057
21.390000	550.982028
21.400000	567.597049
21.410000	576.408636
21.420000	602.221731
21.430000	637.162901
21.440000	671.258029
21.450000	720.405586
21.460000	778.651635
21.470000	790.262169
21.480000	721.857218
21.490000	622.763113
21.500000	564.206771
21.510000	540.804069
21.520000	512.544927
21.530000	474.692214
21.540000	465.752096
21.550000	485.223396
21.560000	522.347862
21.570000	561.156960
21.580000	608.756952
21.590000	643.427885
21.600000	645.254114
21.610000	613.501186
21.620000	572.569911
21.630000	548.328019
21.640000	538.223723
21.650000	534.890929
21.660000	529.623045
21.670000	543.952641
21.680000	566.347184
21.690000	585.430298
21.700000	570.767709
21.710000	525.749460
21.720000	465.970230
21.730000	454.948593
21.740000	518.818281
21.750000	611.363753
21.760000	705.466716
21.770000	764.166333
21.780000	779.943654
21.790000	675.524813
21.800000	493.162878
21.810000	332.120375
21.820000	240.655686
21.830000	192.925914
21.840000	142.171041
21.850000	123.369113
21.860000	165.416009
21.870000	260.123267
21.880000	375.675386
21.890000	489.983260
21.900000	590.038651
21.910000	696.013150
21.920000	808.092271
21.930000	907.402419
21.940000	968.205238
21.950000	992.947106
21.960000	1033.197595
21.970000	1113.495143
21.980000	1225.176140
21.990000	1321.014423
22.000000	1367.268651
22.010000	1360.359908
22.020000	1321.505719
22.030000	1279.468982
22.040000	1243.097358
22.050000	1221.320617
22.060000	1207.053737
22.070000	1195.587217
22.080000	1178.742070
22.090000	1144.250436
22.100000	1072.150144
22.110000	973.740077
22.120000	893.389288
22.130000	857.252937
22.140000	834.879201
22.150000	779.794363
22.160000	708.280370
22.170000	625.711038
22.180000	534.411352
22.190000	401.602458
22.200000	248.427899
22.210000	171.103835
22.220000	178.942488
22.230000	230.869847
22.240000	182.576184
22.250000	61.509885
22.260000	-8.456713
22.270000	36.051960
22.280000	90.115974
22.290000	30.945731
22.300000	-40.964340
22.310000	-37.795289
22.320000	40.112858
22.330000	43.788064
22.340000	-28.673786
22.350000	-81.963061
22.360000	-51.479972
22.370000	5.682670
22.380000	5.035982
22.390000	-35.994676
22.400000	-61.278457
22.410000	-36.669482
22.420000	-5.743819
22.430000	-2.923641
22.440000	-46.770490
22.450000	-99.294392
22.460000	-125.076512
22.470000	-118.686838
22.480000	-119.779397
22.490000	-127.240726
22.500000	-104.659119
22.510000	-90.942307
22.520000	-147.876205
22.530000	-253.355040
22.540000	-333.225608
22.550000	-350.478762
22.560000	-345.396636
22.570000	-328.129430
22.580000	-291.797624
22.590000	-244.765728
22.600000	-202.161310
22.610000	-156.952309
22.620000	-122.525915
22.630000	-101.721778
22.640000	-98.840075
22.650000	-112.421325
22.660000	-122.382667
22.670000	-122.438702
22.680000	-102.862760
22.690000	-70.783007
22.700000	-18.583342
22.710000	37.191660
22.720000	92.448592
22.730000	136.198692
22.740000	172.907259
22.750000	193.886870
22.760000	196.098360
22.770000	202.362644
22.780000	228.319287
22.790000	281.197850
22.800000	317.449591
22.810000	324.499949
22.820000	335.085808
22.830000	362.128725
22.840000	361.613049
22.850000	289.471068
22.860000	178.063550
22.870000	88.271385
22.880000	41.451434
22.890000	36.388607
22.900000	58.180254
22.910000	91.883878
22.920000	126.297130
22.930000	158.780077
22.940000	195.147600
22.950000	240.383992
22.960000	272.299724
22.970000	293.431733
22.980000	297.469749
22.990000	306.265311
23.000000	319.954906
23.010000	316.746383
23.020000	314.924140
23.030000	305.860490
23.040000	292.632084
23.050000	249.936155
23.060000	182.127262
23.070000	106.419189
23.080000	46.344783
23.090000	8.560462
23.100000	-11.430804
23.110000	-14.250494
23.120000	-33.259582
23.130000	-84.310363
23.140000	-128.568895
23.150000	-172.124749
23.160000	-251.259328
23.170000	-404.243192
23.180000	-567.970310
23.190000	-672.308383
23.200000	-716.170703
23.210000	-713.047104
23.220000	-676.338061
23.230000	-626.439294
23.240000	-577.456106
23.250000	-540.792399
23.260000	-503.141652
23.270000	-468.495415
23.280000	-444.139003
23.290000	-395.720520
23.300000	-353.617610
23.310000	-306.133887
23.320000	-292.874624
23.330000	-277.977828
23.340000	-273.902550
23.350000	-292.458524
23.360000	-298.105972
23.370000	-314.407432
23.380000	-373.639550
23.390000	-509.667260
23.400000	-649.519919
23.410000	-731.598877
23.420000	-760.890718
23.430000	-760.889196
23.440000	-744.874992
23.450000	-712.784705
23.460000	-674.194557
23.470000	-632.305157
23.480000	-586.813923
23.490000	-537.134550
23.500000	-498.787539
23.510000	-483.597426
23.520000	-485.689799
23.530000	-491.349638
23.540000	-488.574579
23.550000	-479.786226
23.560000	-463.092545
23.570000	-449.236153
23.580000	-441.903368
23.590000	-448.007446
23.600000	-456.978938
23.610000	-466.447616
23.620000	-467.015151
23.630000	-462.236897
23.640000	-457.704072
23.650000	-466.360403
23.660000	-478.979712
23.670000	-487.802455
23.680000	-515.654112
23.690000	-544.781380
23.700000	-560.986836
23.710000	-582.498151
23.720000	-663.734645
23.730000	-808.725759
23.740000	-939.907808
23.750000	-1017.373129
23.760000	-1044.182199
23.770000	-1043.726422
23.780000	-1033.423797
23.790000	-1023.711013
23.800000	-1034.341642
23.810000	-1048.245299
23.820000	-1053.257301
23.830000	-1060.828954
23.840000	-1081.154171
23.850000	-1120.052078
23.860000	-1151.615532
23.870000	-1165.302504
23.880000	-1170.450060
23.890000	-1153.475337
23.900000	-1112.970169
23.910000	-1042.954534
23.920000	-954.188612
23.930000	-872.126541
23.940000	-801.669816
23.950000	-740.264030
23.960000	-673.771912
23.970000	-600.087343
23.980000	-538.251606
23.990000	-493.191469
24.000000	-464.703516
24.010000	-430.554787
24.020000	-407.248238
24.030000	-398.870474
24.040000	-378.694848
24.050000	-340.896803
24.060000	-329.598584
24.070000	-386.569988
24.080000	-461.569628
24.090000	-496.541772
24.100000	-484.333910
24.110000	-447.916418
24.120000	-396.045975
24.130000	-337.945860
24.140000	-289.095429
24.150000	-268.304675
24.160000	-251.346923
24.170000	-236.044310
24.180000	-227.939899
24.190000	-149.638846
