Time(s)	IR_denoised_wiener
0.000000	1806.794089
0.010000	1852.952946
0.020000	1872.955105
0.030000	1894.665146
0.040000	1915.058211
0.050000	1941.870335
0.060000	1974.935773
0.070000	2020.889743
0.080000	2073.907355
0.090000	2123.691132
0.100000	2165.354074
0.110000	2197.628738
0.120000	2225.944780
0.130000	2248.337598
0.140000	2270.346952
0.150000	2288.478444
0.160000	2306.224374
0.170000	2329.414352
0.180000	2351.522405
0.190000	2361.458155
0.200000	2365.320619
0.210000	2361.934139
0.220000	2314.138001
0.230000	2180.515600
0.240000	1991.602652
0.250000	1816.317929
0.260000	1698.111918
0.270000	1639.788960
0.280000	1636.713518
0.290000	1669.665120
0.300000	1704.384743
0.310000	1725.703704
0.320000	1730.197268
0.330000	1743.597123
0.340000	1765.378131
0.350000	1778.885718
0.360000	1780.031995
0.370000	1765.614229
0.380000	1758.193094
0.390000	1750.696804
0.400000	1745.815424
0.410000	1752.563457
0.420000	1769.842295
0.430000	1793.853947
0.440000	1817.623950
0.450000	1836.580123
0.460000	1858.200021
0.470000	1875.025485
0.480000	1889.896798
0.490000	1906.564634
0.500000	1922.332674
0.510000	1942.882444
0.520000	1963.494465
0.530000	1988.311226
0.540000	2010.712133
0.550000	2028.837319
0.560000	2056.054642
0.570000	2084.052319
0.580000	2106.148837
0.590000	2132.726806
0.600000	2162.622671
0.610000	2165.397621
0.620000	2094.795166
0.630000	1974.334211
0.640000	1850.102457
0.650000	1754.638395
0.660000	1692.737009
0.670000	1665.334080
0.680000	1661.740363
0.690000	1663.407531
0.700000	1658.493430
0.710000	1652.257845
0.720000	1661.005312
0.730000	1677.437056
0.740000	1688.226263
0.750000	1683.683774
0.760000	1667.540135
0.770000	1650.671384
0.780000	1625.523179
0.790000	1603.094926
0.800000	1600.239110
0.810000	1619.527886
0.820000	1648.962145
0.830000	1675.670718
0.840000	1696.756639
0.850000	1717.211067
0.860000	1733.234620
0.870000	1743.129920
0.880000	1748.425948
0.890000	1747.409433
0.900000	1747.677480
0.910000	1754.047667
0.920000	1758.926326
0.930000	1751.373146
0.940000	1738.586452
0.950000	1729.730500
0.960000	1730.929706
0.970000	1733.737635
0.980000	1737.983806
0.990000	1745.770766
1.000000	1749.362261
1.010000	1709.400038
1.020000	1592.772470
1.030000	1402.763241
1.040000	1174.951220
1.050000	932.648917
1.060000	664.751502
1.070000	379.332251
1.080000	98.295198
1.090000	-196.917700
1.100000	-514.762064
1.110000	-830.139692
1.120000	-1120.056099
1.130000	-1341.242805
1.140000	-1512.081574
1.150000	-1645.457643
1.160000	-1763.110718
1.170000	-1863.955104
1.180000	-1931.444457
1.190000	-1969.190055
1.200000	-1979.792603
1.210000	-1985.832107
1.220000	-2010.162090
1.230000	-2053.435458
1.240000	-2098.506641
1.250000	-2129.066718
1.260000	-2151.941994
1.270000	-2169.715216
1.280000	-2184.406315
1.290000	-2188.035037
1.300000	-2186.609441
1.310000	-2184.719596
1.320000	-2180.164113
1.330000	-2176.124026
1.340000	-2163.057135
1.350000	-2149.285676
1.360000	-2128.954218
1.370000	-2106.185901
1.380000	-2087.570730
1.390000	-2072.781253
1.400000	-2039.174873
1.410000	-2007.212025
1.420000	-2020.895477
1.430000	-2107.316238
1.440000	-2232.503002
1.450000	-2343.758379
1.460000	-2436.633788
1.470000	-2496.899099
1.480000	-2522.190632
1.490000	-2525.142483
1.500000	-2526.833466
1.510000	-2544.439249
1.520000	-2557.772407
1.530000	-2557.164914
1.540000	-2550.159886
1.550000	-2548.972587
1.560000	-2564.614465
1.570000	-2584.787859
1.580000	-2605.497996
1.590000	-2624.013932
1.600000	-2634.782270
1.610000	-2634.990509
1.620000	-2625.487376
1.630000	-2610.387949
1.640000	-2592.602161
1.650000	-2574.531399
1.660000	-2557.128108
1.670000	-2536.076571
1.680000	-2506.737057
1.690000	-2472.060837
1.700000	-2433.761856
1.710000	-2399.481618
1.720000	-2370.189535
1.730000	-2344.651844
1.740000	-2315.356410
1.750000	-2281.598133
1.760000	-2249.968269
1.770000	-2215.271223
1.780000	-2167.326496
1.790000	-2117.430899
1.800000	-2071.097289
1.810000	-2020.316062
1.820000	-1990.723951
1.830000	-2019.330067
1.840000	-2118.381011
1.850000	-2235.933638
1.860000	-2325.820581
1.870000	-2383.752975
1.880000	-2408.369687
1.890000	-2403.689320
1.900000	-2382.378834
1.910000	-2356.394039
1.920000	-2328.467000
1.930000	-2292.178654
1.940000	-2247.010398
1.950000	-2207.109892
1.960000	-2184.655361
1.970000	-2178.779560
1.980000	-2175.706402
1.990000	-2164.231752
2.000000	-2148.241595
2.010000	-2130.791600
2.020000	-2109.204865
2.030000	-2082.801293
2.040000	-2055.960249
2.050000	-2034.259674
2.060000	-2016.141931
2.070000	-2000.499006
2.080000	-1976.410183
2.090000	-1947.559099
2.100000	-1909.437033
2.110000	-1875.784182
2.120000	-1836.179480
2.130000	-1791.155052
2.140000	-1752.402014
2.150000	-1712.924424
2.160000	-1673.763493
2.170000	-1627.454337
2.180000	-1583.957091
2.190000	-1539.731777
2.200000	-1482.912765
2.210000	-1403.466182
2.220000	-1333.770511
2.230000	-1311.668152
2.240000	-1374.412830
2.250000	-1490.467663
2.260000	-1606.114319
2.270000	-1695.463975
2.280000	-1748.647101
2.290000	-1758.588845
2.300000	-1728.663040
2.310000	-1680.217773
2.320000	-1634.132604
2.330000	-1592.918038
2.340000	-1538.333830
2.350000	-1486.835778
2.360000	-1453.319798
2.370000	-1443.851794
2.380000	-1451.058210
2.390000	-1461.975299
2.400000	-1464.254630
2.410000	-1450.569047
2.420000	-1419.925023
2.430000	-1386.661600
2.440000	-1351.013477
2.450000	-1313.545290
2.460000	-1277.900708
2.470000	-1242.872724
2.480000	-1206.242299
2.490000	-1159.306220
2.500000	-1110.421341
2.510000	-1064.186705
2.520000	-1021.046323
2.530000	-979.185041
2.540000	-933.452897
2.550000	-901.035495
2.560000	-873.245865
2.570000	-840.674763
2.580000	-800.848685
2.590000	-753.444073
2.600000	-714.620909
2.610000	-678.276355
2.620000	-634.172545
2.630000	-584.934717
2.640000	-573.291721
2.650000	-640.045148
2.660000	-751.329817
2.670000	-844.533921
2.680000	-899.608738
2.690000	-923.554195
2.700000	-928.024269
2.710000	-912.999512
2.720000	-894.273610
2.730000	-876.537981
2.740000	-854.953679
2.750000	-824.532867
2.760000	-794.797010
2.770000	-784.676918
2.780000	-794.378806
2.790000	-812.579097
2.800000	-820.730453
2.810000	-821.662906
2.820000	-814.528132
2.830000	-811.906281
2.840000	-814.081265
2.850000	-815.923884
2.860000	-813.760690
2.870000	-806.738055
2.880000	-789.215647
2.890000	-757.011426
2.900000	-716.487940
2.910000	-669.393672
2.920000	-618.551233
2.930000	-569.237208
2.940000	-528.072596
2.950000	-485.490482
2.960000	-438.733348
2.970000	-397.565319
2.980000	-359.146466
2.990000	-324.103137
3.000000	-296.020982
3.010000	-264.722897
3.020000	-233.385053
3.030000	-207.134030
3.040000	-184.516870
3.050000	-160.988954
3.060000	-166.863172
3.070000	-244.662624
3.080000	-368.807430
3.090000	-475.683296
3.100000	-536.966542
3.110000	-572.286724
3.120000	-585.867511
3.130000	-582.341898
3.140000	-571.232310
3.150000	-561.178159
3.160000	-558.373679
3.170000	-550.078804
3.180000	-530.984949
3.190000	-518.156818
3.200000	-522.027015
3.210000	-544.660619
3.220000	-560.441574
3.230000	-560.993373
3.240000	-555.351975
3.250000	-545.420964
3.260000	-534.380047
3.270000	-514.265184
3.280000	-493.232696
3.290000	-458.164336
3.300000	-421.936498
3.310000	-380.463046
3.320000	-346.465665
3.330000	-316.830514
3.340000	-279.081083
3.350000	-247.717087
3.360000	-216.083121
3.370000	-185.068816
3.380000	-147.507172
3.390000	-116.586968
3.400000	-98.020908
3.410000	-78.496122
3.420000	-47.652382
3.430000	-13.565242
3.440000	33.322206
3.450000	91.894255
3.460000	136.119925
3.470000	164.980979
3.480000	182.156034
3.490000	180.931613
3.500000	108.959553
3.510000	-35.753072
3.520000	-191.167726
3.530000	-300.224470
3.540000	-353.197756
3.550000	-374.896502
3.560000	-381.977550
3.570000	-380.979267
3.580000	-377.192140
3.590000	-378.507094
3.600000	-378.471617
3.610000	-363.452506
3.620000	-349.268985
3.630000	-357.517138
3.640000	-381.090558
3.650000	-412.015444
3.660000	-432.988912
3.670000	-438.648627
3.680000	-427.332520
3.690000	-410.419059
3.700000	-394.764813
3.710000	-369.575116
3.720000	-336.999761
3.730000	-309.192082
3.740000	-276.273961
3.750000	-234.257981
3.760000	-200.706426
3.770000	-183.395736
3.780000	-167.842808
3.790000	-137.291955
3.800000	-114.853040
3.810000	-104.566474
3.820000	-85.558502
3.830000	-43.622611
3.840000	6.560407
3.850000	33.846767
3.860000	61.399558
3.870000	103.864186
3.880000	158.094966
3.890000	205.076826
3.900000	242.408497
3.910000	260.509255
3.920000	218.208455
3.930000	111.283370
3.940000	-24.307342
3.950000	-122.285009
3.960000	-173.405212
3.970000	-188.667403
3.980000	-186.949457
3.990000	-187.140885
4.000000	-179.505789
4.010000	-167.407373
4.020000	-139.779167
4.030000	-107.156184
4.040000	-88.832578
4.050000	-89.955096
4.060000	-112.298665
4.070000	-127.091692
4.080000	-132.927808
4.090000	-129.652600
4.100000	-124.664881
4.110000	-114.938369
4.120000	-94.814528
4.130000	-67.668395
4.140000	-38.053164
4.150000	-12.154967
4.160000	11.978852
4.170000	35.605209
4.180000	68.616941
4.190000	107.578157
4.200000	150.843020
4.210000	185.436755
4.220000	213.360688
4.230000	237.882980
4.240000	262.129137
4.250000	285.236446
4.260000	306.817439
4.270000	334.196660
4.280000	366.067953
4.290000	401.410590
4.300000	435.227491
4.310000	458.868108
4.320000	480.019199
4.330000	507.249018
4.340000	504.944198
4.350000	421.507667
4.360000	263.952142
4.370000	98.183700
4.380000	-19.811203
4.390000	-100.065315
4.400000	-146.300615
4.410000	-167.070676
4.420000	-169.528934
4.430000	-162.155445
4.440000	-155.505058
4.450000	-144.940266
4.460000	-134.914268
4.470000	-133.476088
4.480000	-153.410616
4.490000	-196.054266
4.500000	-242.926004
4.510000	-281.054047
4.520000	-308.210372
4.530000	-320.454930
4.540000	-324.262146
4.550000	-320.579096
4.560000	-316.067741
4.570000	-304.405382
4.580000	-286.965246
4.590000	-264.968344
4.600000	-247.287179
4.610000	-232.907213
4.620000	-219.675364
4.630000	-201.236902
4.640000	-179.488218
4.650000	-158.641268
4.660000	-139.025034
4.670000	-121.782139
4.680000	-104.285407
4.690000	-92.012155
4.700000	-81.253742
4.710000	-75.661883
4.720000	-62.242159
4.730000	-41.079642
4.740000	-20.986290
4.750000	-0.533991
4.760000	31.231392
4.770000	50.518909
4.780000	5.307914
4.790000	-114.375970
4.800000	-253.165664
4.810000	-362.351670
4.820000	-443.506183
4.830000	-503.069212
4.840000	-542.227044
4.850000	-563.518203
4.860000	-579.034839
4.870000	-590.666155
4.880000	-594.219199
4.890000	-591.556960
4.900000	-592.150287
4.910000	-608.849154
4.920000	-639.431693
4.930000	-670.167721
4.940000	-693.788424
4.950000	-709.227162
4.960000	-718.543838
4.970000	-713.314154
4.980000	-699.728653
4.990000	-681.449706
5.000000	-656.285799
5.010000	-629.995070
5.020000	-601.879420
5.030000	-577.945949
5.040000	-546.811933
5.050000	-505.639837
5.060000	-460.822218
5.070000	-416.713426
5.080000	-373.539337
5.090000	-332.507424
5.100000	-296.311119
5.110000	-266.347977
5.120000	-241.124608
5.130000	-215.561191
5.140000	-186.659184
5.150000	-142.464705
5.160000	-95.642467
5.170000	-57.077278
5.180000	-17.951774
5.190000	29.928780
5.200000	44.555182
5.210000	-25.469651
5.220000	-163.128182
5.230000	-301.441942
5.240000	-394.580233
5.250000	-449.268707
5.260000	-467.729558
5.270000	-459.491365
5.280000	-431.580684
5.290000	-407.801623
5.300000	-398.101444
5.310000	-387.751304
5.320000	-367.343521
5.330000	-350.470358
5.340000	-356.640883
5.350000	-386.509490
5.360000	-422.258868
5.370000	-449.261565
5.380000	-463.609967
5.390000	-471.410970
5.400000	-478.997660
5.410000	-480.562483
5.420000	-477.105651
5.430000	-472.088497
5.440000	-472.925044
5.450000	-464.251966
5.460000	-453.172289
5.470000	-441.098749
5.480000	-443.824100
5.490000	-457.255442
5.500000	-481.852398
5.510000	-504.738941
5.520000	-511.238632
5.530000	-502.962838
5.540000	-477.642647
5.550000	-446.250982
5.560000	-403.362269
5.570000	-357.938723
5.580000	-300.056196
5.590000	-225.668214
5.600000	-160.857909
5.610000	-159.832740
5.620000	-241.252534
5.630000	-350.820187
5.640000	-434.002565
5.650000	-470.590714
5.660000	-476.540149
5.670000	-451.336978
5.680000	-410.475416
5.690000	-368.099323
5.700000	-340.769851
5.710000	-316.134186
5.720000	-277.737687
5.730000	-236.260978
5.740000	-204.394506
5.750000	-197.076801
5.760000	-190.293254
5.770000	-178.291091
5.780000	-149.189538
5.790000	-110.906851
5.800000	-63.410463
5.810000	-14.891063
5.820000	35.381193
5.830000	79.422819
5.840000	116.181190
5.850000	148.069474
5.860000	178.975771
5.870000	217.720820
5.880000	260.393805
5.890000	315.732605
5.900000	374.087644
5.910000	436.099566
5.920000	492.749136
5.930000	546.492834
5.940000	594.725447
5.950000	633.210941
5.960000	669.397093
5.970000	708.921243
5.980000	755.060008
5.990000	794.584546
6.000000	844.471463
6.010000	899.854005
6.020000	906.748066
6.030000	827.836522
6.040000	692.876731
6.050000	578.950743
6.060000	513.872347
6.070000	483.285285
6.080000	481.561952
6.090000	499.948458
6.100000	522.235497
6.110000	537.631457
6.120000	548.617635
6.130000	570.355275
6.140000	607.310242
6.150000	639.351899
6.160000	652.025981
6.170000	644.059440
6.180000	635.141178
6.190000	634.413735
6.200000	647.255587
6.210000	678.443084
6.220000	723.354714
6.230000	767.456222
6.240000	803.485308
6.250000	832.838444
6.260000	855.624806
6.270000	879.587874
6.280000	903.085225
6.290000	929.364556
6.300000	953.871820
6.310000	982.852281
6.320000	1012.980616
6.330000	1040.019755
6.340000	1064.117468
6.350000	1087.542821
6.360000	1115.947121
6.370000	1148.064139
6.380000	1188.811410
6.390000	1233.911581
6.400000	1273.010774
6.410000	1301.794419
6.420000	1336.953679
6.430000	1361.604584
6.440000	1330.171009
6.450000	1215.485554
6.460000	1066.952565
6.470000	953.106645
6.480000	886.601875
6.490000	853.008233
6.500000	840.613846
6.510000	844.283381
6.520000	854.302370
6.530000	866.596779
6.540000	883.364499
6.550000	906.599613
6.560000	929.091620
6.570000	933.933023
6.580000	916.543408
6.590000	886.997757
6.600000	870.060201
6.610000	864.348920
6.620000	869.270978
6.630000	880.715812
6.640000	904.868990
6.650000	931.062263
6.660000	963.199764
6.670000	993.402638
6.680000	1023.249678
6.690000	1084.519327
6.700000	1155.847198
6.710000	1236.051874
6.720000	1274.001466
6.730000	1307.188621
6.740000	1352.794236
6.750000	1375.542409
6.760000	1323.903636
6.770000	1187.370284
6.780000	1031.249488
6.790000	913.539769
6.800000	849.840694
6.810000	837.688228
6.820000	867.440882
6.830000	909.143027
6.840000	940.424137
6.850000	949.990575
6.860000	953.176273
6.870000	956.844018
6.880000	953.919366
6.890000	935.053856
6.900000	902.724309
6.910000	865.643584
6.920000	836.569845
6.930000	815.227040
6.940000	809.467273
6.950000	806.449934
6.960000	806.096055
6.970000	803.355502
6.980000	802.446643
6.990000	810.966715
7.000000	832.482536
7.010000	874.618787
7.020000	919.143793
7.030000	955.321155
7.040000	981.860695
7.050000	1005.408337
7.060000	1035.281262
7.070000	1063.811837
7.080000	1089.749052
7.090000	1111.243250
7.100000	1138.947360
7.110000	1161.978305
7.120000	1172.516812
7.130000	1185.806030
7.140000	1212.101820
7.150000	1232.917315
7.160000	1182.586326
7.170000	1065.917814
7.180000	921.191640
7.190000	800.986351
7.200000	717.715284
7.210000	669.711405
7.220000	657.941220
7.230000	666.418154
7.240000	680.198140
7.250000	682.815368
7.260000	691.241396
7.270000	709.872389
7.280000	726.265927
7.290000	723.277191
7.300000	701.366010
7.310000	672.072792
7.320000	641.143704
7.330000	610.217124
7.340000	592.980993
7.350000	586.341679
7.360000	586.509159
7.370000	587.151850
7.380000	592.090946
7.390000	613.677651
7.400000	639.296154
7.410000	663.916073
7.420000	678.515309
7.430000	696.908580
7.440000	718.719962
7.450000	737.909780
7.460000	761.651595
7.470000	788.243725
7.480000	816.274241
7.490000	842.596214
7.500000	858.571533
7.510000	858.646650
7.520000	849.926143
7.530000	848.744726
7.540000	821.833198
7.550000	693.080214
7.560000	446.857099
7.570000	72.018842
7.580000	-342.988665
7.590000	-671.053717
7.600000	-879.293137
7.610000	-989.247753
7.620000	-1009.113333
7.630000	-975.579680
7.640000	-930.929696
7.650000	-879.789251
7.660000	-832.075259
7.670000	-797.981172
7.680000	-793.217816
7.690000	-807.082631
7.700000	-828.675487
7.710000	-849.506602
7.720000	-869.472314
7.730000	-885.906548
7.740000	-885.890881
7.750000	-871.999159
7.760000	-842.614926
7.770000	-810.782560
7.780000	-781.300378
7.790000	-748.521519
7.800000	-718.669534
7.810000	-693.566340
7.820000	-684.048243
7.830000	-687.225093
7.840000	-691.387866
7.850000	-693.225547
7.860000	-687.039727
7.870000	-675.902372
7.880000	-655.323252
7.890000	-623.238444
7.900000	-590.962915
7.910000	-566.886011
7.920000	-536.191843
7.930000	-515.606676
7.940000	-553.160008
7.950000	-666.898374
7.960000	-815.284692
7.970000	-919.407710
7.980000	-977.274374
7.990000	-992.920783
8.000000	-982.284023
8.010000	-954.068031
8.020000	-922.964249
8.030000	-900.861802
8.040000	-878.574220
8.050000	-848.648034
8.060000	-815.538002
8.070000	-794.451633
8.080000	-792.133093
8.090000	-803.878394
8.100000	-816.693402
8.110000	-824.980164
8.120000	-821.570795
8.130000	-808.762693
8.140000	-787.766659
8.150000	-762.206659
8.160000	-727.595069
8.170000	-694.680643
8.180000	-658.702391
8.190000	-619.154492
8.200000	-572.790360
8.210000	-529.318760
8.220000	-494.188121
8.230000	-460.102838
8.240000	-420.241980
8.250000	-375.228804
8.260000	-331.299340
8.270000	-289.328102
8.280000	-247.671147
8.290000	-208.759928
8.300000	-180.044708
8.310000	-150.127922
8.320000	-114.424881
8.330000	-107.925810
8.340000	-171.809880
8.350000	-298.577789
8.360000	-426.032399
8.370000	-513.610230
8.380000	-557.008847
8.390000	-562.994029
8.400000	-544.322661
8.410000	-525.397341
8.420000	-521.933421
8.430000	-530.736129
8.440000	-527.807731
8.450000	-503.769025
8.460000	-473.068040
8.470000	-458.478607
8.480000	-455.574053
8.490000	-458.838867
8.500000	-459.391074
8.510000	-462.224076
8.520000	-457.821664
8.530000	-440.941020
8.540000	-416.934596
8.550000	-379.278493
8.560000	-336.408333
8.570000	-287.911281
8.580000	-249.913679
8.590000	-217.138028
8.600000	-193.764308
8.610000	-167.304863
8.620000	-136.966149
8.630000	-103.461487
8.640000	-67.486814
8.650000	-33.279933
8.660000	1.358218
8.670000	38.582965
8.680000	80.885750
8.690000	137.479346
8.700000	185.674128
8.710000	234.812285
8.720000	290.133262
8.730000	327.747353
8.740000	295.196173
8.750000	182.815642
8.760000	49.797322
8.770000	-47.441130
8.780000	-97.375505
8.790000	-110.408698
8.800000	-94.191242
8.810000	-64.047710
8.820000	-22.288163
8.830000	17.632508
8.840000	60.347874
8.850000	107.320732
8.860000	143.956626
8.870000	162.711910
8.880000	158.589398
8.890000	152.524775
8.900000	157.551026
8.910000	169.307194
8.920000	187.541367
8.930000	202.748391
8.940000	224.602007
8.950000	254.517958
8.960000	290.671560
8.970000	320.275322
8.980000	343.127010
8.990000	367.072879
9.000000	398.596895
9.010000	429.849329
9.020000	456.093675
9.030000	483.340389
9.040000	516.606230
9.050000	543.468796
9.060000	566.846237
9.070000	590.952818
9.080000	635.815126
9.090000	684.019522
9.100000	726.492496
9.110000	775.831375
9.120000	821.458560
9.130000	844.974134
9.140000	790.340347
9.150000	682.023805
9.160000	565.966950
9.170000	478.399324
9.180000	427.870074
9.190000	410.092153
9.200000	426.140506
9.210000	459.756633
9.220000	495.098016
9.230000	521.454486
9.240000	553.812049
9.250000	579.428796
9.260000	594.904352
9.270000	584.053933
9.280000	559.093924
9.290000	530.025571
9.300000	510.646492
9.310000	489.948292
9.320000	468.249362
9.330000	432.185933
9.340000	401.963568
9.350000	378.389398
9.360000	363.366520
9.370000	345.909829
9.380000	338.519633
9.390000	410.939766
9.400000	531.412871
9.410000	675.007308
9.420000	725.407257
9.430000	681.744022
9.440000	570.829701
9.450000	450.584816
9.460000	359.550825
9.470000	292.991915
9.480000	258.323756
9.490000	242.695042
9.500000	225.761056
9.510000	179.060749
9.520000	123.685917
9.530000	78.103961
9.540000	57.285806
9.550000	40.065805
9.560000	17.604017
9.570000	-10.264139
9.580000	-29.354061
9.590000	-37.944096
