Time(s)	RED_denoised_wiener
0.000000	2466.305220
0.010000	2512.358663
0.020000	2533.930558
0.030000	2558.126847
0.040000	2574.345519
0.050000	2600.161105
0.060000	2631.889937
0.070000	2686.438905
0.080000	2743.184055
0.090000	2798.281350
0.100000	2836.631580
0.110000	2865.702508
0.120000	2887.914365
0.130000	2907.643872
0.140000	2926.035461
0.150000	2933.735931
0.160000	2935.373475
0.170000	2940.017675
0.180000	2953.880076
0.190000	2951.721742
0.200000	2940.984056
0.210000	2913.556276
0.220000	2832.180040
0.230000	2656.153358
0.240000	2420.495341
0.250000	2223.158938
0.260000	2105.108244
0.270000	2062.126895
0.280000	2090.270125
0.290000	2150.495520
0.300000	2207.270799
0.310000	2232.378794
0.320000	2242.889140
0.330000	2262.104517
0.340000	2284.920152
0.350000	2297.963577
0.360000	2290.780561
0.370000	2278.379276
0.380000	2275.124548
0.390000	2277.563343
0.400000	2280.279063
0.410000	2292.268183
0.420000	2316.897887
0.430000	2348.426345
0.440000	2376.982267
0.450000	2398.408975
0.460000	2413.554357
0.470000	2422.194472
0.480000	2430.949555
0.490000	2444.443946
0.500000	2462.800314
0.510000	2480.477574
0.520000	2498.467162
0.530000	2516.303770
0.540000	2526.576576
0.550000	2535.962023
0.560000	2555.823936
0.570000	2586.714013
0.580000	2603.789993
0.590000	2630.050837
0.600000	2655.784621
0.610000	2647.438891
0.620000	2557.856871
0.630000	2425.842960
0.640000	2308.089747
0.650000	2227.597548
0.660000	2183.364639
0.670000	2174.458468
0.680000	2189.715760
0.690000	2203.716061
0.700000	2205.540702
0.710000	2201.787235
0.720000	2208.154243
0.730000	2224.242582
0.740000	2234.820202
0.750000	2231.140322
0.760000	2215.940361
0.770000	2201.484950
0.780000	2181.428173
0.790000	2158.939181
0.800000	2159.391796
0.810000	2182.067915
0.820000	2219.748391
0.830000	2250.565222
0.840000	2273.903465
0.850000	2293.144899
0.860000	2305.109851
0.870000	2303.784048
0.880000	2297.420590
0.890000	2281.116795
0.900000	2271.518127
0.910000	2269.130694
0.920000	2260.300104
0.930000	2235.543891
0.940000	2199.506546
0.950000	2175.057287
0.960000	2163.033751
0.970000	2156.261065
0.980000	2145.933301
0.990000	2136.542617
1.000000	2125.184863
1.010000	2058.722921
1.020000	1907.869702
1.030000	1684.196742
1.040000	1435.272605
1.050000	1173.722517
1.060000	866.700210
1.070000	534.106315
1.080000	200.347885
1.090000	-163.658239
1.100000	-575.864490
1.110000	-991.383446
1.120000	-1371.696989
1.130000	-1672.921038
1.140000	-1894.898351
1.150000	-2069.240167
1.160000	-2217.934124
1.170000	-2338.348263
1.180000	-2407.918061
1.190000	-2439.893260
1.200000	-2445.570778
1.210000	-2455.166622
1.220000	-2489.877370
1.230000	-2546.052619
1.240000	-2609.504782
1.250000	-2653.923947
1.260000	-2690.589578
1.270000	-2720.790813
1.280000	-2751.047200
1.290000	-2767.629324
1.300000	-2778.594038
1.310000	-2789.492430
1.320000	-2795.144963
1.330000	-2801.755760
1.340000	-2795.010538
1.350000	-2783.120662
1.360000	-2762.217986
1.370000	-2738.891330
1.380000	-2730.500709
1.390000	-2728.973129
1.400000	-2701.097315
1.410000	-2673.604420
1.420000	-2687.453097
1.430000	-2782.621677
1.440000	-2899.927060
1.450000	-2994.069460
1.460000	-3061.242557
1.470000	-3094.571541
1.480000	-3090.966313
1.490000	-3068.197234
1.500000	-3055.121940
1.510000	-3063.846752
1.520000	-3076.600401
1.530000	-3074.232419
1.540000	-3067.569491
1.550000	-3062.013153
1.560000	-3072.309198
1.570000	-3088.806798
1.580000	-3107.813470
1.590000	-3124.012442
1.600000	-3134.074570
1.610000	-3130.292320
1.620000	-3119.797557
1.630000	-3103.644819
1.640000	-3088.961367
1.650000	-3074.733915
1.660000	-3059.551166
1.670000	-3038.909707
1.680000	-3006.566128
1.690000	-2968.884804
1.700000	-2928.670706
1.710000	-2902.331350
1.720000	-2880.807439
1.730000	-2863.237175
1.740000	-2837.016660
1.750000	-2807.632047
1.760000	-2782.338040
1.770000	-2750.753706
1.780000	-2698.758947
1.790000	-2643.739581
1.800000	-2599.950139
1.810000	-2554.430784
1.820000	-2534.031917
1.830000	-2573.258742
1.840000	-2681.829151
1.850000	-2790.989162
1.860000	-2850.797151
1.870000	-2876.351739
1.880000	-2867.845467
1.890000	-2838.204936
1.900000	-2801.687453
1.910000	-2766.499213
1.920000	-2729.958234
1.930000	-2677.888270
1.940000	-2617.080587
1.950000	-2564.433352
1.960000	-2533.656716
1.970000	-2527.077283
1.980000	-2521.293194
1.990000	-2498.869501
2.000000	-2465.459185
2.010000	-2434.149091
2.020000	-2409.068364
2.030000	-2381.863007
2.040000	-2358.185432
2.050000	-2339.034352
2.060000	-2327.111499
2.070000	-2317.991205
2.080000	-2299.488752
2.090000	-2276.133862
2.100000	-2238.301076
2.110000	-2204.829352
2.120000	-2168.851473
2.130000	-2129.684514
2.140000	-2095.903980
2.150000	-2057.967244
2.160000	-2019.470541
2.170000	-1979.382519
2.180000	-1942.198145
2.190000	-1902.249677
2.200000	-1845.382820
2.210000	-1758.266717
2.220000	-1692.560844
2.230000	-1682.718562
2.240000	-1769.572324
2.250000	-1897.388311
2.260000	-2010.400696
2.270000	-2084.295262
2.280000	-2113.431670
2.290000	-2098.036789
2.300000	-2041.623933
2.310000	-1974.671763
2.320000	-1912.260396
2.330000	-1864.112280
2.340000	-1797.935473
2.350000	-1740.201944
2.360000	-1703.393600
2.370000	-1697.774040
2.380000	-1706.934033
2.390000	-1715.504919
2.400000	-1709.969158
2.410000	-1683.076293
2.420000	-1641.867147
2.430000	-1604.167887
2.440000	-1569.204955
2.450000	-1531.738417
2.460000	-1499.737201
2.470000	-1470.103655
2.480000	-1436.419031
2.490000	-1390.289099
2.500000	-1342.646492
2.510000	-1297.281047
2.520000	-1255.694022
2.530000	-1213.750763
2.540000	-1172.582812
2.550000	-1144.077023
2.560000	-1124.255234
2.570000	-1098.534890
2.580000	-1067.797714
2.590000	-1025.132449
2.600000	-990.909729
2.610000	-964.500435
2.620000	-928.470516
2.630000	-884.415768
2.640000	-879.986358
2.650000	-963.494959
2.660000	-1082.387334
2.670000	-1161.340583
2.680000	-1189.461030
2.690000	-1195.457522
2.700000	-1187.307104
2.710000	-1162.040486
2.720000	-1135.701586
2.730000	-1117.099854
2.740000	-1096.541602
2.750000	-1059.642767
2.760000	-1026.639867
2.770000	-1019.353252
2.780000	-1036.504632
2.790000	-1057.507361
2.800000	-1064.874607
2.810000	-1067.229915
2.820000	-1066.389308
2.830000	-1070.466543
2.840000	-1076.035775
2.850000	-1083.878193
2.860000	-1090.500635
2.870000	-1098.135697
2.880000	-1088.739921
2.890000	-1057.927476
2.900000	-1020.194471
2.910000	-972.166876
2.920000	-918.166823
2.930000	-861.232702
2.940000	-818.674941
2.950000	-780.720651
2.960000	-742.025001
2.970000	-704.391278
2.980000	-667.198039
2.990000	-632.231411
3.000000	-611.227885
3.010000	-589.495015
3.020000	-565.790643
3.030000	-557.305120
3.040000	-547.088744
3.050000	-530.645105
3.060000	-540.985434
3.070000	-634.879142
3.080000	-772.779604
3.090000	-864.469243
3.100000	-896.613389
3.110000	-910.036424
3.120000	-916.194710
3.130000	-907.713279
3.140000	-891.309327
3.150000	-878.898857
3.160000	-875.231887
3.170000	-868.198931
3.180000	-848.656565
3.190000	-840.082405
3.200000	-850.532518
3.210000	-876.427372
3.220000	-889.166350
3.230000	-881.657828
3.240000	-868.352232
3.250000	-854.021050
3.260000	-839.352711
3.270000	-816.854067
3.280000	-790.877775
3.290000	-751.807210
3.300000	-708.277904
3.310000	-668.918371
3.320000	-639.160387
3.330000	-616.164373
3.340000	-583.830429
3.350000	-553.977454
3.360000	-525.287871
3.370000	-492.937460
3.380000	-455.912073
3.390000	-432.439682
3.400000	-422.308061
3.410000	-408.050010
3.420000	-380.214625
3.430000	-350.874404
3.440000	-305.536232
3.450000	-243.892153
3.460000	-199.103879
3.470000	-179.662640
3.480000	-173.769343
3.490000	-185.964598
3.500000	-274.067444
3.510000	-435.252674
3.520000	-592.647896
3.530000	-683.732268
3.540000	-719.916546
3.550000	-729.075256
3.560000	-727.972552
3.570000	-716.522864
3.580000	-705.208170
3.590000	-708.130686
3.600000	-706.503407
3.610000	-686.568617
3.620000	-670.045383
3.630000	-674.477378
3.640000	-698.350309
3.650000	-724.491417
3.660000	-746.165175
3.670000	-749.968065
3.680000	-730.148291
3.690000	-706.662198
3.700000	-685.573094
3.710000	-660.802458
3.720000	-623.803553
3.730000	-592.494129
3.740000	-557.102973
3.750000	-505.657714
3.760000	-472.674312
3.770000	-457.535313
3.780000	-447.355406
3.790000	-414.849745
3.800000	-391.005863
3.810000	-392.600724
3.820000	-376.299724
3.830000	-331.249008
3.840000	-273.809348
3.850000	-247.111421
3.860000	-218.250321
3.870000	-166.480331
3.880000	-106.260669
3.890000	-58.338774
3.900000	-25.694056
3.910000	-12.672388
3.920000	-63.708546
3.930000	-180.693057
3.940000	-311.712073
3.950000	-391.145806
3.960000	-413.349626
3.970000	-402.816871
3.980000	-379.777246
3.990000	-366.962820
4.000000	-347.898090
4.010000	-326.298033
4.020000	-286.766480
4.030000	-241.842901
4.040000	-220.479101
4.050000	-223.442399
4.060000	-250.320075
4.070000	-258.055922
4.080000	-252.091618
4.090000	-239.136507
4.100000	-226.327463
4.110000	-206.306623
4.120000	-176.037397
4.130000	-144.638555
4.140000	-113.855050
4.150000	-89.108097
4.160000	-67.109168
4.170000	-42.699093
4.180000	-9.486032
4.190000	32.232534
4.200000	74.992211
4.210000	112.375624
4.220000	140.018475
4.230000	158.742467
4.240000	174.602416
4.250000	190.644810
4.260000	207.390307
4.270000	228.767861
4.280000	257.386375
4.290000	289.418825
4.300000	320.259683
4.310000	335.255355
4.320000	347.422602
4.330000	365.962131
4.340000	352.669828
4.350000	252.838533
4.360000	81.323506
4.370000	-78.547835
4.380000	-172.218897
4.390000	-219.922907
4.400000	-238.534929
4.410000	-235.387516
4.420000	-221.977702
4.430000	-201.276903
4.440000	-185.226197
4.450000	-168.566357
4.460000	-155.948775
4.470000	-154.977000
4.480000	-178.130711
4.490000	-226.802709
4.500000	-278.358387
4.510000	-319.766075
4.520000	-347.055112
4.530000	-359.849689
4.540000	-354.519483
4.550000	-347.765269
4.560000	-339.713998
4.570000	-331.792957
4.580000	-314.653653
4.590000	-294.972260
4.600000	-283.377965
4.610000	-273.879241
4.620000	-263.884471
4.630000	-247.215419
4.640000	-233.205484
4.650000	-219.624596
4.660000	-205.300348
4.670000	-188.135029
4.680000	-178.532866
4.690000	-173.712077
4.700000	-177.218441
4.710000	-182.028623
4.720000	-178.665316
4.730000	-161.790756
4.740000	-149.276331
4.750000	-139.933778
4.760000	-116.943827
4.770000	-104.956284
4.780000	-158.458367
4.790000	-276.257125
4.800000	-397.907603
4.810000	-478.698119
4.820000	-535.622760
4.830000	-577.211809
4.840000	-598.730256
4.850000	-606.517514
4.860000	-613.617254
4.870000	-625.228915
4.880000	-623.200171
4.890000	-612.429831
4.900000	-605.229124
4.910000	-620.407074
4.920000	-654.621853
4.930000	-688.096589
4.940000	-709.795461
4.950000	-720.240842
4.960000	-716.381698
4.970000	-706.839043
4.980000	-693.370416
4.990000	-679.529614
5.000000	-655.743283
5.010000	-624.673423
5.020000	-595.553255
5.030000	-572.555143
5.040000	-541.062850
5.050000	-495.211540
5.060000	-448.041086
5.070000	-404.261182
5.080000	-362.083669
5.090000	-319.725765
5.100000	-283.562984
5.110000	-263.279824
5.120000	-249.068543
5.130000	-231.246732
5.140000	-202.659606
5.150000	-156.291975
5.160000	-113.405673
5.170000	-85.386818
5.180000	-53.812643
5.190000	-10.919765
5.200000	-3.109925
5.210000	-88.225059
5.220000	-236.573766
5.230000	-363.118032
5.240000	-430.908763
5.250000	-455.226246
5.260000	-449.977821
5.270000	-422.052393
5.280000	-379.787442
5.290000	-346.990316
5.300000	-332.959200
5.310000	-321.258914
5.320000	-298.205899
5.330000	-284.354962
5.340000	-293.500134
5.350000	-331.494662
5.360000	-370.767384
5.370000	-400.745219
5.380000	-413.104334
5.390000	-413.095933
5.400000	-418.538018
5.410000	-421.103066
5.420000	-429.412492
5.430000	-434.121097
5.440000	-446.737156
5.450000	-446.776839
5.460000	-438.187165
5.470000	-429.502755
5.480000	-437.048804
5.490000	-465.252214
5.500000	-510.610875
5.510000	-555.684917
5.520000	-582.559147
5.530000	-586.540754
5.540000	-572.920967
5.550000	-545.110190
5.560000	-505.999424
5.570000	-463.410529
5.580000	-407.746694
5.590000	-331.098115
5.600000	-262.310149
5.610000	-267.937123
5.620000	-352.082547
5.630000	-454.646207
5.640000	-511.222148
5.650000	-519.905261
5.660000	-493.446250
5.670000	-442.869760
5.680000	-383.391316
5.690000	-332.215107
5.700000	-297.352449
5.710000	-267.213861
5.720000	-224.337285
5.730000	-179.663047
5.740000	-152.383130
5.750000	-146.775534
5.760000	-136.381403
5.770000	-107.291925
5.780000	-64.132598
5.790000	-12.846534
5.800000	40.080868
5.810000	99.597161
5.820000	155.888112
5.830000	208.702194
5.840000	243.959867
5.850000	267.832756
5.860000	289.343442
5.870000	318.604382
5.880000	356.674299
5.890000	406.687935
5.900000	464.960059
5.910000	526.074441
5.920000	584.888347
5.930000	635.100275
5.940000	681.156061
5.950000	713.732260
5.960000	743.122348
5.970000	779.007975
5.980000	822.043298
5.990000	857.555095
6.000000	903.367712
6.010000	955.691089
6.020000	954.185743
6.030000	860.537200
6.040000	714.869518
6.050000	616.864541
6.060000	579.968096
6.070000	581.745658
6.080000	606.070319
6.090000	638.952961
6.100000	665.491004
6.110000	680.174351
6.120000	694.280067
6.130000	721.725909
6.140000	762.019774
6.150000	792.540880
6.160000	802.449996
6.170000	793.716479
6.180000	787.592583
6.190000	790.845648
6.200000	807.053708
6.210000	846.320645
6.220000	905.139290
6.230000	958.732993
6.240000	996.928007
6.250000	1022.845470
6.260000	1044.394066
6.270000	1063.940826
6.280000	1082.521803
6.290000	1102.706288
6.300000	1127.985186
6.310000	1155.788765
6.320000	1179.438152
6.330000	1193.542850
6.340000	1205.929348
6.350000	1221.290777
6.360000	1238.407263
6.370000	1262.727148
6.380000	1296.547146
6.390000	1344.507736
6.400000	1379.605044
6.410000	1403.706355
6.420000	1433.710091
6.430000	1450.144735
6.440000	1402.737305
6.450000	1270.336972
6.460000	1120.348712
6.470000	1022.209511
6.480000	981.459757
6.490000	972.338285
6.500000	982.282992
6.510000	993.796502
6.520000	1006.496621
6.530000	1018.260370
6.540000	1038.419184
6.550000	1066.374808
6.560000	1089.319750
6.570000	1093.498533
6.580000	1067.238276
6.590000	1035.401855
6.600000	1018.491074
6.610000	1021.609464
6.620000	1033.044588
6.630000	1048.518041
6.640000	1074.642206
6.650000	1104.737941
6.660000	1138.605747
6.670000	1170.624698
6.680000	1198.259792
6.690000	1221.868371
6.700000	1253.294628
6.710000	1295.102723
6.720000	1323.607121
6.730000	1348.779517
6.740000	1387.288243
6.750000	1408.343094
6.760000	1341.878845
6.770000	1191.794049
6.780000	1037.360902
6.790000	939.880275
6.800000	904.373200
6.810000	919.606857
6.820000	978.080923
6.830000	1046.614918
6.840000	1093.143885
6.850000	1104.694413
6.860000	1098.976938
6.870000	1097.135967
6.880000	1085.734441
6.890000	1060.956841
6.900000	1022.521335
6.910000	984.837870
6.920000	956.645900
6.930000	937.045774
6.940000	934.817164
6.950000	934.540754
6.960000	932.373850
6.970000	922.049447
6.980000	911.991332
6.990000	914.589550
7.000000	938.619465
7.010000	980.449545
7.020000	1021.560728
7.030000	1052.020522
7.040000	1077.900051
7.050000	1104.944742
7.060000	1133.578923
7.070000	1155.198348
7.080000	1174.314682
7.090000	1191.461898
7.100000	1218.435572
7.110000	1238.334153
7.120000	1235.580943
7.130000	1235.004871
7.140000	1245.035391
7.150000	1258.653908
7.160000	1193.637320
7.170000	1063.586779
7.180000	920.364920
7.190000	816.876361
7.200000	755.641241
7.210000	728.156022
7.220000	732.957168
7.230000	756.088215
7.240000	774.601816
7.250000	776.069279
7.260000	787.374312
7.270000	808.997588
7.280000	827.795704
7.290000	819.247507
7.300000	788.985984
7.310000	756.554905
7.320000	725.819003
7.330000	698.542195
7.340000	684.359155
7.350000	680.848404
7.360000	681.907744
7.370000	677.161262
7.380000	674.524797
7.390000	690.181552
7.400000	717.764466
7.410000	742.529877
7.420000	758.712993
7.430000	771.592548
7.440000	787.682069
7.450000	803.645128
7.460000	823.354377
7.470000	847.371843
7.480000	869.023162
7.490000	887.129793
7.500000	896.028885
7.510000	881.546729
7.520000	859.131433
7.530000	844.646705
7.540000	798.429798
7.550000	647.760243
7.560000	350.067187
7.570000	-84.706574
7.580000	-565.023915
7.590000	-938.981653
7.600000	-1171.673613
7.610000	-1291.505644
7.620000	-1306.517856
7.630000	-1253.799170
7.640000	-1182.716687
7.650000	-1112.330550
7.660000	-1051.208016
7.670000	-1016.874732
7.680000	-1006.297951
7.690000	-1016.073166
7.700000	-1023.991706
7.710000	-1036.673100
7.720000	-1054.657934
7.730000	-1072.245235
7.740000	-1074.621981
7.750000	-1054.494365
7.760000	-1020.285695
7.770000	-981.737095
7.780000	-950.277500
7.790000	-911.900221
7.800000	-876.659110
7.810000	-851.378323
7.820000	-851.722298
7.830000	-863.097396
7.840000	-875.789740
7.850000	-881.143660
7.860000	-880.208219
7.870000	-867.830699
7.880000	-844.633787
7.890000	-811.175533
7.900000	-788.105921
7.910000	-782.808715
7.920000	-763.796140
7.930000	-748.568021
7.940000	-787.568473
7.950000	-904.244858
7.960000	-1036.096469
7.970000	-1104.870196
7.980000	-1118.185453
7.990000	-1098.862444
8.000000	-1053.889469
8.010000	-997.533213
8.020000	-944.252551
8.030000	-910.200507
8.040000	-878.851077
8.050000	-834.528660
8.060000	-789.183988
8.070000	-760.531127
8.080000	-756.147515
8.090000	-762.133028
8.100000	-765.438433
8.110000	-764.758866
8.120000	-754.041276
8.130000	-732.056200
8.140000	-701.646830
8.150000	-668.686654
8.160000	-632.893543
8.170000	-596.314837
8.180000	-558.123618
8.190000	-513.924396
8.200000	-467.366885
8.210000	-424.197391
8.220000	-389.265280
8.230000	-356.765290
8.240000	-316.809868
8.250000	-268.348101
8.260000	-218.032827
8.270000	-171.585466
8.280000	-132.573545
8.290000	-100.802737
8.300000	-86.800513
8.310000	-68.587422
8.320000	-37.387001
8.330000	-30.822699
8.340000	-97.660470
8.350000	-222.538112
8.360000	-334.102985
8.370000	-394.000210
8.380000	-408.323526
8.390000	-389.803033
8.400000	-354.876634
8.410000	-329.621266
8.420000	-322.035572
8.430000	-331.404259
8.440000	-328.437934
8.450000	-302.226179
8.460000	-268.234392
8.470000	-252.064128
8.480000	-250.940972
8.490000	-247.850893
8.500000	-241.344760
8.510000	-239.651896
8.520000	-233.354264
8.530000	-210.098884
8.540000	-177.071336
8.550000	-134.513899
8.560000	-94.140203
8.570000	-54.212110
8.580000	-22.221084
8.590000	5.801303
8.600000	29.366087
8.610000	50.167819
8.620000	76.652387
8.630000	102.842120
8.640000	136.991990
8.650000	164.802161
8.660000	197.415975
8.670000	225.386963
8.680000	262.585456
8.690000	314.630699
8.700000	358.691866
8.710000	403.977640
8.720000	452.126159
8.730000	484.952279
8.740000	441.124223
8.750000	319.106893
8.760000	191.007080
8.770000	114.905638
8.780000	89.409364
8.790000	93.667171
8.800000	120.532305
8.810000	163.446789
8.820000	212.328820
8.830000	254.235252
8.840000	293.188752
8.850000	347.078735
8.860000	394.959068
8.870000	420.284800
8.880000	413.432329
8.890000	404.951913
8.900000	416.231238
8.910000	433.874407
8.920000	453.071410
8.930000	465.137369
8.940000	487.334051
8.950000	521.709842
8.960000	557.245519
8.970000	578.621975
8.980000	590.897841
8.990000	608.578350
9.000000	635.539339
9.010000	662.517079
9.020000	680.867716
9.030000	699.856904
9.040000	723.533732
9.050000	745.185859
9.060000	759.555814
9.070000	773.232803
9.080000	809.977218
9.090000	856.864518
9.100000	897.741983
9.110000	940.247163
9.120000	979.825537
9.130000	991.258678
9.140000	919.512836
9.150000	797.865051
9.160000	684.286932
9.170000	613.760578
9.180000	580.969294
9.190000	579.003999
9.200000	604.680802
9.210000	646.577013
9.220000	688.063537
9.230000	710.496657
9.240000	736.578625
9.250000	755.676829
9.260000	764.800075
9.270000	744.162866
9.280000	707.131181
9.290000	675.356873
9.300000	651.762663
9.310000	626.868562
9.320000	592.081589
9.330000	541.739903
9.340000	490.808690
9.350000	451.956372
9.360000	423.180179
9.370000	395.839202
9.380000	378.282834
9.390000	426.537386
9.400000	532.560493
9.410000	665.858112
9.420000	716.637790
9.430000	661.767520
9.440000	547.924041
9.450000	439.743359
9.460000	369.137398
9.470000	313.252310
9.480000	283.127251
9.490000	267.717217
9.500000	245.437972
9.510000	183.501034
9.520000	103.246914
9.530000	31.315491
