Time(s)	IR_denoised_median
0.000000	-622.870809
0.010000	-631.330272
0.020000	-631.330272
0.030000	-622.870809
0.040000	-617.356274
0.050000	-602.403447
0.060000	-584.816406
0.070000	-553.488345
0.080000	-506.338547
0.090000	-491.748592
0.100000	-482.689849
0.110000	-462.071942
0.120000	-443.159853
0.130000	-435.419707
0.140000	-398.527472
0.150000	-382.048240
0.160000	-362.728482
0.170000	-336.763093
0.180000	-297.955331
0.190000	-240.510964
0.200000	-204.339125
0.210000	-153.080275
0.220000	-94.875560
0.230000	-31.662462
0.240000	17.511600
0.250000	26.333834
0.260000	26.333834
0.270000	26.333834
0.280000	-131.035331
0.290000	-316.126742
0.300000	-454.679399
0.310000	-532.778951
0.320000	-562.420010
0.330000	-575.510726
0.340000	-580.119503
0.350000	-580.119503
0.360000	-580.119503
0.370000	-569.051893
0.380000	-527.522793
0.390000	-524.644289
0.400000	-524.644289
0.410000	-524.644289
0.420000	-530.002890
0.430000	-530.002890
0.440000	-530.002890
0.450000	-524.542169
0.460000	-459.430255
0.470000	-429.574491
0.480000	-390.971564
0.490000	-332.713987
0.500000	-282.634987
0.510000	-223.745518
0.520000	-159.368772
0.530000	-111.843279
0.540000	-48.966186
0.550000	12.912750
0.560000	77.479146
0.570000	140.635694
0.580000	172.843465
0.590000	236.600863
0.600000	288.908037
0.610000	331.679978
0.620000	378.997176
0.630000	429.708981
0.640000	475.057709
0.650000	527.789899
0.660000	585.068856
0.670000	585.068856
0.680000	585.068856
0.690000	530.604624
0.700000	355.466734
0.710000	170.548827
0.720000	9.687407
0.730000	-85.488314
0.740000	-135.264185
0.750000	-162.534293
0.760000	-218.294095
0.770000	-231.049308
0.780000	-231.049308
0.790000	-246.286290
0.800000	-248.483995
0.810000	-257.792808
0.820000	-258.742936
0.830000	-279.862476
0.840000	-301.544817
0.850000	-344.037845
0.860000	-358.151667
0.870000	-377.012019
0.880000	-377.012019
0.890000	-377.012019
0.900000	-377.012019
0.910000	-377.012019
0.920000	-356.750031
0.930000	-356.750031
0.940000	-356.750031
0.950000	-348.398040
0.960000	-347.136422
0.970000	-317.747725
0.980000	-317.747725
0.990000	-317.747725
1.000000	-284.376864
1.010000	-284.376864
1.020000	-284.376864
1.030000	-236.142277
1.040000	-201.357182
1.050000	-172.869844
1.060000	-122.263280
1.070000	-91.775061
1.080000	-21.872856
1.090000	27.007822
1.100000	96.816975
1.110000	145.578991
1.120000	209.741593
1.130000	287.063888
1.140000	318.530862
1.150000	329.802530
1.160000	344.335850
1.170000	366.511138
1.180000	373.277330
1.190000	378.101697
1.200000	397.031255
1.210000	424.257358
1.220000	424.257358
1.230000	424.257358
1.240000	301.345419
1.250000	177.902436
1.260000	29.361902
1.270000	-51.100957
1.280000	-51.100957
1.290000	-51.100957
1.300000	7.058325
1.310000	11.120116
1.320000	13.182621
1.330000	29.136398
1.340000	43.070023
1.350000	58.203725
1.360000	84.064833
1.370000	100.222581
1.380000	114.170718
1.390000	155.336624
1.400000	191.141808
1.410000	259.680849
1.420000	302.885418
1.430000	334.258851
1.440000	373.684310
1.450000	406.781064
1.460000	450.608429
1.470000	498.276929
1.480000	548.588162
1.490000	591.789831
1.500000	632.648850
1.510000	683.364766
1.520000	725.668009
1.530000	771.064174
1.540000	816.690929
1.550000	872.843469
1.560000	872.843469
1.570000	872.843469
1.580000	847.549623
1.590000	696.660260
1.600000	507.830233
1.610000	377.692255
1.620000	285.836666
1.630000	238.846163
1.640000	210.610064
1.650000	210.610064
1.660000	210.610064
1.670000	224.708968
1.680000	258.559631
1.690000	289.135198
1.700000	300.580032
1.710000	300.580032
1.720000	300.580032
1.730000	296.553908
1.740000	280.405680
1.750000	259.318270
1.760000	245.264276
1.770000	245.264276
1.780000	245.264276
1.790000	266.525394
1.800000	671.010304
1.810000	733.879734
1.820000	768.657387
1.830000	799.496457
1.840000	856.378085
1.850000	896.972622
1.860000	957.099398
1.870000	965.394693
1.880000	965.394693
1.890000	957.099398
1.900000	389.460662
1.910000	389.460662
1.920000	389.460662
1.930000	390.237229
1.940000	396.065826
1.950000	396.065826
1.960000	396.065826
1.970000	341.687230
1.980000	341.106915
1.990000	324.453360
2.000000	319.657305
2.010000	319.657305
2.020000	319.657305
2.030000	319.692196
2.040000	348.475640
2.050000	369.694868
2.060000	405.158866
2.070000	433.646081
2.080000	504.101902
2.090000	574.414653
2.100000	611.136551
2.110000	619.357244
2.120000	693.485045
2.130000	749.879687
2.140000	784.120343
2.150000	815.536925
2.160000	867.837564
2.170000	933.177733
2.180000	998.611332
2.190000	1056.905110
2.200000	1117.502097
2.210000	1149.593437
2.220000	1171.658446
2.230000	1171.658446
2.240000	1171.658446
2.250000	1034.057450
2.260000	846.070756
2.270000	652.868043
2.280000	492.537091
2.290000	366.652080
2.300000	286.600552
2.310000	284.097486
2.320000	275.346348
2.330000	275.346348
2.340000	275.346348
2.350000	304.368358
2.360000	322.834595
2.370000	322.834595
2.380000	322.834595
2.390000	287.712787
2.400000	258.680833
2.410000	257.293901
2.420000	233.188004
2.430000	230.713720
2.440000	230.713720
2.450000	230.713720
2.460000	258.556785
2.470000	301.718476
2.480000	334.482447
2.490000	350.546180
2.500000	394.626833
2.510000	443.265441
2.520000	484.882866
2.530000	544.163529
2.540000	604.103831
2.550000	670.203055
2.560000	726.345259
2.570000	801.446290
2.580000	870.518854
2.590000	929.828299
2.600000	984.798186
2.610000	1076.388672
2.620000	1131.846125
2.630000	1167.274191
2.640000	1196.970352
2.650000	1233.235626
2.660000	1243.583919
2.670000	1243.583919
2.680000	1243.583919
2.690000	1145.042326
2.700000	977.058293
2.710000	793.258249
2.720000	687.726026
2.730000	617.179216
2.740000	594.630796
2.750000	582.042467
2.760000	520.560973
2.770000	520.560973
2.780000	520.560973
2.790000	553.443626
2.800000	578.617369
2.810000	578.617369
2.820000	578.617369
2.830000	576.302864
2.840000	520.941512
2.850000	480.589063
2.860000	455.440206
2.870000	419.887597
2.880000	408.819679
2.890000	408.819679
2.900000	402.600956
2.910000	402.600956
2.920000	408.819679
2.930000	409.469230
2.940000	409.469230
2.950000	444.058953
2.960000	476.349480
2.970000	511.895106
2.980000	547.288574
2.990000	589.844172
3.000000	651.323351
3.010000	693.740072
3.020000	697.492087
3.030000	743.996889
3.040000	815.471809
3.050000	842.194480
3.060000	857.818873
3.070000	869.186565
3.080000	869.186565
3.090000	869.186565
3.100000	833.344596
3.110000	680.418518
3.120000	478.858076
3.130000	301.139186
3.140000	183.354688
3.150000	100.775798
3.160000	68.042358
3.170000	54.029158
3.180000	54.029158
3.190000	54.029158
3.200000	64.821596
3.210000	90.843143
3.220000	120.756687
3.230000	131.804109
3.240000	131.804109
3.250000	131.804109
3.260000	112.775446
3.270000	80.029162
3.280000	66.267918
3.290000	66.267918
3.300000	66.267918
3.310000	71.172772
3.320000	76.694782
3.330000	89.155297
3.340000	110.683569
3.350000	150.333263
3.360000	157.360863
3.370000	203.863149
3.380000	246.803250
3.390000	271.552295
3.400000	326.499874
3.410000	345.006574
3.420000	396.651618
3.430000	437.229231
3.440000	458.984283
3.450000	521.718152
3.460000	526.962870
3.470000	526.962870
3.480000	526.962870
3.490000	459.739884
3.500000	298.885129
3.510000	115.865923
3.520000	-32.866337
3.530000	-99.953138
3.540000	-108.732216
3.550000	-152.885762
3.560000	-152.885762
3.570000	-152.885762
3.580000	-148.997289
3.590000	-142.893160
3.600000	-129.959443
3.610000	-114.929159
3.620000	-72.984245
3.630000	-48.833473
3.640000	-17.841757
3.650000	0.218777
3.660000	48.552123
3.670000	88.123467
3.680000	102.085151
3.690000	120.234373
3.700000	196.763174
3.710000	234.006074
3.720000	267.885882
3.730000	309.788046
3.740000	352.033780
3.750000	352.033780
3.760000	352.033780
3.770000	284.554128
3.780000	129.700009
3.790000	-44.598735
3.800000	-209.654532
3.810000	-333.666335
3.820000	-381.924497
3.830000	-405.894157
3.840000	-420.886573
3.850000	-421.515215
3.860000	-421.515215
3.870000	-420.886573
3.880000	-365.633977
3.890000	-331.291661
3.900000	-330.715559
3.910000	-330.715559
3.920000	-330.715559
3.930000	-351.451226
3.940000	-352.685910
3.950000	-352.685910
3.960000	-352.685910
3.970000	-352.449914
3.980000	-352.294705
3.990000	-318.583633
4.000000	-268.282442
4.010000	-247.876869
4.020000	-209.782464
4.030000	-178.293041
4.040000	-135.091048
4.050000	-103.749943
4.060000	-33.120145
4.070000	-0.485416
4.080000	-0.485416
4.090000	-0.485416
4.100000	-174.756788
4.110000	-277.445120
4.120000	-332.244125
4.130000	-351.099354
4.140000	-373.734084
4.150000	-374.267252
4.160000	-374.267252
4.170000	-374.267252
4.180000	-354.585985
4.190000	-354.585985
4.200000	-354.585985
4.210000	-389.937103
4.220000	-423.312001
4.230000	-466.643967
4.240000	-498.849011
4.250000	-509.137070
4.260000	-509.137070
4.270000	-509.137070
4.280000	-488.440191
4.290000	-453.837956
4.300000	-424.656497
4.310000	-385.370286
4.320000	-348.878063
4.330000	-308.776816
4.340000	-256.019599
4.350000	-202.167195
4.360000	-141.039673
4.370000	-52.446369
4.380000	45.908884
4.390000	124.314173
4.400000	195.045450
4.410000	273.155018
4.420000	344.173597
4.430000	460.251488
4.440000	693.429009
4.450000	1198.648272
4.460000	1715.616544
4.470000	1972.669508
4.480000	1972.669508
4.490000	1972.669508
4.500000	1972.669508
4.510000	1882.224707
4.520000	1841.236536
4.530000	1532.481917
4.540000	746.320396
4.550000	34.343268
4.560000	-438.064641
4.570000	-746.385206
4.580000	-889.253492
4.590000	-889.253492
4.600000	-889.253492
4.610000	-870.713292
4.620000	-864.434832
4.630000	-779.761308
4.640000	-678.965278
4.650000	-643.791975
4.660000	-528.801000
4.670000	-262.956343
4.680000	52.961947
4.690000	466.356780
4.700000	988.696616
4.710000	1395.091065
4.720000	1536.710448
4.730000	1557.663732
4.740000	1586.343176
4.750000	1586.343176
4.760000	1557.663732
4.770000	1477.386082
4.780000	900.538837
4.790000	453.265573
4.800000	211.583197
4.810000	107.173874
4.820000	107.173874
4.830000	107.173874
4.840000	124.891758
4.850000	135.721564
4.860000	217.685907
4.870000	345.052456
4.880000	382.904666
4.890000	392.961156
4.900000	403.304209
4.910000	415.222998
4.920000	415.222998
4.930000	446.234542
4.940000	552.801276
4.950000	841.684456
4.960000	1182.795630
4.970000	1420.129601
4.980000	1580.357939
4.990000	1664.570501
5.000000	1714.096574
5.010000	1714.096574
5.020000	1714.096574
5.030000	1702.659643
5.040000	1534.318696
5.050000	1158.132038
5.060000	668.561630
5.070000	318.102533
5.080000	91.131920
5.090000	60.379164
5.100000	36.044329
5.110000	-25.548388
5.120000	-25.548388
5.130000	-25.548388
5.140000	44.081459
5.150000	64.656646
5.160000	70.052633
5.170000	93.922167
5.180000	175.098839
5.190000	371.300060
5.200000	681.042652
5.210000	1048.588845
5.220000	1383.952003
5.230000	1789.465147
5.240000	2161.354247
5.250000	2290.109698
5.260000	2334.827221
5.270000	2421.721920
5.280000	2461.978534
5.290000	2461.978534
5.300000	2461.978534
5.310000	2262.858781
5.320000	1875.706949
5.330000	1503.766930
5.340000	1220.133046
5.350000	938.291393
5.360000	561.585506
5.370000	267.622885
5.380000	102.730655
5.390000	-78.519520
5.400000	-118.238827
5.410000	-163.447584
5.420000	-207.735593
5.430000	-233.293520
5.440000	-233.293520
5.450000	-233.293520
5.460000	-165.080361
5.470000	2.830579
5.480000	207.042344
5.490000	435.578080
5.500000	827.627673
5.510000	1177.425082
5.520000	1422.653457
5.530000	1617.638421
5.540000	1655.281349
5.550000	1655.281349
5.560000	1655.281349
5.570000	1609.259782
5.580000	1483.197740
5.590000	1321.230852
5.600000	1109.586069
5.610000	751.014366
5.620000	331.518857
5.630000	261.656689
5.640000	261.656689
5.650000	261.656689
5.660000	261.656689
5.670000	278.052926
5.680000	304.563376
5.690000	349.407400
5.700000	434.674680
5.710000	445.708658
5.720000	459.168953
5.730000	445.708658
5.740000	434.674680
5.750000	403.122206
5.760000	242.508914
5.770000	21.733280
5.780000	-188.851182
5.790000	-421.907640
5.800000	-613.916773
5.810000	-713.552333
5.820000	-735.185307
5.830000	-735.185307
5.840000	-735.185307
5.850000	-666.408414
5.860000	-517.918855
5.870000	-401.907922
5.880000	-382.139283
5.890000	-369.219205
5.900000	-351.353493
5.910000	-325.440910
5.920000	-320.712638
5.930000	-310.014145
5.940000	-307.182208
5.950000	-306.747559
5.960000	-281.975965
5.970000	-236.425092
5.980000	-235.348103
5.990000	-233.346069
6.000000	-201.747561
6.010000	-188.459312
6.020000	-136.842375
6.030000	-62.754730
6.040000	-11.000306
6.050000	47.167693
6.060000	104.758879
6.070000	165.133259
6.080000	216.490585
6.090000	250.120913
6.100000	311.383839
6.110000	351.863489
6.120000	351.863489
6.130000	351.863489
6.140000	296.134539
6.150000	144.865602
6.160000	-13.063305
6.170000	-185.125233
6.180000	-292.014290
6.190000	-350.371651
6.200000	-381.972005
6.210000	-414.627853
6.220000	-419.768626
6.230000	-419.768626
6.240000	-419.768626
6.250000	-396.623981
6.260000	-394.086950
6.270000	-394.086950
6.280000	-394.086950
6.290000	-451.150489
6.300000	-451.504816
6.310000	-487.001781
6.320000	-487.001781
6.330000	-487.001781
6.340000	-482.238551
6.350000	-474.842322
6.360000	-436.559063
6.370000	-429.797334
6.380000	-429.797334
6.390000	-429.797334
6.400000	-791.692176
6.410000	-831.811755
6.420000	-849.863158
6.430000	-866.664996
6.440000	-874.966397
6.450000	-878.541021
6.460000	-874.966397
6.470000	-866.664996
6.480000	-827.255283
6.490000	-822.555224
6.500000	-781.972788
6.510000	-743.125976
6.520000	-693.562164
6.530000	-660.816407
6.540000	-607.984854
6.550000	-559.686561
6.560000	-505.322003
6.570000	-461.643467
6.580000	-441.660937
6.590000	-401.456511
6.600000	-347.150226
6.610000	-318.374951
6.620000	-267.413376
6.630000	-225.524499
6.640000	-225.524499
6.650000	-225.524499
6.660000	-249.666033
6.670000	-392.152159
6.680000	-544.620123
6.690000	-681.548745
6.700000	-791.630352
6.710000	-864.966708
6.720000	-941.796192
6.730000	-943.121175
6.740000	-943.121175
6.750000	-943.121175
6.760000	-913.782683
6.770000	-864.257126
6.780000	-854.618263
6.790000	-854.618263
6.800000	-854.618263
6.810000	-868.728135
6.820000	-873.051320
6.830000	-904.090581
6.840000	-910.164962
6.850000	-910.164962
6.860000	-910.164962
6.870000	-894.847950
6.880000	-875.794185
6.890000	-851.047276
6.900000	-814.436038
6.910000	-790.355057
6.920000	-730.904122
6.930000	-710.022560
6.940000	-643.964475
6.950000	-598.125331
6.960000	-538.778495
6.970000	-511.472019
6.980000	-511.472019
6.990000	-511.472019
7.000000	-827.678281
7.010000	-843.597821
7.020000	-843.597821
7.030000	-843.597821
7.040000	-837.170495
7.050000	-834.998711
7.060000	-791.325763
7.070000	-784.369705
7.080000	-736.080715
7.090000	-704.142605
7.100000	-658.624342
7.110000	-615.069927
7.120000	-565.132075
7.130000	-516.070039
7.140000	-457.621804
7.150000	-407.176408
7.160000	-341.029167
7.170000	-307.511315
7.180000	-271.237465
7.190000	-202.893949
7.200000	-150.689914
7.210000	-136.234932
7.220000	-136.234932
7.230000	-136.234932
7.240000	-200.907823
7.250000	-377.956100
7.260000	-563.756675
7.270000	-691.850900
7.280000	-793.907659
7.290000	-855.652295
7.300000	-895.180495
7.310000	-921.461724
7.320000	-926.493466
7.330000	-926.493466
7.340000	-926.493466
7.350000	-907.698686
7.360000	-881.377378
7.370000	-881.377378
7.380000	-881.377378
7.390000	-888.268554
7.400000	-915.684513
7.410000	-922.534013
7.420000	-922.534013
7.430000	-922.534013
7.440000	-920.333186
7.450000	-895.605761
7.460000	-866.881422
7.470000	-850.706900
7.480000	-780.235511
7.490000	-760.314564
7.500000	-723.150432
7.510000	-662.125300
7.520000	-608.203664
7.530000	-558.879231
7.540000	-508.282817
7.550000	-448.663176
7.560000	-379.416809
7.570000	-331.569223
7.580000	-305.501883
7.590000	-260.397378
7.600000	-193.727400
7.610000	-171.448923
7.620000	-150.689308
7.630000	-150.689308
7.640000	-150.689308
7.650000	-203.647320
7.660000	-368.160958
7.670000	-547.567875
7.680000	-679.412028
7.690000	-806.813745
7.700000	-977.711671
7.710000	-993.417568
7.720000	-999.501710
7.730000	-1006.718039
7.740000	-1006.718039
7.750000	-999.501710
7.760000	-978.821958
7.770000	-976.224445
7.780000	-919.794068
7.790000	-906.248908
7.800000	-846.290283
7.810000	-809.745368
7.820000	-759.527726
7.830000	-713.427350
7.840000	-649.691279
7.850000	-612.324572
7.860000	-537.593459
7.870000	-485.596353
7.880000	-435.307171
7.890000	-363.897428
7.900000	-313.232709
7.910000	-288.130779
7.920000	-221.996025
7.930000	-175.748170
7.940000	-117.679738
7.950000	-117.538241
7.960000	-48.845963
7.970000	-48.845963
7.980000	-48.845963
7.990000	-203.938048
8.000000	-801.412591
8.010000	-801.412591
8.020000	-801.412591
8.030000	-790.211626
8.040000	-721.367549
8.050000	-692.133678
8.060000	-630.890903
8.070000	-592.435011
8.080000	-523.148414
8.090000	-493.107848
8.100000	-430.046580
8.110000	-404.203539
8.120000	-334.560595
8.130000	-302.777158
8.140000	-261.751913
8.150000	-204.491721
8.160000	-151.048122
8.170000	-114.216791
8.180000	-72.279797
8.190000	-7.984209
8.200000	-7.984209
8.210000	-7.984209
8.220000	-67.023817
8.230000	-217.644879
8.240000	-374.202189
8.250000	-530.673224
8.260000	-609.212130
8.270000	-661.084840
8.280000	-672.070679
8.290000	-681.672293
8.300000	-681.672293
8.310000	-681.672293
8.320000	-673.646047
8.330000	-625.861127
8.340000	-611.731274
8.350000	-611.731274
8.360000	-611.731274
8.370000	-643.807325
8.380000	-661.290600
8.390000	-661.650795
8.400000	-662.597757
8.410000	-662.597757
8.420000	-661.290600
8.430000	-616.281708
8.440000	-584.095253
8.450000	-563.538323
8.460000	-514.513933
8.470000	-472.025392
8.480000	-430.463429
8.490000	-430.463429
8.500000	-420.818496
8.510000	-366.593665
8.520000	-348.494349
8.530000	-315.307547
8.540000	-292.654567
8.550000	-267.425362
8.560000	-84.374241
8.570000	156.392175
8.580000	377.538263
8.590000	576.748621
8.600000	584.655233
8.610000	584.655233
8.620000	576.748621
8.630000	569.284653
8.640000	526.930710
8.650000	368.567191
8.660000	252.867625
8.670000	229.593402
8.680000	229.593402
8.690000	229.593402
8.700000	523.121432
8.710000	1026.198920
8.720000	1398.256329
8.730000	1697.883685
8.740000	1799.869573
8.750000	1884.390631
8.760000	1986.066672
8.770000	2069.314440
8.780000	2069.314440
8.790000	2069.314440
8.800000	1955.215636
8.810000	1781.567619
8.820000	1512.378500
8.830000	1026.571999
8.840000	688.860643
8.850000	567.747966
8.860000	469.608091
8.870000	341.054412
8.880000	341.054412
8.890000	339.289636
8.900000	335.929579
8.910000	328.989633
8.920000	328.989633
8.930000	328.989633
8.940000	449.744769
8.950000	646.081087
8.960000	891.895095
8.970000	1168.178365
8.980000	1563.326832
8.990000	1905.547508
9.000000	2177.168437
9.010000	2350.876792
9.020000	2530.356501
9.030000	2530.356501
9.040000	2530.356501
9.050000	2358.510900
9.060000	1957.482145
9.070000	1619.925329
9.080000	1392.348208
9.090000	1005.458981
9.100000	236.663361
9.110000	236.663361
9.120000	236.663361
9.130000	272.414706
9.140000	399.770221
9.150000	434.860177
9.160000	560.871275
9.170000	644.856038
9.180000	644.856038
9.190000	644.856038
9.200000	408.846588
9.210000	219.696062
9.220000	210.329355
9.230000	198.656233
9.240000	177.277172
9.250000	177.277172
9.260000	177.277172
9.270000	188.725347
9.280000	197.825152
9.290000	199.537697
9.300000	199.537697
9.310000	197.825152
9.320000	188.508814
9.330000	139.959504
9.340000	100.990856
9.350000	55.190826
9.360000	32.584275
9.370000	32.201793
9.380000	32.201793
9.390000	32.201793
9.400000	46.258570
9.410000	57.535490
9.420000	89.728183
9.430000	96.564407
9.440000	151.509497
9.450000	177.161661
9.460000	208.542813
9.470000	208.582275
9.480000	208.582275
9.490000	208.542813
9.500000	-319.428509
9.510000	-330.997497
9.520000	-367.935414
9.530000	-377.381847
9.540000	-387.793778
9.550000	-410.315608
9.560000	-410.315608
9.570000	-410.315608
9.580000	-406.484224
9.590000	-402.278499
9.600000	-374.364659
9.610000	-363.212384
9.620000	-322.024847
9.630000	-296.419640
9.640000	-272.541341
9.650000	-239.655226
9.660000	-166.020002
9.670000	-112.164200
9.680000	-112.164200
9.690000	-112.164200
9.700000	-121.942398
9.710000	-235.638269
9.720000	-296.851883
9.730000	-363.832007
9.740000	-406.539526
9.750000	-412.093613
9.760000	-418.362448
9.770000	-418.362448
9.780000	-418.362448
9.790000	-393.384491
9.800000	-59.363800
9.810000	-10.125010
9.820000	50.056738
9.830000	63.141428
9.840000	115.853406
9.850000	167.035078
9.860000	194.681051
9.870000	194.681051
9.880000	194.681051
9.890000	102.690631
9.900000	-587.259595
9.910000	-594.827809
9.920000	-617.931886
9.930000	-634.232913
9.940000	-638.020804
9.950000	-680.272086
9.960000	-688.133985
9.970000	-697.145813
9.980000	-697.145813
9.990000	-697.145813
10.000000	-668.184663
10.010000	-645.203055
10.020000	-644.752175
10.030000	-598.134754
10.040000	-557.588763
10.050000	-531.413263
10.060000	-476.858329
10.070000	-420.906149
10.080000	-386.138680
10.090000	-315.202372
10.100000	-294.073014
10.110000	-294.073014
10.120000	-294.073014
10.130000	-425.505727
10.140000	-518.308844
10.150000	-569.132330
10.160000	-573.567731
10.170000	-580.516813
10.180000	-580.516813
10.190000	-573.567731
10.200000	-538.481715
10.210000	-500.613735
10.220000	-497.500915
10.230000	-497.500915
10.240000	-497.500915
10.250000	-521.041808
10.260000	-537.394974
10.270000	-537.394974
10.280000	-537.394974
10.290000	-536.755966
10.300000	-523.282280
10.310000	-522.317018
10.320000	-510.748345
10.330000	-475.491215
10.340000	-411.928961
10.350000	-359.281788
10.360000	-284.396199
10.370000	-242.336894
10.380000	-198.639705
10.390000	-127.437710
10.400000	-72.095388
10.410000	-21.410609
10.420000	52.472790
10.430000	105.396892
10.440000	154.186728
10.450000	216.184151
10.460000	256.359964
10.470000	256.359964
10.480000	256.359964
10.490000	164.708327
10.500000	3.897063
10.510000	-156.312088
10.520000	-283.690104
10.530000	-347.357324
10.540000	-395.515524
10.550000	-407.325512
10.560000	-407.325512
10.570000	-407.325512
10.580000	-391.085138
10.590000	-344.388067
10.600000	-310.883391
10.610000	-310.883391
10.620000	-310.883391
10.630000	-326.390674
10.640000	-352.852624
10.650000	-386.375597
10.660000	-413.356686
10.670000	-413.356686
10.680000	-413.356686
10.690000	-391.211187
10.700000	-346.152304
10.710000	-332.229435
10.720000	-279.044111
10.730000	-246.625291
10.740000	-209.720956
10.750000	-151.062229
10.760000	-108.568421
10.770000	-76.397901
10.780000	-50.439450
10.790000	-10.708669
10.800000	37.601794
10.810000	95.980454
10.820000	120.499960
10.830000	153.889361
10.840000	191.249203
10.850000	191.249203
10.860000	191.249203
10.870000	78.047105
10.880000	-89.894081
10.890000	-250.631719
10.900000	-393.620926
10.910000	-495.292083
10.920000	-563.451146
10.930000	-580.336214
10.940000	-589.925643
10.950000	-598.818097
10.960000	-598.818097
10.970000	-598.818097
10.980000	-572.362001
10.990000	-559.012474
11.000000	-559.012474
11.010000	-559.012474
11.020000	-592.430428
11.030000	-622.124881
11.040000	-643.972205
11.050000	-645.362760
11.060000	-645.362760
11.070000	-645.362760
11.080000	-629.277405
11.090000	-629.277405
11.100000	-629.277405
11.110000	-679.514890
11.120000	-739.276478
11.130000	-767.181801
11.140000	-772.446814
11.150000	-781.910733
11.160000	-781.910733
11.170000	-781.910733
11.180000	-740.780997
11.190000	-725.395181
11.200000	-725.395181
11.210000	-725.395181
11.220000	-763.851633
11.230000	-792.834092
11.240000	-792.834092
11.250000	-792.834092
11.260000	-790.184644
11.270000	-767.606477
11.280000	-751.467013
11.290000	-726.274228
11.300000	-706.842687
11.310000	-675.863540
11.320000	-636.283506
11.330000	-591.463217
11.340000	-553.757968
11.350000	-502.982165
11.360000	-442.304928
11.370000	-386.541152
11.380000	-345.846842
11.390000	-268.938837
11.400000	-211.690207
11.410000	-170.179119
11.420000	-112.463128
11.430000	-44.529783
11.440000	21.741878
11.450000	73.110234
11.460000	134.045200
11.470000	134.045200
11.480000	134.045200
11.490000	93.122578
11.500000	-44.252894
11.510000	-236.473455
11.520000	-407.597143
11.530000	-529.203082
11.540000	-607.037997
11.550000	-630.891326
11.560000	-655.337135
11.570000	-657.665307
11.580000	-664.493524
11.590000	-692.496409
11.600000	-692.496409
11.610000	-701.186210
11.620000	-694.848525
11.630000	-694.084610
11.640000	-694.084610
11.650000	-694.084610
11.660000	-694.084610
11.670000	-693.055591
11.680000	-688.082571
11.690000	-667.900510
11.700000	-648.732261
11.710000	-619.500620
11.720000	-581.281759
11.730000	-560.165511
11.740000	-520.657796
11.750000	-454.901595
11.760000	-396.141609
11.770000	-345.544057
11.780000	-295.595659
11.790000	-262.244624
11.800000	-219.928954
11.810000	-151.962410
11.820000	-89.385761
11.830000	-34.593529
11.840000	23.202044
11.850000	92.778655
11.860000	173.773987
11.870000	243.098076
11.880000	287.382709
11.890000	364.623998
11.900000	428.716415
11.910000	503.352946
11.920000	583.984282
11.930000	583.984282
11.940000	583.984282
11.950000	518.885977
11.960000	361.473934
11.970000	177.720595
11.980000	35.915016
11.990000	-65.622446
12.000000	-100.552041
12.010000	-122.168920
12.020000	-122.168920
12.030000	-122.168920
12.040000	-117.502478
12.050000	-70.708678
12.060000	38.065210
12.070000	209.959507
12.080000	415.567012
12.090000	677.789769
12.100000	848.681918
12.110000	848.681918
12.120000	848.681918
12.130000	790.581486
12.140000	768.617534
12.150000	656.687143
12.160000	522.105425
12.170000	324.518473
12.180000	138.931907
12.190000	8.283825
12.200000	-80.372659
12.210000	-171.013256
12.220000	-171.013256
12.230000	-171.013256
12.240000	-95.845470
12.250000	-63.480283
12.260000	11.403200
12.270000	126.929073
12.280000	317.777504
12.290000	583.266887
12.300000	878.055076
12.310000	1223.815040
12.320000	1622.304569
12.330000	1974.112283
12.340000	2171.558641
12.350000	2227.768932
12.360000	2227.768932
12.370000	2227.768932
12.380000	2150.180785
12.390000	1927.299226
12.400000	1716.437984
12.410000	1389.737169
12.420000	1092.474860
12.430000	835.836518
12.440000	467.091440
12.450000	250.110210
12.460000	171.978123
12.470000	116.129726
12.480000	34.989060
12.490000	34.989060
12.500000	34.989060
12.510000	185.137439
12.520000	479.864225
12.530000	695.060156
12.540000	893.559341
12.550000	1144.030923
12.560000	1144.030923
12.570000	1144.030923
12.580000	1130.120601
12.590000	1087.387871
12.600000	1012.956458
12.610000	923.270168
12.620000	850.869676
12.630000	783.061510
12.640000	740.909021
12.650000	619.540496
12.660000	545.617945
12.670000	410.997214
12.680000	410.997214
12.690000	410.997214
12.700000	449.812954
12.710000	465.591482
12.720000	493.175673
12.730000	524.110787
12.740000	621.206758
12.750000	700.998093
12.760000	851.744151
12.770000	986.438752
12.780000	986.438752
12.790000	986.438752
12.800000	9.247122
12.810000	-80.851096
12.820000	-146.577556
12.830000	-146.577556
12.840000	-146.577556
12.850000	-144.434688
12.860000	-139.262743
12.870000	-63.567140
12.880000	7.208925
12.890000	153.663508
12.900000	1026.545245
12.910000	1026.545245
12.920000	1026.545245
12.930000	691.492038
12.940000	539.452860
12.950000	479.842922
12.960000	479.842922
12.970000	519.409973
12.980000	519.409973
12.990000	570.696344
13.000000	646.950306
13.010000	701.093898
13.020000	730.648979
13.030000	818.762476
13.040000	830.785306
13.050000	926.274956
13.060000	967.139949
13.070000	991.225142
13.080000	1007.977781
13.090000	1034.425126
13.100000	1070.805234
13.110000	1126.492685
13.120000	1176.047321
13.130000	1248.827679
13.140000	1290.093960
13.150000	1338.454528
13.160000	1357.745317
13.170000	1357.745317
13.180000	1357.745317
13.190000	1209.154669
13.200000	1063.771122
13.210000	899.847517
13.220000	737.947906
13.230000	688.822708
13.240000	645.561370
13.250000	645.155313
13.260000	645.155313
13.270000	645.155313
13.280000	681.066122
13.290000	741.544801
13.300000	768.901984
13.310000	768.901984
13.320000	768.901984
13.330000	766.283340
13.340000	734.513433
13.350000	703.770151
13.360000	698.377519
13.370000	698.377519
13.380000	698.377519
13.390000	702.508431
13.400000	707.422411
13.410000	722.938848
13.420000	748.465366
13.430000	788.414081
13.440000	849.545617
13.450000	867.725211
13.460000	909.013840
13.470000	956.839523
13.480000	956.839523
13.490000	956.839523
13.500000	860.472221
13.510000	643.433191
13.520000	467.933512
13.530000	349.818952
13.540000	250.272969
13.550000	230.507467
13.560000	230.507467
13.570000	230.507467
13.580000	241.637722
13.590000	293.824171
13.600000	298.606099
13.610000	298.606099
13.620000	298.606099
13.630000	257.817784
13.640000	244.438890
13.650000	190.923610
13.660000	157.647830
13.670000	129.847559
13.680000	122.390035
13.690000	122.390035
13.700000	122.390035
13.710000	155.538505
13.720000	157.723749
13.730000	191.691161
13.740000	238.856441
13.750000	267.830696
13.760000	314.194808
13.770000	368.868990
13.780000	399.490335
13.790000	438.104983
13.800000	488.729352
13.810000	514.248157
13.820000	530.132631
13.830000	562.439911
13.840000	604.465101
13.850000	629.595827
13.860000	670.980212
13.870000	670.980212
13.880000	670.980212
13.890000	659.500570
13.900000	519.287046
13.910000	324.533282
13.920000	129.085943
13.930000	-33.473631
13.940000	-140.128506
13.950000	-206.571559
13.960000	-229.275227
13.970000	-285.877845
13.980000	-293.968154
13.990000	-323.589014
14.000000	-495.405306
14.010000	-495.405306
14.020000	-495.405306
14.030000	-479.479884
14.040000	-446.796464
14.050000	-424.298906
14.060000	-393.050243
14.070000	-362.184004
14.080000	-327.256049
14.090000	-305.117248
14.100000	-277.354993
14.110000	-227.044905
14.120000	-186.580049
14.130000	-170.915654
14.140000	-119.589279
14.150000	-108.151615
14.160000	-81.230889
14.170000	-49.561436
14.180000	-19.854067
14.190000	-19.854067
14.200000	-19.854067
14.210000	-59.352010
14.220000	-206.076394
14.230000	-360.692761
14.240000	-514.689340
14.250000	-619.919534
14.260000	-678.435362
14.270000	-711.193747
14.280000	-711.193747
14.290000	-711.193747
14.300000	-708.904453
14.310000	-698.704207
14.320000	-665.435440
14.330000	-665.435440
14.340000	-665.435440
14.350000	-674.887149
14.360000	-712.942429
14.370000	-752.734316
14.380000	-798.038671
14.390000	-817.483931
14.400000	-817.483931
14.410000	-817.483931
14.420000	-807.520291
14.430000	-773.888801
14.440000	-739.721053
14.450000	-698.601638
14.460000	-654.952281
14.470000	-601.282686
14.480000	-552.245477
14.490000	-495.892039
14.500000	-448.618104
14.510000	-393.411427
14.520000	-345.080127
14.530000	-289.854527
14.540000	-221.565432
14.550000	-189.452418
14.560000	-149.798228
14.570000	-95.152921
14.580000	-95.152921
14.590000	-95.152921
14.600000	-144.612602
14.610000	-290.153477
14.620000	-469.236176
14.630000	-652.424903
14.640000	-753.708715
14.650000	-830.093675
14.660000	-880.025136
14.670000	-913.799899
14.680000	-932.320830
14.690000	-932.320830
14.700000	-932.320830
14.710000	-917.080795
14.720000	-910.997198
14.730000	-910.997198
14.740000	-910.997198
14.750000	-932.695885
14.760000	-960.813477
14.770000	-979.889124
14.780000	-979.889124
14.790000	-979.889124
14.800000	-959.689488
14.810000	-950.143743
14.820000	-944.630378
14.830000	-920.232407
14.840000	-862.601872
14.850000	-829.526339
14.860000	-786.326610
14.870000	-738.939099
14.880000	-682.027721
14.890000	-631.417366
14.900000	-579.672380
14.910000	-525.921141
14.920000	-481.357698
14.930000	-420.331276
14.940000	-372.201698
14.950000	-336.667565
14.960000	-281.966938
14.970000	-249.211683
14.980000	-190.495381
14.990000	-190.495381
15.000000	-190.495381
15.010000	-204.718437
15.020000	-358.627163
15.030000	-552.230142
15.040000	-716.175721
15.050000	-845.927691
15.060000	-950.770068
15.070000	-995.510920
15.080000	-1041.637791
15.090000	-1064.866401
15.100000	-1066.558850
15.110000	-1066.558850
15.120000	-1066.558850
15.130000	-1054.655013
15.140000	-1017.343468
15.150000	-965.235951
15.160000	-933.202322
15.170000	-912.705219
15.180000	-855.960872
15.190000	-821.473836
15.200000	-759.429258
15.210000	-714.509258
15.220000	-693.801565
15.230000	-628.342887
15.240000	-559.483850
15.250000	-514.143773
15.260000	-461.012995
15.270000	-413.072991
15.280000	-395.582433
15.290000	-342.758618
15.300000	-277.401516
15.310000	-237.492168
15.320000	-212.092346
15.330000	-173.653093
15.340000	-173.653093
15.350000	-173.653093
15.360000	-282.889655
15.370000	-462.558826
15.380000	-641.276333
15.390000	-752.483042
15.400000	-864.037296
15.410000	-915.058627
15.420000	-959.117427
15.430000	-990.475993
15.440000	-990.475993
15.450000	-990.475993
15.460000	-982.287672
15.470000	-966.338958
15.480000	-966.338958
15.490000	-966.338958
15.500000	-989.704222
15.510000	-1002.780383
15.520000	-1036.398378
15.530000	-1037.491121
15.540000	-1039.850108
15.550000	-1039.850108
15.560000	-1039.850108
15.570000	-1027.874806
15.580000	-1017.350647
15.590000	-968.829162
15.600000	-517.960075
15.610000	-464.983151
15.620000	-428.324298
15.630000	-372.087039
15.640000	-329.879620
15.650000	-283.047308
15.660000	-262.135706
15.670000	-262.135706
15.680000	-262.135706
15.690000	-394.034192
15.700000	-742.061158
15.710000	-742.119308
15.720000	-747.622483
15.730000	-754.082531
15.740000	-757.109505
15.750000	-760.842140
15.760000	-760.842140
15.770000	-760.842140
15.780000	-752.202519
15.790000	-696.299103
15.800000	-691.547194
15.810000	-648.234535
15.820000	-606.242651
15.830000	-548.006693
15.840000	-504.064391
15.850000	-445.609680
15.860000	-399.031200
15.870000	-335.052901
15.880000	-295.185197
15.890000	-217.203618
15.900000	582.375086
15.910000	1335.667685
15.920000	1721.170049
15.930000	1913.911775
15.940000	2041.845080
15.950000	2041.845080
15.960000	2041.845080
15.970000	1965.261931
15.980000	1621.182173
15.990000	1425.789192
16.000000	676.355404
16.010000	163.429334
16.020000	51.821744
16.030000	-38.414744
16.040000	-38.414744
16.050000	-38.414744
16.060000	154.873347
16.070000	222.295012
16.080000	229.488525
16.090000	266.670745
16.100000	423.114876
16.110000	705.834559
16.120000	959.309076
16.130000	1302.767500
16.140000	1664.994951
16.150000	1985.745546
16.160000	1985.745546
16.170000	1985.745546
16.180000	1787.479962
16.190000	1394.090844
16.200000	924.123997
16.210000	511.738881
16.220000	240.645790
16.230000	119.196415
16.240000	-36.343369
16.250000	-36.343369
16.260000	-49.380557
16.270000	-49.380557
16.280000	-42.478783
16.290000	-1.701654
16.300000	358.581086
16.310000	358.581086
16.320000	358.581086
16.330000	225.169784
16.340000	210.943879
16.350000	188.340675
16.360000	188.340675
16.370000	225.169784
16.380000	270.290196
16.390000	461.108107
16.400000	534.910866
16.410000	571.985988
16.420000	610.434864
16.430000	742.030607
16.440000	1005.833530
16.450000	1321.767575
16.460000	1614.264258
16.470000	2059.214988
16.480000	2533.894704
16.490000	2863.539451
16.500000	2863.539451
16.510000	2863.539451
16.520000	2757.523812
16.530000	2435.222474
16.540000	1982.090459
16.550000	1440.327549
16.560000	923.874314
16.570000	704.887308
16.580000	576.362205
16.590000	430.740238
16.600000	374.457832
16.610000	323.770566
16.620000	323.770566
16.630000	291.758932
16.640000	291.758932
16.650000	291.758932
16.660000	239.478823
16.670000	239.478823
16.680000	239.478823
16.690000	326.171223
16.700000	581.480471
16.710000	784.297530
16.720000	1036.524826
16.730000	1487.573375
16.740000	1771.171781
16.750000	1836.134630
16.760000	1836.134630
16.770000	1836.134630
16.780000	1695.520503
16.790000	1396.617548
16.800000	1010.272355
16.810000	787.613694
16.820000	787.613694
16.830000	760.518833
16.840000	760.518833
16.850000	782.512186
16.860000	826.310963
16.870000	867.960988
16.880000	902.477547
16.890000	919.073493
16.900000	919.073493
16.910000	903.041245
16.920000	903.041245
16.930000	770.773537
16.940000	610.980168
16.950000	431.146297
16.960000	326.174173
16.970000	326.174173
16.980000	326.174173
16.990000	370.949507
17.000000	523.712137
17.010000	632.493343
17.020000	662.463391
17.030000	714.422903
17.040000	768.897241
17.050000	768.897241
17.060000	768.897241
17.070000	750.369111
17.080000	675.883193
17.090000	626.401719
17.100000	562.230281
17.110000	532.689769
17.120000	517.396575
17.130000	506.667665
17.140000	506.667665
17.150000	506.667665
17.160000	523.145306
17.170000	567.246978
17.180000	599.564054
17.190000	608.372221
17.200000	637.142524
17.210000	648.762713
17.220000	656.304642
17.230000	686.488814
17.240000	693.984638
17.250000	699.965643
17.260000	731.207310
17.270000	734.608777
17.280000	734.608777
17.290000	734.608777
17.300000	629.651237
17.310000	491.259087
17.320000	334.697632
17.330000	185.942303
17.340000	114.867704
17.350000	80.323296
17.360000	64.103123
17.370000	46.702661
17.380000	46.702661
17.390000	46.702661
17.400000	68.618281
17.410000	100.841683
17.420000	100.841683
17.430000	100.841683
17.440000	71.223234
17.450000	-37.901352
17.460000	-135.114447
17.470000	-135.114447
17.480000	-135.114447
17.490000	-78.295446
17.500000	-37.484259
17.510000	3.842177
17.520000	51.043269
17.530000	73.877689
17.540000	106.743616
17.550000	154.827860
17.560000	210.402991
17.570000	235.689600
17.580000	235.689600
17.590000	235.689600
17.600000	137.113580
17.610000	-26.323734
17.620000	-114.831454
17.630000	-194.980309
17.640000	-218.469652
17.650000	-266.000261
17.660000	-297.786389
17.670000	-297.786389
17.680000	-302.043720
17.690000	-317.148468
17.700000	-326.686057
17.710000	-326.686057
17.720000	-326.686057
17.730000	-292.323665
17.740000	-248.897138
17.750000	-201.675818
17.760000	-165.146880
17.770000	-137.998298
17.780000	-73.285386
17.790000	-35.641710
17.800000	1.812607
17.810000	40.630093
17.820000	109.970831
17.830000	128.582669
17.840000	160.511783
17.850000	160.511783
17.860000	160.511783
17.870000	113.381909
17.880000	-20.000843
17.890000	-197.560394
17.900000	-366.702433
17.910000	-491.567648
17.920000	-549.459538
17.930000	-622.883585
17.940000	-652.848122
17.950000	-667.459223
17.960000	-667.459223
17.970000	-667.459223
17.980000	-700.272520
17.990000	-701.828059
18.000000	-714.989830
18.010000	-714.989830
18.020000	-714.989830
18.030000	-686.662864
18.040000	-636.669945
18.050000	-610.218154
18.060000	-565.134331
18.070000	-520.967555
18.080000	-483.586042
18.090000	-450.719817
18.100000	-418.057668
18.110000	-353.421365
18.120000	-304.775539
18.130000	-266.000794
18.140000	-266.000794
18.150000	-266.000794
18.160000	-366.009864
18.170000	-518.687360
18.180000	-668.531058
18.190000	-759.491075
18.200000	-847.387982
18.210000	-866.644320
18.220000	-882.441980
18.230000	-882.441980
18.240000	-874.925284
18.250000	-866.644320
18.260000	-810.975910
18.270000	-778.301191
18.280000	-778.301191
18.290000	-778.301191
18.300000	-787.987622
18.310000	-807.789122
18.320000	-817.812572
18.330000	-817.812572
18.340000	-817.812572
18.350000	-805.343990
18.360000	-795.527154
18.370000	-755.763539
18.380000	-740.427555
18.390000	-673.540007
18.400000	-229.951140
18.410000	-229.951140
18.420000	-229.951140
18.430000	-378.595638
18.440000	-576.271042
18.450000	-709.260369
18.460000	-833.089932
18.470000	-867.586706
18.480000	-867.586706
18.490000	-867.586706
18.500000	-588.303785
18.510000	-506.759984
18.520000	-488.970970
18.530000	-420.352602
18.540000	-367.170207
18.550000	-300.719845
18.560000	-249.562318
18.570000	-214.045315
18.580000	-214.045315
18.590000	-214.045315
18.600000	-467.211655
18.610000	-467.211655
18.620000	-467.211655
18.630000	-429.425973
18.640000	-346.686337
18.650000	-317.227737
18.660000	-277.754115
18.670000	-277.754115
18.680000	-277.754115
18.690000	-318.372538
18.700000	-464.886885
18.710000	-629.598874
18.720000	-787.858847
18.730000	-899.820906
18.740000	-970.992896
18.750000	-990.034263
18.760000	-1005.328660
18.770000	-1023.378040
18.780000	-1023.378040
18.790000	-1023.378040
18.800000	-998.032253
18.810000	-985.935470
18.820000	-985.935470
18.830000	-985.935470
18.840000	-989.689890
18.850000	-1013.591680
18.860000	-1035.029924
18.870000	-1035.029924
18.880000	-1035.029924
18.890000	-1015.896542
18.900000	-987.363241
18.910000	-959.577487
18.920000	-931.704453
18.930000	-902.294774
18.940000	-857.048363
18.950000	-830.183272
18.960000	-750.139652
18.970000	-719.588161
18.980000	-669.797971
18.990000	-624.284145
19.000000	-556.356063
19.010000	-552.328102
19.020000	-501.410316
19.030000	-424.771939
19.040000	-354.532005
19.050000	-333.281817
19.060000	-259.294505
19.070000	-251.434668
19.080000	-251.434668
19.090000	-251.434668
19.100000	-731.738318
19.110000	-731.738318
19.120000	-731.738318
19.130000	-710.223443
19.140000	-710.223443
19.150000	-710.223443
19.160000	-720.291245
19.170000	-720.291245
19.180000	-720.291245
19.190000	-715.554227
19.200000	-700.870858
19.210000	-672.875543
19.220000	-629.677192
19.230000	-612.350117
19.240000	-551.214429
19.250000	-523.262480
19.260000	-450.360383
19.270000	-436.710263
19.280000	-366.937709
19.290000	-327.747358
19.300000	-267.168267
19.310000	-216.045855
19.320000	-171.339519
19.330000	-102.301841
19.340000	-56.759992
19.350000	-8.387388
19.360000	-8.387388
19.370000	-8.387388
19.380000	-22.631888
19.390000	-144.999300
19.400000	-290.032512
19.410000	-412.247660
19.420000	-481.507249
19.430000	-525.687137
19.440000	-531.718000
19.450000	-531.718000
19.460000	-531.718000
19.470000	-516.188433
19.480000	-466.487772
19.490000	-427.566426
19.500000	-405.180302
19.510000	-405.180302
19.520000	-405.180302
19.530000	-417.882080
19.540000	-420.126517
19.550000	-420.126517
19.560000	-417.882080
19.570000	-404.299183
19.580000	-388.254675
19.590000	-356.730094
19.600000	-313.180179
19.610000	-274.225141
19.620000	-228.055340
19.630000	-195.838264
19.640000	-150.826160
19.650000	-78.512029
19.660000	-34.817196
19.670000	23.058817
19.680000	97.053242
19.690000	159.522368
19.700000	228.022020
19.710000	314.946181
19.720000	409.902895
19.730000	502.344488
19.740000	663.984868
19.750000	835.357896
19.760000	839.761726
19.770000	839.761726
19.780000	839.761726
19.790000	747.329438
19.800000	715.276749
19.810000	715.276749
19.820000	715.276749
19.830000	910.327866
19.840000	1066.865168
19.850000	1069.081223
19.860000	1069.081223
19.870000	1069.081223
19.880000	899.509826
19.890000	547.202650
19.900000	180.766310
19.910000	65.568347
19.920000	-61.449911
19.930000	-191.340063
19.940000	-448.052197
19.950000	-507.789628
19.960000	-570.211050
19.970000	-570.211050
19.980000	-526.600382
19.990000	-507.789628
20.000000	881.718862
20.010000	915.536635
20.020000	915.536635
20.030000	915.536635
20.040000	911.808525
20.050000	854.804610
20.060000	748.607763
20.070000	748.607763
20.080000	677.374823
20.090000	677.374823
20.100000	677.374823
20.110000	587.154755
20.120000	451.868288
20.130000	301.201320
20.140000	301.201320
20.150000	301.201320
20.160000	390.466309
20.170000	470.417927
20.180000	634.084243
20.190000	698.113030
20.200000	698.113030
20.210000	698.113030
20.220000	665.467324
20.230000	647.729014
20.240000	553.865081
20.250000	376.557748
20.260000	259.183247
20.270000	254.647162
20.280000	-11.887150
20.290000	-49.733818
20.300000	-107.866025
20.310000	-120.652194
20.320000	-192.467513
20.330000	-195.891385
20.340000	-195.891385
20.350000	-195.891385
20.360000	-193.018863
20.370000	-138.039098
20.380000	-56.913384
20.390000	25.800762
20.400000	295.753233
20.410000	494.404479
20.420000	718.379258
20.430000	1021.875657
20.440000	1193.259208
20.450000	1222.401374
20.460000	1222.401374
20.470000	1222.401374
20.480000	1196.134901
20.490000	1097.942346
20.500000	1012.029116
20.510000	936.865969
20.520000	916.031553
20.530000	865.423236
20.540000	604.754140
20.550000	572.664754
20.560000	521.576279
20.570000	256.033722
20.580000	-9.491420
20.590000	-169.913505
20.600000	-179.836964
20.610000	-179.836964
20.620000	-179.836964
20.630000	-64.474904
20.640000	138.120057
20.650000	283.773468
20.660000	483.762770
20.670000	582.978050
20.680000	582.978050
20.690000	582.978050
20.700000	343.815233
20.710000	203.631351
20.720000	159.643613
20.730000	63.869703
20.740000	-93.071801
20.750000	-120.760361
20.760000	-137.633579
20.770000	-137.633579
20.780000	-159.384813
20.790000	-168.962133
20.800000	-168.962133
20.810000	-168.962133
20.820000	-136.245259
20.830000	-84.593536
20.840000	-42.536351
20.850000	23.064739
20.860000	109.056211
20.870000	182.624849
20.880000	253.749567
20.890000	324.145488
20.900000	374.367995
20.910000	392.670420
20.920000	439.166903
20.930000	465.881541
20.940000	519.208025
20.950000	556.828311
20.960000	556.828311
20.970000	556.828311
20.980000	421.407255
20.990000	222.615659
21.000000	62.923168
21.010000	-42.855127
21.020000	-101.638065
21.030000	-154.437072
21.040000	-181.046929
21.050000	-181.046929
21.060000	-181.046929
21.070000	-163.414316
21.080000	-158.569570
21.090000	-125.401822
21.100000	-125.401822
21.110000	-125.401822
21.120000	-164.075441
21.130000	-200.309169
21.140000	-225.060539
21.150000	-233.065500
21.160000	-233.065500
21.170000	-225.060539
21.180000	-204.495721
21.190000	-178.779781
21.200000	-149.783774
21.210000	-123.866015
21.220000	-102.075911
21.230000	-44.859443
21.240000	-7.647692
21.250000	31.340389
21.260000	75.711753
21.270000	111.472977
21.280000	157.141542
21.290000	178.441566
21.300000	240.826197
21.310000	275.021019
21.320000	275.021019
21.330000	275.021019
21.340000	269.586220
21.350000	106.925649
21.360000	-41.221640
21.370000	-177.936272
21.380000	-305.045542
21.390000	-348.609635
21.400000	-377.280683
21.410000	-394.122512
21.420000	-394.122512
21.430000	-394.122512
21.440000	-341.577389
21.450000	-309.673077
21.460000	-294.442944
21.470000	-294.442944
21.480000	-294.442944
21.490000	-308.479741
21.500000	-319.343372
21.510000	-319.343372
21.520000	-319.343372
21.530000	-312.781476
21.540000	-279.087839
21.550000	-276.900137
21.560000	-228.796281
21.570000	-188.398994
21.580000	-128.302465
21.590000	-107.154519
21.600000	-49.460551
21.610000	-11.291751
21.620000	57.653152
21.630000	86.217034
21.640000	162.182990
21.650000	194.213426
21.660000	265.517699
21.670000	265.517699
21.680000	265.517699
21.690000	243.312683
21.700000	-436.197949
21.710000	-436.197949
21.720000	-436.197949
21.730000	-427.911496
21.740000	-416.291919
21.750000	-416.291919
21.760000	-416.291919
21.770000	-458.024173
21.780000	-467.419853
21.790000	-504.168964
21.800000	-504.168964
21.810000	-504.168964
21.820000	-492.920723
21.830000	-483.618701
21.840000	-462.656849
21.850000	-422.599552
21.860000	-394.694164
21.870000	-358.181740
21.880000	-312.808429
21.890000	-256.780308
21.900000	-184.934027
21.910000	-11.177161
21.920000	105.536010
21.930000	105.892937
21.940000	105.892937
21.950000	105.892937
21.960000	105.892937
21.970000	148.243595
21.980000	148.243595
21.990000	148.243595
22.000000	18.492197
22.010000	-146.534379
22.020000	-351.335700
22.030000	-500.447933
22.040000	-601.466900
22.050000	-676.421346
22.060000	-737.591517
22.070000	-763.321711
22.080000	-811.852094
22.090000	-811.852094
22.100000	-811.852094
22.110000	-773.042953
22.120000	-773.042953
22.130000	-773.042953
22.140000	-784.718614
22.150000	-786.207724
22.160000	-855.975121
22.170000	-866.766469
22.180000	-866.766469
22.190000	-855.975121
22.200000	-140.767671
22.210000	-140.767671
22.220000	-140.767671
22.230000	-242.784101
22.240000	-470.500135
22.250000	-618.925242
22.260000	-754.998165
22.270000	-808.708823
22.280000	-883.992413
22.290000	-915.044544
22.300000	-975.387550
22.310000	-975.387550
22.320000	-975.387550
22.330000	-947.535847
22.340000	-947.535847
22.350000	-947.535847
22.360000	-961.919769
22.370000	-1003.946859
22.380000	-1049.455041
22.390000	-1083.055631
22.400000	-1101.140762
22.410000	-1101.140762
22.420000	-1101.140762
22.430000	-1070.056882
22.440000	-1058.780777
22.450000	-1031.744089
22.460000	-995.911294
22.470000	-966.469048
22.480000	-924.964349
22.490000	-876.272769
22.500000	-830.044957
22.510000	-782.052553
22.520000	-753.208539
22.530000	-687.635080
22.540000	-643.699288
22.550000	-601.014413
22.560000	-566.277253
22.570000	-511.310506
22.580000	-460.010499
22.590000	-440.630531
22.600000	-395.519473
22.610000	-354.201364
22.620000	-282.865568
22.630000	-248.058606
22.640000	-225.973967
22.650000	-200.761176
22.660000	-200.761176
22.670000	-200.761176
22.680000	-334.447217
22.690000	-482.607298
22.700000	-668.753007
22.710000	-803.150675
22.720000	-883.306381
22.730000	-943.803536
22.740000	-988.783463
22.750000	-1000.403003
22.760000	-1004.212973
22.770000	-1004.212973
22.780000	-1004.212973
22.790000	-1001.618275
22.800000	-1001.618275
22.810000	-1001.618275
22.820000	-1040.772159
22.830000	-1080.919321
22.840000	-1096.573579
22.850000	-1098.733908
22.860000	-1098.733908
22.870000	-1098.733908
22.880000	-1073.071046
22.890000	-1046.276542
22.900000	-1030.748691
22.910000	-1015.756457
22.920000	-999.451097
22.930000	-953.162622
22.940000	-912.329042
22.950000	-870.452608
22.960000	-818.197727
22.970000	-788.857738
22.980000	-753.894168
22.990000	-706.319158
23.000000	-671.676571
23.010000	-644.692051
23.020000	-618.450087
23.030000	-565.002295
23.040000	-493.319618
23.050000	-449.408364
23.060000	-375.898811
23.070000	-323.103264
23.080000	-262.253359
23.090000	-255.613265
23.100000	-255.613265
23.110000	-255.613265
23.120000	-390.064596
23.130000	-522.144211
23.140000	-635.561706
23.150000	-709.652014
23.160000	-738.086530
23.170000	-755.259463
23.180000	-755.259463
23.190000	-755.259463
23.200000	-740.941964
23.210000	-668.263142
23.220000	-644.769133
23.230000	-619.900153
23.240000	-619.900153
23.250000	-619.900153
23.260000	-644.354774
23.270000	-644.354774
23.280000	-644.354774
23.290000	-638.485130
23.300000	-383.883793
23.310000	-383.027065
23.320000	-377.480088
23.330000	-368.013210
23.340000	-336.248078
23.350000	-316.964906
23.360000	-316.964906
23.370000	-316.964906
23.380000	-360.759797
23.390000	-370.135213
23.400000	-370.135213
23.410000	-370.135213
23.420000	-368.911274
23.430000	-362.453558
23.440000	-355.065822
23.450000	-324.802298
23.460000	-285.266919
23.470000	-281.493536
23.480000	-236.735345
23.490000	-193.480877
23.500000	-138.017383
23.510000	-122.616781
23.520000	-60.885253
23.530000	-27.160188
23.540000	16.590111
23.550000	41.146947
23.560000	110.356981
23.570000	117.020831
23.580000	117.020831
23.590000	117.020831
23.600000	-236.100994
23.610000	-308.059388
23.620000	-310.165133
23.630000	-346.358952
23.640000	-346.358952
23.650000	-346.358952
23.660000	-328.589285
23.670000	-314.509120
23.680000	-314.509120
23.690000	-314.509120
23.700000	-335.209757
23.710000	-366.855813
23.720000	-366.970758
23.730000	-399.895425
23.740000	-399.895425
23.750000	-399.895425
23.760000	-392.273956
23.770000	-389.071447
23.780000	-352.210270
23.790000	-347.411942
23.800000	-335.807648
23.810000	-293.741869
23.820000	-255.511157
23.830000	-217.915081
23.840000	-180.166880
23.850000	-144.040220
23.860000	-90.710229
23.870000	-39.212856
23.880000	17.876281
23.890000	51.572388
23.900000	109.732418
23.910000	190.279754
23.920000	232.487430
23.930000	330.473070
23.940000	476.022730
23.950000	773.036354
23.960000	1192.255028
23.970000	1656.531524
23.980000	2195.845651
23.990000	2561.325571
24.000000	2561.325571
24.010000	2561.325571
24.020000	2387.579118
24.030000	2150.730846
24.040000	1816.051547
24.050000	1217.271940
24.060000	366.081845
24.070000	54.024617
24.080000	32.325043
24.090000	22.767199
24.100000	-21.725599
24.110000	-91.549358
24.120000	-92.583732
24.130000	-105.891790
24.140000	-105.891790
24.150000	-92.583732
24.160000	-92.583732
24.170000	-37.054540
24.180000	93.622707
24.190000	454.362508
24.200000	829.177297
24.210000	1214.440237
24.220000	1619.846446
24.230000	1967.355511
24.240000	2068.352064
24.250000	2068.352064
24.260000	2068.352064
24.270000	1988.512444
24.280000	1748.019539
24.290000	1410.299976
24.300000	1210.239991
24.310000	951.986959
24.320000	740.369242
24.330000	740.014608
24.340000	697.805653
24.350000	614.271026
24.360000	614.271026
24.370000	614.271026
24.380000	674.173215
24.390000	750.941296
24.400000	824.655652
24.410000	950.905712
24.420000	1063.146373
24.430000	1176.577561
24.440000	1176.577561
24.450000	1113.012390
24.460000	1063.146373
24.470000	952.755007
24.480000	789.003248
24.490000	739.088520
24.500000	526.001149
24.510000	273.613560
24.520000	206.366082
24.530000	168.184639
24.540000	117.458625
24.550000	116.036777
24.560000	88.056126
24.570000	-62.186694
24.580000	-74.223410
24.590000	-88.453626
24.600000	-94.751120
24.610000	-117.684011
24.620000	-117.684011
24.630000	-117.684011
24.640000	-80.950355
24.650000	54.914265
24.660000	344.180246
24.670000	634.039581
24.680000	913.797301
24.690000	1224.403203
24.700000	1403.567510
24.710000	1403.567510
24.720000	1403.567510
24.730000	1295.650038
24.740000	1090.617476
24.750000	988.436745
24.760000	986.597828
24.770000	979.209827
24.780000	977.018743
24.790000	904.281488
24.800000	904.281488
24.810000	904.281488
24.820000	935.747074
24.830000	938.645250
24.840000	938.645250
24.850000	935.747074
24.860000	795.319652
24.870000	716.467245
24.880000	716.467245
24.890000	716.467245
24.900000	806.055040
24.910000	1034.847407
24.920000	1332.644791
24.930000	1434.208918
24.940000	1434.208918
24.950000	1434.208918
24.960000	1377.330425
24.970000	1281.582321
24.980000	1063.507705
24.990000	821.558740
25.000000	613.677237
25.010000	440.481354
25.020000	264.846861
25.030000	172.846205
25.040000	77.645563
25.050000	-9.415218
25.060000	-45.037068
25.070000	-45.037068
25.080000	-45.037068
25.090000	-5.422285
25.100000	376.196207
25.110000	376.196207
25.120000	376.196207
25.130000	275.336598
25.140000	159.044522
25.150000	124.307468
25.160000	79.038377
25.170000	56.416625
25.180000	56.416625
25.190000	67.729615
25.200000	67.729615
25.210000	93.211672
25.220000	93.211672
25.230000	93.211672
25.240000	72.597294
25.250000	6.342934
25.260000	-6.525520
25.270000	-28.641591
25.280000	-35.914945
25.290000	-39.719916
25.300000	-39.719916
25.310000	-35.914945
25.320000	-30.447891
25.330000	-8.783661
25.340000	34.185707
25.350000	59.149742
25.360000	108.149812
25.370000	149.989148
25.380000	180.294840
25.390000	248.082531
25.400000	280.211786
25.410000	338.654527
25.420000	385.963273
25.430000	433.468183
25.440000	492.823422
25.450000	549.317275
25.460000	606.842598
25.470000	671.279829
25.480000	703.927559
25.490000	703.927559
25.500000	703.927559
25.510000	590.938768
25.520000	446.823034
25.530000	285.697019
25.540000	155.920976
25.550000	69.463777
25.560000	51.162762
25.570000	30.076010
25.580000	28.608888
25.590000	28.608888
25.600000	28.608888
25.610000	81.243498
25.620000	81.243498
25.630000	81.243498
25.640000	63.503965
25.650000	13.066021
25.660000	-38.435284
25.670000	-69.800065
25.680000	-104.387952
25.690000	-104.387952
25.700000	-104.387952
25.710000	-104.185358
25.720000	-102.957157
25.730000	-94.431953
25.740000	-74.800090
25.750000	-47.589461
25.760000	16.556580
25.770000	56.112743
25.780000	106.288307
25.790000	163.818686
25.800000	206.076304
25.810000	229.687003
25.820000	258.047362
25.830000	314.665199
25.840000	350.929953
25.850000	391.955531
25.860000	421.809487
25.870000	445.412852
25.880000	458.774286
25.890000	474.024221
25.900000	502.847654
25.910000	531.676044
25.920000	531.676044
25.930000	531.676044
25.940000	496.684083
25.950000	351.787953
25.960000	199.575517
25.970000	84.440066
25.980000	10.466116
25.990000	-19.951341
26.000000	-19.951341
26.010000	-19.951341
26.020000	-15.900210
26.030000	-12.531907
26.040000	21.749966
26.050000	40.955173
26.060000	40.955173
26.070000	40.955173
26.080000	17.288290
26.090000	0.000000
