Time(s)	GREEN_denoised_wiener
0.000000	-154.063368
0.010000	-296.598668
0.020000	-438.486902
0.030000	-609.830448
0.040000	-777.068239
0.050000	-916.124163
0.060000	-1018.395297
0.070000	-1083.811872
0.080000	-1120.783529
0.090000	-1137.203368
0.100000	-1138.537617
0.110000	-1128.295989
0.120000	-1111.001622
0.130000	-1095.107163
0.140000	-1087.168799
0.150000	-1089.950249
0.160000	-1100.028586
0.170000	-1110.159709
0.180000	-1115.940305
0.190000	-1114.417869
0.200000	-1104.903536
0.210000	-1088.727443
0.220000	-1063.569843
0.230000	-1030.092198
0.240000	-988.281844
0.250000	-942.851354
0.260000	-895.367167
0.270000	-846.323396
0.280000	-794.497465
0.290000	-740.517398
0.300000	-688.020089
0.310000	-638.423212
0.320000	-591.255938
0.330000	-542.705429
0.340000	-493.557165
0.350000	-444.373609
0.360000	-392.570149
0.370000	-336.765984
0.380000	-282.991530
0.390000	-252.588938
0.400000	-276.494934
0.410000	-371.763246
0.420000	-525.974016
0.430000	-704.600607
0.440000	-870.169247
0.450000	-1002.877884
0.460000	-1096.125914
0.470000	-1153.575654
0.480000	-1184.824975
0.490000	-1195.990399
0.500000	-1190.242924
0.510000	-1171.802102
0.520000	-1149.401106
0.530000	-1133.346380
0.540000	-1129.943631
0.550000	-1136.261022
0.560000	-1146.541193
0.570000	-1155.239434
0.580000	-1160.211664
0.590000	-1159.615953
0.600000	-1152.281623
0.610000	-1136.054443
0.620000	-1113.429378
0.630000	-1083.883349
0.640000	-1048.981913
0.650000	-1009.442636
0.660000	-967.605273
0.670000	-925.066570
0.680000	-882.626780
0.690000	-837.748644
0.700000	-790.055161
0.710000	-741.170786
0.720000	-693.888278
0.730000	-648.320715
0.740000	-604.790731
0.750000	-562.202450
0.760000	-516.755064
0.770000	-467.494915
0.780000	-424.151915
0.790000	-414.239663
0.800000	-464.617331
0.810000	-583.002455
0.820000	-746.402606
0.830000	-917.797842
0.840000	-1064.270517
0.850000	-1172.050763
0.860000	-1240.579892
0.870000	-1277.732255
0.880000	-1293.634418
0.890000	-1292.135685
0.900000	-1275.089514
0.910000	-1247.621018
0.920000	-1219.630836
0.930000	-1201.514336
0.940000	-1193.216923
0.950000	-1192.809473
0.960000	-1197.206963
0.970000	-1201.172648
0.980000	-1197.599291
0.990000	-1184.624457
1.000000	-1162.070608
1.010000	-1131.823082
1.020000	-1094.947604
1.030000	-1053.766531
1.040000	-1012.571484
1.050000	-969.434467
1.060000	-920.932915
1.070000	-866.852953
1.080000	-808.707569
1.090000	-751.690097
1.100000	-695.876782
1.110000	-640.600540
1.120000	-586.792447
1.130000	-534.584233
1.140000	-484.785465
1.150000	-433.630894
1.160000	-378.523932
1.170000	-321.432368
1.180000	-278.376640
1.190000	-277.676631
1.200000	-340.619067
1.210000	-465.266171
1.220000	-624.200601
1.230000	-781.240751
1.240000	-909.216017
1.250000	-994.662123
1.260000	-1041.354609
1.270000	-1057.839095
1.280000	-1053.237281
1.290000	-1030.742275
1.300000	-995.868806
1.310000	-959.068137
1.320000	-929.238498
1.330000	-914.801757
1.340000	-914.323479
1.350000	-921.932174
1.360000	-928.140797
1.370000	-926.479756
1.380000	-916.383147
1.390000	-897.102253
1.400000	-869.705832
1.410000	-836.135746
1.420000	-798.437315
1.430000	-756.237687
1.440000	-709.912517
1.450000	-661.084618
1.460000	-610.794244
1.470000	-558.334768
1.480000	-504.755365
1.490000	-450.658144
1.500000	-398.462477
1.510000	-347.380254
1.520000	-297.245382
1.530000	-246.840099
1.540000	-191.760027
1.550000	-133.055283
1.560000	-74.021063
1.570000	-32.717778
1.580000	-33.038071
1.590000	-95.778252
1.600000	-217.728825
1.610000	-370.174883
1.620000	-519.144544
1.630000	-637.997580
1.640000	-716.344018
1.650000	-754.588903
1.660000	-764.313013
1.670000	-754.912901
1.680000	-730.004647
1.690000	-694.311626
1.700000	-655.776643
1.710000	-623.451411
1.720000	-603.612187
1.730000	-596.646011
1.740000	-598.172109
1.750000	-601.237499
1.760000	-598.802219
1.770000	-589.581692
1.780000	-570.497434
1.790000	-539.999914
1.800000	-500.272525
1.810000	-454.156020
1.820000	-407.792549
1.830000	-361.364742
1.840000	-314.713732
1.850000	-267.307647
1.860000	-218.703476
1.870000	-170.658019
1.880000	-121.752363
1.890000	-75.422694
1.900000	-30.188483
1.910000	13.740816
1.920000	57.645881
1.930000	104.508955
1.940000	155.408536
1.950000	209.873255
1.960000	251.728711
1.970000	254.142495
1.980000	193.993520
1.990000	73.750017
2.000000	-77.065807
2.010000	-220.684692
2.020000	-333.896447
2.030000	-410.898313
2.040000	-456.152823
2.050000	-477.184324
2.060000	-480.135822
2.070000	-467.858143
2.080000	-443.516298
2.090000	-414.272650
2.100000	-389.298425
2.110000	-376.078415
2.120000	-372.449697
2.130000	-373.939895
2.140000	-373.656127
2.150000	-368.205877
2.160000	-356.262863
2.170000	-334.527476
2.180000	-305.279032
2.190000	-267.901637
2.200000	-226.033801
2.210000	-180.661828
2.220000	-134.185497
2.230000	-87.143013
2.240000	-39.060250
2.250000	11.319051
2.260000	64.671447
2.270000	118.380385
2.280000	171.014988
2.290000	221.718824
2.300000	272.642586
2.310000	324.328915
2.320000	375.207386
2.330000	427.225274
2.340000	481.379782
2.350000	537.729524
2.360000	589.143159
2.370000	612.801672
2.380000	586.519516
2.390000	499.182387
2.400000	366.915762
2.410000	222.220060
2.420000	95.251125
2.430000	2.833579
2.440000	-55.180763
2.450000	-87.964753
2.460000	-106.337334
2.470000	-114.798989
2.480000	-112.532320
2.490000	-98.017413
2.500000	-77.467760
2.510000	-59.628431
2.520000	-50.113333
2.530000	-47.939824
2.540000	-48.132861
2.550000	-47.306930
2.560000	-41.201090
2.570000	-27.396626
2.580000	-4.656520
2.590000	24.118600
2.600000	58.845649
2.610000	98.247315
2.620000	141.967360
2.630000	187.320219
2.640000	233.712310
2.650000	280.677874
2.660000	326.739120
2.670000	373.328398
2.680000	420.380260
2.690000	469.268220
2.700000	515.958793
2.710000	562.176327
2.720000	607.818338
2.730000	655.377815
2.740000	704.623539
2.750000	753.527721
2.760000	807.402463
2.770000	859.598546
2.780000	897.117922
2.790000	894.255304
2.800000	835.148108
2.810000	723.921507
2.820000	584.186542
2.830000	450.238626
2.840000	343.812217
2.850000	273.140571
2.860000	232.688818
2.870000	213.990034
2.880000	206.515486
2.890000	206.146324
2.900000	213.644942
2.910000	227.920395
2.920000	243.719324
2.930000	252.308086
2.940000	253.774600
2.950000	248.653821
2.960000	244.472713
2.970000	244.946199
2.980000	252.792012
2.990000	267.520505
3.000000	287.398777
3.010000	313.058995
3.020000	342.623142
3.030000	373.219388
3.040000	402.807894
3.050000	434.351758
3.060000	469.280134
3.070000	509.109530
3.080000	549.695448
3.090000	589.834126
3.100000	629.405939
3.110000	667.181323
3.120000	704.749937
3.130000	740.478873
3.140000	776.730885
3.150000	813.729961
3.160000	850.668507
3.170000	888.278207
3.180000	926.229564
3.190000	964.453600
3.200000	989.380046
3.210000	978.898780
3.220000	910.155122
3.230000	787.378379
3.240000	639.959389
3.250000	500.493574
3.260000	389.022679
3.270000	310.193359
3.280000	260.691010
3.290000	232.507191
3.300000	217.653030
3.310000	215.133898
3.320000	220.900350
3.330000	229.383478
3.340000	232.434322
3.350000	227.274904
3.360000	215.273462
3.370000	200.133210
3.380000	184.737502
3.390000	172.620471
3.400000	167.495885
3.410000	172.733986
3.420000	186.533943
3.430000	205.470261
3.440000	227.202213
3.450000	250.503506
3.460000	277.172709
3.470000	305.821924
3.480000	337.443673
3.490000	371.095629
3.500000	406.677552
3.510000	442.325090
3.520000	477.208204
3.530000	512.186452
3.540000	545.358525
3.550000	576.680155
3.560000	607.807410
3.570000	640.133680
3.580000	673.546013
3.590000	705.206885
3.600000	738.595767
3.610000	775.235150
3.620000	812.594787
3.630000	830.174413
3.640000	801.872063
3.650000	709.763059
3.660000	561.847408
3.670000	388.372947
3.680000	222.457374
3.690000	84.574778
3.700000	-18.343259
3.710000	-92.967561
3.720000	-146.184700
3.730000	-183.880776
3.740000	-207.721581
3.750000	-217.495938
3.760000	-221.656098
3.770000	-225.476284
3.780000	-235.300868
3.790000	-251.146631
3.800000	-271.649291
3.810000	-292.182197
3.820000	-308.038403
3.830000	-315.260792
3.840000	-312.809891
3.850000	-302.722255
3.860000	-286.287135
3.870000	-265.560354
3.880000	-239.463687
3.890000	-210.115197
3.900000	-178.010463
3.910000	-145.717125
3.920000	-112.589854
3.930000	-79.698582
3.940000	-47.208288
3.950000	-15.388565
3.960000	17.136182
3.970000	50.208920
3.980000	82.769808
3.990000	83.347803
4.000000	7.994045
4.010000	-138.755305
4.020000	-314.720195
4.030000	-459.851246
4.040000	-564.615136
4.050000	-635.366152
4.060000	-683.231886
4.070000	-717.919221
4.080000	-738.862517
4.090000	-746.851468
4.100000	-747.214425
4.110000	-747.832888
4.120000	-753.600297
4.130000	-765.846701
4.140000	-781.683434
4.150000	-795.896308
4.160000	-802.473220
4.170000	-800.000710
4.180000	-789.645574
4.190000	-774.485821
4.200000	-754.518232
4.210000	-731.016509
4.220000	-703.093656
4.230000	-671.928195
4.240000	-637.374055
4.250000	-599.549170
4.260000	-559.365145
4.270000	-518.881753
4.280000	-479.061614
4.290000	-440.922815
4.300000	-403.126535
4.310000	-365.675750
4.320000	-327.897714
4.330000	-290.139524
4.340000	-253.712835
4.350000	-216.635464
4.360000	-179.910618
4.370000	-142.834426
4.380000	-102.476579
4.390000	-58.748734
4.400000	-11.416258
4.410000	28.598951
4.420000	38.571034
4.430000	-6.099030
4.440000	-117.447603
4.450000	-277.421378
4.460000	-451.126909
4.470000	-603.449951
4.480000	-714.889171
4.490000	-783.901161
4.500000	-819.720918
4.510000	-834.734137
4.520000	-836.579300
4.530000	-827.926361
4.540000	-809.471706
4.550000	-789.512116
4.560000	-777.740474
4.570000	-778.455450
4.580000	-788.694891
4.590000	-802.429143
4.600000	-814.022360
4.610000	-820.114236
4.620000	-821.065040
4.630000	-815.499393
4.640000	-802.146004
4.650000	-781.928403
4.660000	-756.265978
4.670000	-725.725872
4.680000	-690.421986
4.690000	-653.903196
4.700000	-615.269331
4.710000	-574.118579
4.720000	-528.482192
4.730000	-483.055208
4.740000	-438.720647
4.750000	-397.029521
4.760000	-357.990498
4.770000	-318.697907
4.780000	-280.640939
4.790000	-242.058994
4.800000	-204.668998
4.810000	-164.104543
4.820000	-121.078613
4.830000	-81.197572
4.840000	-65.230347
4.850000	-101.010242
4.860000	-199.702973
4.870000	-346.451208
4.880000	-505.818610
4.890000	-646.603098
4.900000	-748.663683
4.910000	-808.833755
4.920000	-837.578093
4.930000	-846.432334
4.940000	-843.514507
4.950000	-828.706086
4.960000	-806.160183
4.970000	-780.344627
4.980000	-760.181741
4.990000	-750.669086
5.000000	-749.880695
5.010000	-753.683604
5.020000	-755.602372
5.030000	-751.734044
5.040000	-738.687337
5.050000	-716.488778
5.060000	-686.136229
5.070000	-649.607140
5.080000	-609.948673
5.090000	-569.416949
5.100000	-527.446655
5.110000	-482.249684
5.120000	-433.975904
5.130000	-386.451450
5.140000	-339.853721
5.150000	-293.676245
5.160000	-246.420033
5.170000	-199.600188
5.180000	-154.342458
5.190000	-110.544248
5.200000	-67.620022
5.210000	-22.504271
5.220000	23.401062
5.230000	69.515908
5.240000	116.403592
5.250000	164.514442
5.260000	208.368859
5.270000	224.442799
5.280000	188.645644
5.290000	91.391090
5.300000	-50.691782
5.310000	-202.963678
5.320000	-337.065296
5.330000	-433.026638
5.340000	-490.845113
5.350000	-515.454261
5.360000	-522.337984
5.370000	-518.876674
5.380000	-508.503363
5.390000	-491.974715
5.400000	-470.686435
5.410000	-453.107748
5.420000	-441.534404
5.430000	-437.921314
5.440000	-438.380744
5.450000	-438.079649
5.460000	-431.906628
5.470000	-417.926623
5.480000	-394.780279
5.490000	-363.793427
5.500000	-324.661506
5.510000	-282.353032
5.520000	-237.207933
5.530000	-189.924458
5.540000	-140.095084
5.550000	-90.514699
5.560000	-40.649366
5.570000	8.882703
5.580000	58.791219
5.590000	106.930562
5.600000	155.235057
5.610000	203.632034
5.620000	253.341985
5.630000	302.986318
5.640000	351.777563
5.650000	401.007081
5.660000	450.537058
5.670000	500.356438
5.680000	551.294176
5.690000	606.039955
5.700000	660.695978
5.710000	703.698920
5.720000	709.723541
5.730000	665.053714
5.740000	566.778438
5.750000	439.816312
5.760000	313.176310
5.770000	210.897368
5.780000	143.202042
5.790000	106.606953
5.800000	91.210014
5.810000	87.985842
5.820000	93.567452
5.830000	108.376088
5.840000	127.912688
5.850000	144.091488
5.860000	154.274917
5.870000	157.814738
5.880000	158.652496
5.890000	158.200808
5.900000	160.373733
5.910000	167.920822
5.920000	183.766279
5.930000	206.968064
5.940000	238.168038
5.950000	274.678040
5.960000	316.582976
5.970000	361.721088
5.980000	408.004371
5.990000	455.443163
6.000000	502.762507
6.010000	551.179358
6.020000	597.850436
6.030000	643.934489
6.040000	689.276361
6.050000	735.703663
6.060000	784.041787
6.070000	833.477572
6.080000	883.484214
6.090000	932.926332
6.100000	981.271788
6.110000	1028.052388
6.120000	1076.413364
6.130000	1127.851613
6.140000	1181.559920
6.150000	1228.974446
6.160000	1251.357042
6.170000	1232.115274
6.180000	1162.521449
6.190000	1060.007210
6.200000	951.056881
6.210000	857.900515
6.220000	793.246102
6.230000	756.437272
6.240000	742.102739
6.250000	741.311489
6.260000	748.315557
6.270000	764.218825
6.280000	783.524734
6.290000	803.147455
6.300000	815.737055
6.310000	820.442299
6.320000	818.303105
6.330000	811.422096
6.340000	807.232658
6.350000	807.401739
6.360000	817.856412
6.370000	833.700969
6.380000	854.508561
6.390000	877.677147
6.400000	903.184180
6.410000	930.334655
6.420000	959.880402
6.430000	992.007352
6.440000	1026.926879
6.450000	1063.359574
6.460000	1099.990306
6.470000	1137.400811
6.480000	1173.396662
6.490000	1209.803718
6.500000	1245.813146
6.510000	1282.228480
6.520000	1317.239931
6.530000	1352.012270
6.540000	1390.358220
6.550000	1431.467624
6.560000	1471.820013
6.570000	1495.907681
6.580000	1485.291385
6.590000	1423.704664
6.600000	1317.843436
6.610000	1192.903380
6.620000	1073.745457
6.630000	978.434278
6.640000	912.296627
6.650000	874.298452
6.660000	853.170370
6.670000	844.197914
6.680000	844.399419
6.690000	850.781146
6.700000	856.969571
6.710000	857.383518
6.720000	850.567927
6.730000	836.005237
6.740000	817.528232
6.750000	799.979623
6.760000	788.840068
6.770000	785.960364
6.780000	789.825526
6.790000	797.954522
6.800000	809.832320
6.810000	825.298784
6.820000	844.856586
6.830000	867.989082
6.840000	892.892665
6.850000	918.697132
6.860000	943.942145
6.870000	968.757734
6.880000	994.008317
6.890000	1019.162327
6.900000	1045.761153
6.910000	1074.244670
6.920000	1104.192198
6.930000	1134.672644
6.940000	1162.965146
6.950000	1189.789999
6.960000	1217.087815
6.970000	1249.928750
6.980000	1286.537572
6.990000	1319.731621
7.000000	1327.625662
7.010000	1287.209852
7.020000	1184.750736
7.030000	1027.423399
7.040000	844.614417
7.050000	666.315913
7.060000	517.140320
7.070000	402.164795
7.080000	318.654477
7.090000	255.332943
7.100000	204.855172
7.110000	163.854102
7.120000	130.067330
7.130000	103.723541
7.140000	78.268638
7.150000	50.275688
7.160000	15.474756
7.170000	-22.142675
7.180000	-57.643403
7.190000	-87.558919
7.200000	-111.430680
7.210000	-127.298886
7.220000	-133.212822
7.230000	-129.707512
7.240000	-118.995061
7.250000	-105.116978
7.260000	-89.098488
7.270000	-70.184685
7.280000	-46.529036
7.290000	-20.260418
7.300000	7.044504
7.310000	34.668460
7.320000	63.958977
7.330000	91.251846
7.340000	118.891239
7.350000	146.495377
7.360000	175.830041
7.370000	203.725670
7.380000	229.776428
7.390000	259.638951
7.400000	293.039202
7.410000	327.545320
7.420000	346.260934
7.430000	323.425698
7.440000	239.497767
7.450000	94.691357
7.460000	-82.523779
7.470000	-259.033217
7.480000	-408.233201
7.490000	-519.137685
7.500000	-597.325456
7.510000	-649.917393
7.520000	-686.763208
7.530000	-711.017041
7.540000	-725.873057
7.550000	-734.121217
7.560000	-739.992818
7.570000	-751.909834
7.580000	-770.096633
7.590000	-793.368119
7.600000	-817.532693
7.610000	-837.498056
7.620000	-848.978716
7.630000	-850.309887
7.640000	-841.771719
7.650000	-825.468637
7.660000	-802.570999
7.670000	-777.645821
7.680000	-752.371705
7.690000	-726.493970
7.700000	-700.517687
7.710000	-672.345068
7.720000	-644.018707
7.730000	-615.200192
7.740000	-588.204476
7.750000	-563.060054
7.760000	-538.397644
7.770000	-514.268606
7.780000	-488.596636
7.790000	-461.160798
7.800000	-429.802390
7.810000	-398.415235
7.820000	-371.020983
7.830000	-364.718275
7.840000	-406.613278
7.850000	-509.327941
7.860000	-662.154762
7.870000	-825.872746
7.880000	-972.072912
7.890000	-1078.782378
7.900000	-1147.068336
7.910000	-1187.398659
7.920000	-1211.414641
7.930000	-1224.679392
7.940000	-1224.419343
7.950000	-1216.665743
7.960000	-1205.099157
7.970000	-1200.018634
7.980000	-1204.775033
7.990000	-1216.035089
8.000000	-1230.466271
8.010000	-1240.054139
8.020000	-1244.193401
8.030000	-1238.411524
8.040000	-1223.951925
8.050000	-1203.455173
8.060000	-1176.384206
8.070000	-1146.526566
8.080000	-1113.821826
8.090000	-1080.286273
8.100000	-1044.265335
8.110000	-1006.735866
8.120000	-968.390736
8.130000	-928.530982
8.140000	-886.532356
8.150000	-844.683440
8.160000	-804.688369
8.170000	-766.179524
8.180000	-726.855030
8.190000	-686.363565
8.200000	-645.373728
8.210000	-602.557991
8.220000	-556.574882
8.230000	-510.446853
8.240000	-477.152449
8.250000	-483.389078
8.260000	-549.728822
8.270000	-677.293452
8.280000	-838.241154
8.290000	-994.518559
8.300000	-1120.469579
8.310000	-1204.798410
8.320000	-1256.101195
8.330000	-1285.099232
8.340000	-1304.419752
8.350000	-1316.386694
8.360000	-1320.077554
8.370000	-1316.026198
8.380000	-1306.755401
8.390000	-1300.027876
8.400000	-1296.427838
8.410000	-1296.042344
8.420000	-1294.769431
8.430000	-1289.740694
8.440000	-1278.459031
8.450000	-1260.123840
8.460000	-1234.496786
8.470000	-1203.191818
8.480000	-1166.878152
8.490000	-1126.272585
8.500000	-1084.277956
8.510000	-1040.690357
8.520000	-997.027792
8.530000	-950.106943
8.540000	-901.802997
8.550000	-851.193731
8.560000	-801.935068
8.570000	-754.616120
8.580000	-709.743997
8.590000	-665.709502
8.600000	-619.559092
8.610000	-572.156272
8.620000	-523.046512
8.630000	-473.951335
8.640000	-422.197212
8.650000	-369.099071
8.660000	-321.370821
8.670000	-303.637104
8.680000	-336.540955
8.690000	-425.139480
8.700000	-545.638685
8.710000	-664.287695
8.720000	-754.094512
8.730000	-807.495149
8.740000	-833.601693
8.750000	-843.713832
8.760000	-847.442453
8.770000	-843.573996
8.780000	-833.628252
8.790000	-814.759348
8.800000	-790.835982
8.810000	-766.951190
8.820000	-746.040547
8.830000	-729.474455
8.840000	-714.235071
8.850000	-698.669766
8.860000	-677.086410
8.870000	-647.877149
8.880000	-611.276603
8.890000	-567.417646
8.900000	-519.474807
8.910000	-468.952807
8.920000	-419.009726
8.930000	-366.803249
8.940000	-312.885312
8.950000	-258.987856
8.960000	-206.089332
8.970000	-153.497956
8.980000	-99.620531
8.990000	-44.675596
9.000000	11.186319
9.010000	66.147143
9.020000	122.342750
9.030000	177.964863
9.040000	232.843254
9.050000	287.457703
9.060000	344.022282
9.070000	404.290129
9.080000	466.198771
9.090000	528.800643
9.100000	583.362654
9.110000	613.298782
9.120000	602.203303
9.130000	545.171857
9.140000	454.769016
9.150000	357.761422
9.160000	279.007369
9.170000	230.995289
9.180000	212.887790
9.190000	214.215092
9.200000	228.792762
9.210000	250.782348
9.220000	278.054812
9.230000	307.694717
9.240000	334.658673
9.250000	359.303289
9.260000	379.604412
9.270000	396.268154
9.280000	410.567545
9.290000	425.921790
9.300000	445.880950
9.310000	469.914499
9.320000	498.882152
9.330000	532.254400
9.340000	568.899735
9.350000	606.943984
9.360000	645.605729
9.370000	685.991179
9.380000	727.660247
9.390000	770.392089
9.400000	813.734245
9.410000	855.809535
9.420000	896.500521
9.430000	935.581116
9.440000	975.963500
9.450000	1016.697151
9.460000	1058.787219
9.470000	1100.828901
9.480000	1142.636917
9.490000	1183.983452
9.500000	1225.846456
9.510000	1271.501114
9.520000	1318.062812
9.530000	1363.712362
9.540000	1397.277723
9.550000	1403.269570
9.560000	1367.520984
9.570000	1293.901260
9.580000	1202.500623
9.590000	1117.569744
9.600000	1054.815697
9.610000	1017.229061
9.620000	1001.472670
9.630000	998.231415
9.640000	1003.169615
