Time(s)	GREEN_denoised_wiener
0.000000	-360.232538
0.010000	-398.224692
0.020000	-420.444080
0.030000	-436.702253
0.040000	-447.582037
0.050000	-456.517579
0.060000	-464.041729
0.070000	-466.317040
0.080000	-464.176819
0.090000	-461.119486
0.100000	-459.637905
0.110000	-456.233990
0.120000	-450.435568
0.130000	-443.347511
0.140000	-438.233593
0.150000	-433.775957
0.160000	-427.355295
0.170000	-419.540150
0.180000	-408.129451
0.190000	-398.652035
0.200000	-396.228679
0.210000	-403.081882
0.220000	-412.295121
0.230000	-411.488762
0.240000	-398.046806
0.250000	-374.902362
0.260000	-349.802909
0.270000	-325.292579
0.280000	-300.540361
0.290000	-272.667501
0.300000	-242.277414
0.310000	-213.040588
0.320000	-184.325429
0.330000	-151.725789
0.340000	-116.711766
0.350000	-89.089099
0.360000	-76.079251
0.370000	-75.414291
0.380000	-81.425038
0.390000	-92.404371
0.400000	-104.418410
0.410000	-114.383518
0.420000	-116.724700
0.430000	-115.709151
0.440000	-110.335668
0.450000	-102.361202
0.460000	-90.590394
0.470000	-76.672625
0.480000	-64.502539
0.490000	-53.288785
0.500000	-44.404593
0.510000	-35.545165
0.520000	-27.632186
0.530000	-19.111110
0.540000	-9.177895
0.550000	4.010053
0.560000	18.617528
0.570000	33.484617
0.580000	47.431419
0.590000	61.985451
0.600000	79.266082
0.610000	98.163539
0.620000	119.459039
0.630000	140.351866
0.640000	162.350884
0.650000	184.888518
0.660000	206.594862
0.670000	229.121443
0.680000	251.519979
0.690000	274.380512
0.700000	298.802049
0.710000	325.661492
0.720000	351.428167
0.730000	369.624164
0.740000	376.418303
0.750000	375.297309
0.760000	367.091809
0.770000	356.004002
0.780000	345.788661
0.790000	340.402776
0.800000	338.496077
0.810000	338.158767
0.820000	339.902508
0.830000	345.276916
0.840000	354.331065
0.850000	363.411414
0.860000	371.460206
0.870000	378.576142
0.880000	385.618755
0.890000	392.766582
0.900000	401.475321
0.910000	411.313271
0.920000	422.695902
0.930000	433.882644
0.940000	447.290091
0.950000	462.139012
0.960000	478.248606
0.970000	496.093437
0.980000	517.239950
0.990000	542.408940
1.000000	569.921670
1.010000	597.754023
1.020000	624.301965
1.030000	647.462045
1.040000	667.052067
1.050000	685.207846
1.060000	703.164653
1.070000	718.976741
1.080000	733.650714
1.090000	752.790494
1.100000	777.155896
1.110000	798.946683
1.120000	810.360537
1.130000	810.488117
1.140000	801.941337
1.150000	790.070395
1.160000	776.545518
1.170000	764.690864
1.180000	754.507708
1.190000	746.680495
1.200000	741.502923
1.210000	737.700057
1.220000	735.536741
1.230000	735.086933
1.240000	735.268684
1.250000	735.844215
1.260000	735.031256
1.270000	731.638104
1.280000	727.503912
1.290000	724.467188
1.300000	724.010888
1.310000	725.659617
1.320000	727.549530
1.330000	730.561817
1.340000	733.451313
1.350000	738.175204
1.360000	744.716803
1.370000	752.823807
1.380000	762.017597
1.390000	771.841787
1.400000	783.358600
1.410000	794.888322
1.420000	806.072695
1.430000	816.303674
1.440000	827.162338
1.450000	837.748441
1.460000	848.959842
1.470000	860.225448
1.480000	872.464393
1.490000	888.076150
1.500000	908.669738
1.510000	928.944170
1.520000	938.898463
1.530000	932.526101
1.540000	911.183665
1.550000	880.489299
1.560000	846.506288
1.570000	814.152178
1.580000	784.521195
1.590000	756.846016
1.600000	732.243965
1.610000	710.238103
1.620000	691.004426
1.630000	673.997374
1.640000	659.135257
1.650000	643.785324
1.660000	627.975668
1.670000	611.608450
1.680000	596.523502
1.690000	581.792649
1.700000	567.108287
1.710000	554.685592
1.720000	543.051319
1.730000	533.621407
1.740000	525.690018
1.750000	520.931809
1.760000	519.358748
1.770000	520.943246
1.780000	523.054683
1.790000	526.999725
1.800000	531.444130
1.810000	536.093024
1.820000	540.868000
1.830000	547.224225
1.840000	555.656110
1.850000	565.719581
1.860000	574.804857
1.870000	584.258902
1.880000	593.648320
1.890000	604.168810
1.900000	614.517536
1.910000	624.113148
1.920000	636.095917
1.930000	651.416908
1.940000	664.354561
1.950000	663.068935
1.960000	642.329576
1.970000	603.436927
1.980000	554.019804
1.990000	500.164983
2.000000	450.414205
2.010000	407.240260
2.020000	371.501183
2.030000	340.001204
2.040000	311.958044
2.050000	289.466418
2.060000	272.438392
2.070000	257.618862
2.080000	241.614065
2.090000	221.802239
2.100000	200.498550
2.110000	177.674204
2.120000	155.082727
2.130000	135.577087
2.140000	118.685438
2.150000	106.848737
2.160000	97.301049
2.170000	90.489512
2.180000	85.272360
2.190000	83.498329
2.200000	85.599372
2.210000	90.529108
2.220000	96.617121
2.230000	103.923520
2.240000	111.992095
2.250000	121.345691
2.260000	131.723079
2.270000	142.458006
2.280000	153.480047
2.290000	163.257080
2.300000	173.603403
2.310000	183.739315
2.320000	195.423774
2.330000	205.230437
2.340000	217.287777
2.350000	233.070237
2.360000	252.837493
2.370000	265.567851
2.380000	260.743809
2.390000	232.767271
2.400000	184.026765
2.410000	120.330530
2.420000	53.346671
2.430000	-9.096160
2.440000	-65.330008
2.450000	-118.850289
2.460000	-176.328930
2.470000	-238.234492
2.480000	-312.733949
2.490000	-406.943027
2.500000	-511.588458
2.510000	-611.043263
2.520000	-694.338026
2.530000	-758.783869
2.540000	-805.951607
2.550000	-841.392697
2.560000	-871.243581
2.570000	-900.648396
2.580000	-929.170048
2.590000	-954.549132
2.600000	-973.076123
2.610000	-986.782771
2.620000	-995.961425
2.630000	-1001.335126
2.640000	-1001.491921
2.650000	-998.214166
2.660000	-993.006411
2.670000	-985.071814
2.680000	-972.168694
2.690000	-953.919838
2.700000	-931.654406
2.710000	-906.085059
2.720000	-877.792121
2.730000	-848.238540
2.740000	-819.584383
2.750000	-791.036669
2.760000	-762.030149
2.770000	-733.491889
2.780000	-705.125658
2.790000	-672.923456
2.800000	-638.890993
2.810000	-613.698893
2.820000	-610.984640
2.830000	-632.094155
2.840000	-670.376658
2.850000	-716.134798
2.860000	-762.095827
2.870000	-803.837166
2.880000	-838.807433
2.890000	-866.532599
2.900000	-887.843374
2.910000	-903.214526
2.920000	-910.860625
2.930000	-911.557713
2.940000	-908.538885
2.950000	-907.896378
2.960000	-911.526605
2.970000	-917.211412
2.980000	-923.169875
2.990000	-925.508333
3.000000	-925.147393
3.010000	-921.789597
3.020000	-916.783778
3.030000	-909.720362
3.040000	-899.739904
3.050000	-887.309051
3.060000	-872.014529
3.070000	-854.889257
3.080000	-836.274757
3.090000	-817.459517
3.100000	-798.184801
3.110000	-777.682384
3.120000	-755.416089
3.130000	-730.892573
3.140000	-703.968804
3.150000	-676.428439
3.160000	-647.835724
3.170000	-618.620227
3.180000	-588.687994
3.190000	-560.138064
3.200000	-531.182847
3.210000	-503.318072
3.220000	-474.320532
3.230000	-442.485775
3.240000	-407.113798
3.250000	-373.990665
3.260000	-355.243734
3.270000	-353.789387
3.280000	-369.016321
3.290000	-394.223596
3.300000	-421.103245
3.310000	-442.312409
3.320000	-457.193684
3.330000	-467.058313
3.340000	-475.274650
3.350000	-479.774018
3.360000	-480.011057
3.370000	-475.808510
3.380000	-467.733801
3.390000	-460.505208
3.400000	-455.431161
3.410000	-452.515477
3.420000	-449.773385
3.430000	-446.178540
3.440000	-442.102776
3.450000	-435.484742
3.460000	-427.089578
3.470000	-417.105498
3.480000	-407.396943
3.490000	-397.034357
3.500000	-383.014205
3.510000	-366.623740
3.520000	-348.277620
3.530000	-331.202538
3.540000	-313.174227
3.550000	-293.433328
3.560000	-270.717222
3.570000	-246.318705
3.580000	-221.574370
3.590000	-196.514324
3.600000	-170.409726
3.610000	-143.358966
3.620000	-116.561316
3.630000	-89.511930
3.640000	-61.023824
3.650000	-31.648917
3.660000	-4.138074
3.670000	24.250357
3.680000	54.764961
3.690000	88.169898
3.700000	120.677304
3.710000	146.773387
3.720000	163.619225
3.730000	167.730879
3.740000	163.605719
3.750000	156.713902
3.760000	150.610017
3.770000	147.382838
3.780000	147.299455
3.790000	150.073935
3.800000	157.351415
3.810000	166.778137
3.820000	177.431594
3.830000	188.507150
3.840000	198.534633
3.850000	209.269910
3.860000	216.646764
3.870000	223.075737
3.880000	229.446858
3.890000	238.244945
3.900000	249.599675
3.910000	261.434139
3.920000	272.781779
3.930000	283.986692
3.940000	297.997647
3.950000	314.891483
3.960000	334.239101
3.970000	353.150004
3.980000	373.521039
3.990000	395.431043
4.000000	417.493302
4.010000	438.072588
4.020000	457.498990
4.030000	477.746842
4.040000	500.198073
4.050000	523.776194
4.060000	548.595769
4.070000	572.160538
4.080000	592.356830
4.090000	611.586415
4.100000	634.486640
4.110000	662.365897
4.120000	690.629791
4.130000	713.170909
4.140000	726.810801
4.150000	730.678867
4.160000	725.359199
4.170000	715.227414
4.180000	705.272904
4.190000	698.801732
4.200000	694.537854
4.210000	689.735942
4.220000	686.847766
4.230000	688.033463
4.240000	693.182304
4.250000	700.356909
4.260000	705.876406
4.270000	711.392760
4.280000	713.588016
4.290000	714.808725
4.300000	714.656703
4.310000	715.597225
4.320000	719.755843
4.330000	724.403822
4.340000	728.223664
4.350000	731.579882
4.360000	735.725467
4.370000	743.124169
4.380000	750.576640
4.390000	760.047583
4.400000	771.453812
4.410000	784.000674
4.420000	797.363912
4.430000	809.647753
4.440000	822.314867
4.450000	835.656567
4.460000	850.632596
4.470000	866.024316
4.480000	880.648648
4.490000	894.092374
4.500000	908.035273
4.510000	920.849462
4.520000	935.800071
4.530000	954.967979
4.540000	977.588342
4.550000	995.430547
4.560000	1001.410917
4.570000	993.270778
4.580000	972.274161
4.590000	942.817183
4.600000	911.507621
4.610000	881.050242
4.620000	853.770640
4.630000	829.640657
4.640000	807.393961
4.650000	787.265440
4.660000	770.048934
4.670000	756.921258
4.680000	745.724591
4.690000	732.936360
4.700000	718.104901
4.710000	700.981418
4.720000	683.186251
4.730000	667.057525
4.740000	652.289252
4.750000	640.166745
4.760000	628.745280
4.770000	619.313231
4.780000	612.561204
4.790000	608.485830
4.800000	607.405840
4.810000	608.349181
4.820000	612.617487
4.830000	618.565002
4.840000	625.191266
4.850000	630.805743
4.860000	636.465860
4.870000	643.740941
4.880000	654.433925
4.890000	666.692036
4.900000	675.418789
4.910000	682.354047
4.920000	691.434923
4.930000	702.697004
4.940000	709.791604
4.950000	714.754152
4.960000	724.853569
4.970000	740.483065
4.980000	748.234680
4.990000	733.565645
5.000000	697.013722
5.010000	641.009659
5.020000	575.516119
5.030000	507.133584
5.040000	443.015014
5.050000	388.608055
5.060000	343.198487
5.070000	305.101010
5.080000	269.393920
5.090000	237.298048
5.100000	210.276925
5.110000	185.168980
5.120000	153.832540
5.130000	117.418078
5.140000	80.416327
5.150000	47.352622
5.160000	16.668444
5.170000	-11.690644
5.180000	-37.393972
5.190000	-59.715395
5.200000	-76.435171
5.210000	-90.738191
5.220000	-103.453413
5.230000	-115.077233
5.240000	-124.116999
5.250000	-130.404365
5.260000	-137.107847
5.270000	-141.366679
5.280000	-143.091692
5.290000	-142.315020
5.300000	-139.395771
5.310000	-134.582700
5.320000	-127.685259
5.330000	-120.509453
5.340000	-111.619737
5.350000	-102.097315
5.360000	-91.872221
5.370000	-84.349525
5.380000	-75.425854
5.390000	-62.594860
5.400000	-44.638732
5.410000	-33.198187
5.420000	-43.852069
5.430000	-83.099851
5.440000	-145.926232
5.450000	-217.120781
5.460000	-284.532435
5.470000	-345.839676
5.480000	-401.040392
5.490000	-448.704181
5.500000	-486.537997
5.510000	-517.575623
5.520000	-545.028684
5.530000	-563.750320
5.540000	-576.868592
5.550000	-591.930590
5.560000	-617.037064
5.570000	-645.063023
5.580000	-669.534906
5.590000	-688.870065
5.600000	-706.040026
5.610000	-720.662921
5.620000	-729.198411
5.630000	-733.800269
5.640000	-735.014809
5.650000	-735.940626
5.660000	-732.808575
5.670000	-726.757587
5.680000	-716.258360
5.690000	-704.250390
5.700000	-693.036845
5.710000	-681.063254
5.720000	-668.149968
5.730000	-649.193659
5.740000	-628.954777
5.750000	-607.308766
5.760000	-586.765129
5.770000	-569.086982
5.780000	-549.890605
5.790000	-525.198499
5.800000	-495.026072
5.810000	-466.662521
5.820000	-442.814983
5.830000	-418.438109
5.840000	-393.283421
5.850000	-378.244144
5.860000	-386.758851
5.870000	-419.348186
5.880000	-466.206222
5.890000	-514.444212
5.900000	-557.003537
5.910000	-591.888217
5.920000	-616.132402
5.930000	-631.345804
5.940000	-639.597007
5.950000	-643.138506
5.960000	-643.059819
5.970000	-640.599806
5.980000	-638.194223
5.990000	-637.728010
6.000000	-639.994153
6.010000	-644.521372
6.020000	-650.461780
6.030000	-652.972589
6.040000	-651.276159
6.050000	-642.754427
6.060000	-630.107571
6.070000	-615.203152
6.080000	-599.273155
6.090000	-582.317816
6.100000	-562.101990
6.110000	-539.443656
6.120000	-513.596046
6.130000	-486.580007
6.140000	-458.755170
6.150000	-431.722783
6.160000	-402.905882
6.170000	-373.211571
6.180000	-343.726906
6.190000	-316.038255
6.200000	-287.539646
6.210000	-257.874384
6.220000	-227.691781
6.230000	-196.377038
6.240000	-162.177487
6.250000	-129.566852
6.260000	-107.010910
6.270000	-99.751256
6.280000	-107.165031
6.290000	-125.263245
6.300000	-148.317897
6.310000	-169.108012
6.320000	-183.482763
6.330000	-191.969218
6.340000	-195.987026
6.350000	-194.493959
6.360000	-188.166326
6.370000	-177.689059
6.380000	-166.690728
6.390000	-157.885347
6.400000	-150.542717
6.410000	-144.420032
6.420000	-137.059027
6.430000	-128.966612
6.440000	-119.576147
6.450000	-108.183249
6.460000	-96.436843
6.470000	-82.393806
6.480000	-67.310118
6.490000	-48.931856
6.500000	-29.198717
6.510000	-7.132369
6.520000	15.902432
6.530000	38.663633
6.540000	62.339764
6.550000	86.785472
6.560000	113.444288
6.570000	140.227098
6.580000	165.880590
6.590000	191.003286
6.600000	218.318864
6.610000	246.765202
6.620000	275.420305
6.630000	305.863425
6.640000	337.177648
6.650000	365.616618
6.660000	380.913138
6.670000	382.726449
6.680000	374.655469
6.690000	361.167994
6.700000	347.395592
6.710000	334.260587
6.720000	324.469861
6.730000	316.671243
6.740000	308.871546
6.750000	300.414713
6.760000	292.607726
6.770000	289.160510
6.780000	289.661605
6.790000	290.894245
6.800000	293.388036
6.810000	297.289140
6.820000	302.776722
6.830000	306.001752
6.840000	307.840447
6.850000	310.379693
6.860000	312.223218
6.870000	312.754999
6.880000	311.267566
6.890000	306.122847
6.900000	298.314174
6.910000	286.479191
6.920000	273.366971
6.930000	255.145619
6.940000	231.089721
6.950000	203.147404
6.960000	170.131799
6.970000	136.158279
6.980000	104.833596
6.990000	86.181149
7.000000	85.516753
7.010000	106.527086
7.020000	145.507068
7.030000	194.522118
7.040000	247.162201
7.050000	294.504127
7.060000	330.485651
7.070000	349.481042
7.080000	353.824582
7.090000	349.461402
7.100000	340.150947
7.110000	331.440012
7.120000	324.458424
7.130000	319.409223
7.140000	314.754163
7.150000	308.704019
7.160000	303.386831
7.170000	302.328718
7.180000	307.006491
7.190000	314.266542
7.200000	319.614866
7.210000	324.546431
7.220000	330.214469
7.230000	339.155501
7.240000	350.128958
7.250000	361.755994
7.260000	375.041673
7.270000	387.338007
7.280000	398.953934
7.290000	409.910520
7.300000	421.861836
7.310000	435.805584
7.320000	451.423674
7.330000	468.357946
7.340000	485.975352
7.350000	503.901466
7.360000	521.516655
7.370000	540.107033
7.380000	558.374182
7.390000	575.971710
7.400000	592.888964
7.410000	610.496348
7.420000	628.053947
7.430000	646.013414
7.440000	665.208959
7.450000	685.516646
7.460000	706.017065
7.470000	728.682910
7.480000	754.477293
7.490000	776.482226
7.500000	784.917487
7.510000	777.623424
7.520000	756.355843
7.530000	724.756995
7.540000	685.779272
7.550000	640.204679
7.560000	581.502460
7.570000	510.614138
7.580000	432.401626
7.590000	359.119040
7.600000	295.910360
7.610000	238.202502
7.620000	175.901983
7.630000	102.241310
7.640000	20.702421
7.650000	-62.290091
7.660000	-142.892852
7.670000	-210.960660
7.680000	-265.098109
7.690000	-313.985789
7.700000	-362.445538
7.710000	-412.687655
7.720000	-455.445604
7.730000	-488.426414
7.740000	-517.486039
7.750000	-546.177076
7.760000	-571.861270
7.770000	-588.269804
7.780000	-596.943556
7.790000	-603.392600
7.800000	-604.688723
7.810000	-604.553273
7.820000	-603.444760
7.830000	-603.070756
7.840000	-599.873259
7.850000	-592.280826
7.860000	-579.992581
7.870000	-558.500206
7.880000	-533.160060
7.890000	-508.739223
7.900000	-489.681427
7.910000	-466.628626
7.920000	-441.923408
7.930000	-423.555530
7.940000	-419.520905
7.950000	-428.813383
7.960000	-448.803119
7.970000	-475.423300
7.980000	-500.430039
7.990000	-517.060290
8.000000	-524.095352
8.010000	-524.732733
8.020000	-525.794094
8.030000	-532.758447
8.040000	-543.495711
8.050000	-552.131126
8.060000	-557.567840
8.070000	-559.864505
8.080000	-560.334409
8.090000	-558.283493
8.100000	-555.799868
8.110000	-553.389509
8.120000	-547.946900
8.130000	-540.531906
8.140000	-529.444739
8.150000	-514.704187
8.160000	-491.621585
8.170000	-455.568671
8.180000	-403.829152
8.190000	-339.140368
8.200000	-268.036939
8.210000	-192.737909
8.220000	-118.000527
8.230000	-50.663843
8.240000	7.340926
8.250000	54.710733
8.260000	92.683191
8.270000	120.052328
8.280000	138.674176
8.290000	153.041391
8.300000	165.298853
8.310000	173.659707
8.320000	179.906630
8.330000	186.920914
8.340000	195.147499
8.350000	195.796449
8.360000	178.022322
8.370000	142.342698
8.380000	92.545537
8.390000	35.871077
8.400000	-19.623119
8.410000	-70.306918
8.420000	-114.825669
8.430000	-155.857064
8.440000	-193.381985
8.450000	-226.766791
8.460000	-252.959690
8.470000	-273.717852
8.480000	-292.236230
8.490000	-314.036948
8.500000	-339.192870
8.510000	-365.043691
8.520000	-389.513020
8.530000	-411.080619
8.540000	-430.200665
8.550000	-445.474610
8.560000	-458.926606
8.570000	-468.887425
8.580000	-476.021328
8.590000	-478.656263
8.600000	-477.150800
8.610000	-474.795725
8.620000	-470.631226
8.630000	-466.305033
8.640000	-460.131903
8.650000	-453.518956
8.660000	-447.327250
8.670000	-440.423617
8.680000	-431.886100
8.690000	-420.690960
8.700000	-409.150445
8.710000	-397.983628
8.720000	-384.769229
8.730000	-369.980671
8.740000	-354.418697
8.750000	-336.333853
8.760000	-315.769586
8.770000	-297.730511
8.780000	-295.506432
8.790000	-315.805641
8.800000	-355.579709
8.810000	-407.565770
8.820000	-461.340890
8.830000	-510.700741
8.840000	-552.473660
8.850000	-587.877698
8.860000	-619.640504
8.870000	-648.412204
8.880000	-672.163236
8.890000	-687.974168
8.900000	-699.400302
8.910000	-709.899061
8.920000	-724.671997
8.930000	-739.160289
8.940000	-753.319201
8.950000	-764.109697
8.960000	-772.339999
8.970000	-776.749738
8.980000	-777.728258
8.990000	-778.426904
9.000000	-777.132632
9.010000	-775.141744
9.020000	-768.552066
9.030000	-759.235037
9.040000	-746.660751
9.050000	-733.365846
9.060000	-720.126939
9.070000	-705.853769
9.080000	-690.959397
9.090000	-674.366302
9.100000	-656.825473
9.110000	-637.569813
9.120000	-617.390860
9.130000	-596.132298
9.140000	-572.314062
9.150000	-548.066018
9.160000	-523.927417
9.170000	-501.029082
9.180000	-476.223265
9.190000	-447.355644
9.200000	-415.555422
9.210000	-385.385442
9.220000	-365.592725
9.230000	-361.432483
9.240000	-374.647056
9.250000	-398.816957
9.260000	-426.391300
9.270000	-451.231501
9.280000	-472.175237
9.290000	-489.676338
9.300000	-502.981540
9.310000	-512.483162
9.320000	-516.808324
9.330000	-515.317148
9.340000	-510.334883
9.350000	-504.510131
9.360000	-501.221365
9.370000	-498.713406
9.380000	-495.466020
9.390000	-491.611882
9.400000	-486.064451
9.410000	-479.538890
9.420000	-472.017577
9.430000	-464.157581
9.440000	-454.320680
9.450000	-441.467311
9.460000	-425.649287
9.470000	-408.804504
9.480000	-389.992044
9.490000	-371.171491
9.500000	-351.682533
9.510000	-331.227500
9.520000	-309.728081
9.530000	-285.633684
9.540000	-262.140643
9.550000	-237.379688
9.560000	-213.584631
9.570000	-190.137770
9.580000	-166.047252
9.590000	-140.248397
9.600000	-111.862880
9.610000	-84.389958
9.620000	-59.358421
9.630000	-33.536849
9.640000	-6.546616
9.650000	18.622443
9.660000	38.579778
9.670000	51.100881
9.680000	55.693795
9.690000	51.895852
9.700000	43.469455
9.710000	35.678571
9.720000	30.219193
9.730000	26.438971
9.740000	24.622555
9.750000	24.515861
9.760000	29.687971
9.770000	38.229509
