Time(s)	IR_denoised_wiener
0.000000	898.865162
0.010000	1153.786019
0.020000	910.063113
0.030000	1110.733525
0.040000	1440.205286
0.050000	1987.136375
0.060000	2478.031243
0.070000	3091.793653
0.080000	3399.533128
0.090000	3374.233377
0.100000	3082.972153
0.110000	2719.700285
0.120000	2359.095631
0.130000	1883.651366
0.140000	1348.371573
0.150000	806.275590
0.160000	353.110063
0.170000	21.070385
0.180000	-224.991371
0.190000	-423.465433
0.200000	-708.009589
0.210000	-1043.526294
0.220000	-1328.166423
0.230000	-1535.449521
0.240000	-1724.213018
0.250000	-1940.325953
0.260000	-2150.698286
0.270000	-2269.045194
0.280000	-2375.964183
0.290000	-2289.365233
0.300000	-2110.330123
0.310000	-1888.198770
0.320000	-1511.911095
0.330000	-1098.648063
0.340000	-564.929762
0.350000	-221.167975
0.360000	135.806796
0.370000	527.156923
0.380000	801.079739
0.390000	859.307042
0.400000	672.219482
0.410000	424.390440
0.420000	201.098215
0.430000	-76.632196
0.440000	-241.000111
0.450000	-356.280371
0.460000	-347.370367
0.470000	-369.883579
0.480000	-442.352082
0.490000	-466.487170
0.500000	-446.603452
0.510000	-404.459789
0.520000	-480.836106
0.530000	-591.468624
0.540000	-686.818378
0.550000	-737.854623
0.560000	-814.727149
0.570000	-891.965336
0.580000	-940.947855
0.590000	-943.090781
0.600000	-881.159333
0.610000	-698.093807
0.620000	-479.081690
0.630000	-236.884650
0.640000	-0.033983
0.650000	233.421729
0.660000	633.488921
0.670000	1260.106207
0.680000	1811.699432
0.690000	2352.141725
0.700000	2718.969043
0.710000	2870.523227
0.720000	2708.096226
0.730000	2349.848038
0.740000	2252.835262
0.750000	2161.563522
0.760000	1980.026777
0.770000	1692.848230
0.780000	1304.955154
0.790000	935.460966
0.800000	511.036014
0.810000	-29.879633
0.820000	-498.514612
0.830000	-942.522012
0.840000	-1200.811043
0.850000	-1322.059716
0.860000	-1329.022158
0.870000	-1157.009839
0.880000	-917.035126
0.890000	-570.535102
0.900000	-187.331753
0.910000	91.090164
0.920000	318.588832
0.930000	488.563396
0.940000	613.576070
0.950000	725.436844
0.960000	792.402769
0.970000	940.758331
0.980000	1065.274255
0.990000	1208.165423
1.000000	1267.764505
1.010000	1220.801757
1.020000	1037.584325
1.030000	782.710903
1.040000	417.133252
1.050000	186.415480
1.060000	26.177887
1.070000	-89.761438
1.080000	-85.149274
1.090000	-97.177810
1.100000	6.610900
1.110000	-100.508710
1.120000	-92.155198
1.130000	65.703951
1.140000	305.479379
1.150000	525.502732
1.160000	731.755945
1.170000	1030.924353
1.180000	1365.928898
1.190000	1649.943706
1.200000	1889.370591
1.210000	2035.825176
1.220000	2037.147737
1.230000	1965.059269
1.240000	1841.132730
1.250000	1732.430413
1.260000	1648.973015
1.270000	1618.528768
1.280000	1562.867127
1.290000	1436.394874
1.300000	1237.560120
1.310000	1061.203445
1.320000	838.146793
1.330000	607.988063
1.340000	368.963591
1.350000	163.905329
1.360000	2.365579
1.370000	-68.063234
1.380000	-51.030385
1.390000	20.563746
1.400000	141.324842
1.410000	297.844119
1.420000	492.732569
1.430000	753.200315
1.440000	1003.198039
1.450000	1227.397729
1.460000	1563.424464
1.470000	1850.449350
1.480000	2198.401550
1.490000	2419.690543
1.500000	2647.599719
1.510000	2677.008430
1.520000	2538.450966
1.530000	2414.081590
1.540000	2337.900456
1.550000	2231.183275
1.560000	2058.138953
1.570000	1907.965617
1.580000	1790.496429
1.590000	1721.433956
1.600000	1612.237038
1.610000	1630.942680
1.620000	1594.682413
1.630000	1591.196076
1.640000	1549.693329
1.650000	1578.943118
1.660000	1650.326880
1.670000	1799.198678
1.680000	1977.062432
1.690000	2130.438998
1.700000	2216.157542
1.710000	2247.164147
1.720000	2233.909272
1.730000	2083.267720
1.740000	1887.833409
1.750000	1655.132697
1.760000	1405.119449
1.770000	1106.183196
1.780000	784.557542
1.790000	441.156690
1.800000	175.257684
1.810000	-28.192600
1.820000	-124.554315
1.830000	-218.629092
1.840000	-263.293114
1.850000	-306.337675
1.860000	-320.504508
1.870000	-359.280745
1.880000	-349.715330
1.890000	-199.183798
1.900000	-6.800778
1.910000	331.121512
1.920000	557.440094
1.930000	806.819674
1.940000	818.577857
1.950000	841.900315
1.960000	915.786425
1.970000	997.069383
1.980000	900.250837
1.990000	632.079233
2.000000	334.732634
2.010000	72.185693
2.020000	-139.606746
2.030000	-365.954357
2.040000	-471.084505
2.050000	-641.337134
2.060000	-755.409341
2.070000	-884.942575
2.080000	-950.679797
2.090000	-926.721984
2.100000	-865.192635
2.110000	-780.760605
2.120000	-696.090176
2.130000	-628.481223
2.140000	-549.225400
2.150000	-548.559893
2.160000	-624.138335
2.170000	-698.130544
2.180000	-756.927594
2.190000	-790.745599
2.200000	-860.946786
2.210000	-911.072194
2.220000	-1004.664664
2.230000	-1142.930614
2.240000	-1338.450758
2.250000	-1513.578790
2.260000	-1649.436424
2.270000	-1811.163139
2.280000	-1978.226103
2.290000	-2087.670854
2.300000	-2151.929935
2.310000	-2060.214435
2.320000	-1879.496832
2.330000	-1594.908577
2.340000	-1189.099425
2.350000	-881.295495
2.360000	-521.397787
2.370000	-309.354466
2.380000	87.722906
2.390000	505.175126
2.400000	875.063902
2.410000	1189.156226
2.420000	1355.461909
2.430000	1493.337724
2.440000	1458.755951
2.450000	1386.236563
2.460000	1328.109378
2.470000	1259.207173
2.480000	1127.005109
2.490000	927.929153
2.500000	729.044584
2.510000	528.410796
2.520000	337.068365
2.530000	141.105346
2.540000	-66.608334
2.550000	-320.996099
2.560000	-643.301002
2.570000	-947.858007
2.580000	-1193.838125
2.590000	-1309.022220
2.600000	-1293.629933
2.610000	-1231.138029
2.620000	-1151.999557
2.630000	-1065.920822
2.640000	-983.763495
2.650000	-936.483784
2.660000	-931.855902
2.670000	-929.975086
2.680000	-869.616194
2.690000	-742.338285
2.700000	-544.784511
2.710000	-334.596882
2.720000	-110.853632
2.730000	88.308463
2.740000	220.335878
2.750000	370.501868
2.760000	408.202315
2.770000	512.481805
2.780000	617.999797
2.790000	800.785162
2.800000	832.562823
2.810000	767.799292
2.820000	748.299458
2.830000	829.843731
2.840000	931.593624
2.850000	944.409382
2.860000	945.330930
2.870000	911.966552
2.880000	996.812689
2.890000	1141.541611
2.900000	1400.199507
2.910000	1552.960350
2.920000	1620.843184
2.930000	1606.256126
2.940000	1522.444229
2.950000	1379.804458
2.960000	1245.126639
2.970000	1162.549811
2.980000	1120.581566
2.990000	1062.094542
3.000000	1035.249793
3.010000	1009.680433
3.020000	950.829403
3.030000	879.005955
3.040000	746.477106
3.050000	570.765047
3.060000	361.022191
3.070000	192.960008
3.080000	38.534717
3.090000	-102.516966
3.100000	-211.315735
3.110000	-246.347979
3.120000	-198.338254
3.130000	-67.622896
3.140000	102.436233
3.150000	203.839185
3.160000	284.552981
3.170000	342.744389
3.180000	348.839458
3.190000	457.400610
3.200000	551.625229
3.210000	767.662212
3.220000	956.203612
3.230000	1090.168831
3.240000	1097.901542
3.250000	943.347875
3.260000	840.526943
3.270000	739.709122
3.280000	631.502388
3.290000	456.504904
3.300000	267.022502
3.310000	77.767918
3.320000	-28.701264
3.330000	-46.276636
3.340000	27.466547
3.350000	40.154628
3.360000	31.395257
3.370000	22.769279
3.380000	48.925381
3.390000	88.127210
3.400000	152.445796
3.410000	251.709038
3.420000	345.390589
3.430000	385.498997
3.440000	337.266288
3.450000	231.028307
3.460000	30.853132
3.470000	-239.385689
3.480000	-566.029701
3.490000	-917.860462
3.500000	-1238.620154
3.510000	-1535.286023
3.520000	-1815.991600
3.530000	-2065.425710
3.540000	-2310.257560
3.550000	-2495.788474
3.560000	-2663.568436
3.570000	-2783.402067
3.580000	-2900.869289
3.590000	-2990.269024
3.600000	-3047.011207
3.610000	-3033.495653
3.620000	-3016.557536
3.630000	-2988.301817
3.640000	-2813.205310
3.650000	-2535.387214
3.660000	-2134.796495
3.670000	-1805.514211
3.680000	-1560.343718
3.690000	-1472.929358
3.700000	-1425.486651
3.710000	-1322.861906
3.720000	-1282.001126
3.730000	-1412.229592
3.740000	-1671.222216
3.750000	-1905.081027
3.760000	-2134.045496
3.770000	-2332.931983
3.780000	-2491.367426
3.790000	-2533.060206
3.800000	-2605.094858
3.810000	-2698.886506
3.820000	-2790.572931
3.830000	-2830.768924
3.840000	-2842.376033
3.850000	-2869.168742
3.860000	-2884.780124
3.870000	-2904.811014
3.880000	-2939.964813
3.890000	-3010.607388
3.900000	-3108.197834
3.910000	-3215.842021
3.920000	-3281.796462
3.930000	-3307.350408
3.940000	-3322.602399
3.950000	-3372.026524
3.960000	-3420.317505
3.970000	-3482.636228
3.980000	-3562.796426
3.990000	-3699.135716
4.000000	-3844.836381
4.010000	-3990.867177
4.020000	-4076.529198
4.030000	-4118.940361
4.040000	-4096.242821
4.050000	-4061.346596
4.060000	-3957.115037
4.070000	-3782.701402
4.080000	-3465.584122
4.090000	-3019.419705
4.100000	-2635.668075
4.110000	-2288.667880
4.120000	-2133.708246
4.130000	-1861.097835
4.140000	-1622.474018
4.150000	-1501.131573
4.160000	-1495.464382
4.170000	-1621.337352
4.180000	-1710.740039
4.190000	-1870.755271
4.200000	-1975.164405
4.210000	-2017.624831
4.220000	-2036.165924
4.230000	-2081.316882
4.240000	-2136.103064
4.250000	-2164.075993
4.260000	-2219.409158
4.270000	-2264.703138
4.280000	-2305.619213
4.290000	-2307.003340
4.300000	-2286.425357
4.310000	-2279.804656
4.320000	-2287.249949
4.330000	-2310.393037
4.340000	-2312.752136
4.350000	-2292.524991
4.360000	-2268.425028
4.370000	-2262.112081
4.380000	-2266.799504
4.390000	-2280.491366
4.400000	-2294.935141
4.410000	-2321.702741
4.420000	-2369.840765
4.430000	-2416.268734
4.440000	-2457.575855
4.450000	-2507.991187
4.460000	-2527.937062
4.470000	-2547.678576
4.480000	-2571.666333
4.490000	-2509.209461
4.500000	-2360.749874
4.510000	-2027.905362
4.520000	-1647.581894
4.530000	-1297.874424
4.540000	-1143.084478
4.550000	-1074.192339
4.560000	-890.433712
4.570000	-624.582728
4.580000	-434.556773
4.590000	-400.856328
4.600000	-445.339013
4.610000	-559.414919
4.620000	-663.686455
4.630000	-721.516352
4.640000	-693.116353
4.650000	-727.559997
4.660000	-795.812925
4.670000	-894.094564
4.680000	-963.445202
4.690000	-1039.976535
4.700000	-1064.567885
4.710000	-1022.397827
4.720000	-938.550161
4.730000	-860.629966
4.740000	-844.636811
4.750000	-896.805729
4.760000	-1004.417357
4.770000	-1096.566615
4.780000	-1171.464976
4.790000	-1255.146789
4.800000	-1275.651943
4.810000	-1219.294466
4.820000	-1138.426680
4.830000	-1094.204984
4.840000	-1107.829263
4.850000	-1124.977921
4.860000	-1134.084702
4.870000	-1060.311410
4.880000	-964.780133
4.890000	-967.538871
4.900000	-1083.918966
4.910000	-1058.084779
4.920000	-708.657737
4.930000	-317.631010
4.940000	0.336588
4.950000	332.986641
4.960000	772.284967
4.970000	1181.252405
4.980000	1513.426692
4.990000	1983.514695
5.000000	2653.763341
5.010000	3146.516878
5.020000	3516.904560
5.030000	3749.943476
5.040000	3920.911741
5.050000	4211.949348
5.060000	4651.115858
5.070000	5338.440689
5.080000	5649.285059
5.090000	5754.406363
5.100000	5994.210845
5.110000	6335.972042
5.120000	6413.178883
5.130000	6193.749413
5.140000	6028.158232
5.150000	5845.330282
5.160000	5475.829429
5.170000	5030.644015
5.180000	4571.328124
5.190000	4024.216879
5.200000	3287.714510
5.210000	2540.858785
5.220000	1811.651488
5.230000	1074.987398
5.240000	359.702987
5.250000	-225.698362
5.260000	-476.346911
5.270000	-567.794612
5.280000	-522.675333
5.290000	-410.049792
5.300000	-138.259966
5.310000	179.100768
5.320000	386.343044
5.330000	589.273260
5.340000	755.871670
5.350000	1109.451658
5.360000	1513.717662
5.370000	2037.164694
5.380000	2758.230224
5.390000	3489.788023
5.400000	4137.972361
5.410000	4409.838386
5.420000	4561.530134
5.430000	4678.728427
5.440000	4773.527315
5.450000	4712.193084
5.460000	4280.278216
5.470000	3507.637709
5.480000	2798.366171
5.490000	2329.100293
5.500000	1822.851055
5.510000	1133.231238
5.520000	444.219760
5.530000	39.612897
5.540000	-344.271896
5.550000	-861.393978
5.560000	-1218.224285
5.570000	-1400.858554
5.580000	-1433.303713
5.590000	-1389.817276
5.600000	-1259.505271
5.610000	-1252.739593
5.620000	-1540.621364
5.630000	-1827.736168
5.640000	-2056.078271
5.650000	-2254.994580
5.660000	-2460.241185
5.670000	-2599.644768
5.680000	-2642.873690
5.690000	-2646.220657
5.700000	-2416.508553
5.710000	-2097.409018
5.720000	-1838.847613
5.730000	-1784.934811
5.740000	-2029.067157
5.750000	-2302.819630
5.760000	-2645.484343
5.770000	-2921.576551
5.780000	-2960.155937
5.790000	-2907.556312
5.800000	-2756.757374
5.810000	-2590.466490
5.820000	-2502.071699
5.830000	-2410.246586
5.840000	-2592.387282
5.850000	-2681.605971
5.860000	-2661.681042
5.870000	-2652.353335
5.880000	-2672.043884
5.890000	-2668.586991
5.900000	-2623.177969
5.910000	-2603.403643
5.920000	-2632.201221
5.930000	-2671.062732
5.940000	-2656.834031
5.950000	-2779.426838
5.960000	-2940.350695
5.970000	-3163.803223
5.980000	-3318.782380
5.990000	-3406.884387
6.000000	-3500.749059
6.010000	-3623.836266
6.020000	-3761.282176
6.030000	-3886.426658
6.040000	-4036.661319
6.050000	-4213.922276
6.060000	-4335.476331
6.070000	-4387.274076
6.080000	-4389.385018
6.090000	-4325.525062
6.100000	-4237.451191
6.110000	-4164.767218
6.120000	-4169.240976
6.130000	-4169.611565
6.140000	-4168.254439
6.150000	-4172.128036
6.160000	-4189.931099
6.170000	-4188.520191
6.180000	-4168.021907
6.190000	-4024.615085
6.200000	-3837.602695
6.210000	-3527.258962
6.220000	-3177.952007
6.230000	-2914.330001
6.240000	-2682.793627
6.250000	-2598.511782
6.260000	-2426.318877
6.270000	-2359.514852
6.280000	-2367.539029
6.290000	-2464.950191
6.300000	-2638.322578
6.310000	-2814.527041
6.320000	-2980.575347
6.330000	-3049.202452
6.340000	-3037.081339
6.350000	-3018.000984
6.360000	-3091.623117
6.370000	-3212.029519
6.380000	-3340.145313
6.390000	-3434.344421
6.400000	-3486.384307
6.410000	-3551.122788
6.420000	-3542.859092
6.430000	-3512.229129
6.440000	-3458.143640
6.450000	-3411.707349
6.460000	-3391.007493
6.470000	-3327.895356
6.480000	-3292.863670
6.490000	-3289.175119
6.500000	-3340.383507
6.510000	-3430.285112
6.520000	-3482.007617
6.530000	-3518.939506
6.540000	-3553.869744
6.550000	-3637.296013
6.560000	-3738.772823
6.570000	-3761.397963
6.580000	-3768.374962
6.590000	-3595.800121
6.600000	-3420.167306
6.610000	-3124.315622
6.620000	-2788.753705
6.630000	-2391.130988
6.640000	-2017.217325
6.650000	-1834.415356
6.660000	-1605.144601
6.670000	-1433.545429
6.680000	-1270.221814
6.690000	-1235.043186
6.700000	-1188.487176
6.710000	-1200.013315
6.720000	-1245.057138
6.730000	-1199.270003
6.740000	-1066.871956
6.750000	-959.043300
6.760000	-1024.009115
6.770000	-1138.957186
6.780000	-1276.959052
6.790000	-1450.192313
6.800000	-1618.643876
6.810000	-1758.681723
6.820000	-1840.853052
6.830000	-1828.021407
6.840000	-1756.800529
6.850000	-1641.834172
6.860000	-1619.948017
6.870000	-1584.841264
6.880000	-1511.177623
6.890000	-1361.004422
6.900000	-1180.493299
6.910000	-1027.051076
6.920000	-882.785746
6.930000	-688.833056
6.940000	-396.284330
6.950000	-16.289713
6.960000	471.462854
6.970000	1040.286309
6.980000	1661.368377
6.990000	2224.806193
7.000000	2889.180293
7.010000	3468.551200
7.020000	4047.910092
7.030000	4577.101125
7.040000	5065.648919
7.050000	5406.845901
7.060000	5574.458483
7.070000	5786.446666
7.080000	5993.722091
7.090000	6061.668888
7.100000	5948.766572
7.110000	5747.118744
7.120000	5440.375880
7.130000	5158.836118
7.140000	4951.963244
7.150000	4927.248245
7.160000	4851.485507
7.170000	4680.050877
7.180000	4486.205978
7.190000	4355.764254
7.200000	4281.214879
7.210000	4236.306031
7.220000	4189.424020
7.230000	4165.887542
7.240000	4133.025626
7.250000	4122.866841
7.260000	4081.278993
7.270000	3974.792928
7.280000	3923.512463
7.290000	3840.042319
7.300000	3710.175052
7.310000	3444.314279
7.320000	3156.628431
7.330000	2906.668846
7.340000	2716.880640
7.350000	2574.495549
7.360000	2440.297149
7.370000	2264.197406
7.380000	2124.639748
7.390000	1985.826602
7.400000	1881.081330
7.410000	1804.926379
7.420000	1721.016618
7.430000	1789.478922
7.440000	1865.361769
7.450000	2096.083566
7.460000	2310.081187
7.470000	2529.137566
7.480000	2649.709299
7.490000	2707.494831
7.500000	2780.375331
7.510000	2781.990942
7.520000	2663.736204
7.530000	2429.557052
7.540000	2176.613258
7.550000	1861.999776
7.560000	1600.853500
7.570000	1430.492333
7.580000	1478.606638
7.590000	1635.598942
7.600000	2098.134485
7.610000	2906.878367
7.620000	3855.252278
7.630000	4947.005546
7.640000	6127.146508
7.650000	7425.972428
7.660000	8696.827821
7.670000	9808.255089
7.680000	10982.087739
7.690000	12020.327088
7.700000	12970.966512
7.710000	13772.709510
7.720000	14406.906985
7.730000	14998.096997
7.740000	15385.342306
7.750000	15269.383883
7.760000	14237.028941
7.770000	12224.402019
7.780000	9401.633992
7.790000	6705.692671
7.800000	4651.074219
7.810000	3104.648790
7.820000	1859.407026
7.830000	1309.085010
7.840000	1689.011720
7.850000	2657.214616
7.860000	3546.669053
7.870000	3509.793480
7.880000	3152.597024
7.890000	2624.730212
7.900000	2426.432234
7.910000	2621.746232
7.920000	3058.951827
7.930000	3889.204093
7.940000	4609.952231
7.950000	5194.912593
7.960000	5216.124850
7.970000	4990.608908
7.980000	4700.869206
7.990000	4372.147307
8.000000	4082.365066
8.010000	3780.270500
8.020000	3634.069334
8.030000	3243.771463
8.040000	2802.339910
8.050000	2364.496455
8.060000	2089.166389
8.070000	1963.685827
8.080000	1854.930289
8.090000	1850.081160
8.100000	1863.486285
8.110000	1868.905714
8.120000	1804.877479
8.130000	1643.085795
8.140000	1449.123631
8.150000	1287.191615
8.160000	1103.307267
8.170000	960.546871
8.180000	824.817784
8.190000	702.272257
8.200000	539.757499
8.210000	340.410146
8.220000	245.667449
8.230000	171.518352
8.240000	115.055492
8.250000	31.432511
8.260000	-35.726527
8.270000	-131.978854
8.280000	-188.943717
8.290000	-188.945121
8.300000	-139.981255
8.310000	122.478449
8.320000	411.597935
8.330000	775.795754
8.340000	913.462475
8.350000	1058.830655
8.360000	1225.633063
8.370000	1412.067015
8.380000	1468.307009
8.390000	1328.108631
8.400000	1100.035880
8.410000	846.931900
8.420000	763.700449
8.430000	673.639927
8.440000	719.480170
8.450000	626.772355
8.460000	569.393866
8.470000	462.763248
8.480000	358.248359
8.490000	282.252030
8.500000	179.778124
8.510000	129.004476
8.520000	110.269440
8.530000	133.400569
8.540000	170.886567
8.550000	186.333008
8.560000	186.181134
8.570000	198.216236
8.580000	177.834754
8.590000	105.057344
8.600000	-13.215176
8.610000	-145.478980
8.620000	-246.339590
8.630000	-298.539515
8.640000	-317.334527
8.650000	-350.471471
8.660000	-412.688611
8.670000	-460.360557
8.680000	-483.587039
8.690000	-520.166650
8.700000	-603.593927
8.710000	-560.191624
8.720000	-521.227203
8.730000	-305.815686
8.740000	-19.437710
8.750000	335.050477
8.760000	628.211547
8.770000	758.533171
8.780000	951.297269
8.790000	1063.208169
8.800000	1145.788430
8.810000	1067.917601
8.820000	959.865978
8.830000	791.721243
8.840000	673.527791
8.850000	708.371331
8.860000	761.400676
8.870000	826.906386
8.880000	730.004860
8.890000	640.917588
8.900000	513.542189
8.910000	368.638729
8.920000	249.667157
8.930000	206.902873
8.940000	255.886665
8.950000	321.105864
8.960000	389.799779
8.970000	423.424943
8.980000	399.609863
8.990000	346.066448
9.000000	262.192694
9.010000	147.557914
9.020000	-11.412110
9.030000	-189.998007
9.040000	-329.076011
9.050000	-484.023032
9.060000	-586.555916
9.070000	-700.902010
9.080000	-848.743325
9.090000	-1050.603182
9.100000	-1263.582930
9.110000	-1491.927903
9.120000	-1717.188602
9.130000	-1945.817077
9.140000	-2202.340963
9.150000	-2263.189514
9.160000	-2244.258005
9.170000	-2070.203294
9.180000	-1870.237735
9.190000	-1729.932325
9.200000	-1582.635399
9.210000	-1557.703294
9.220000	-1431.568203
9.230000	-1349.994010
9.240000	-1300.238540
9.250000	-1357.366299
9.260000	-1451.685882
9.270000	-1657.308982
9.280000	-1852.438069
9.290000	-1930.470479
9.300000	-2000.293340
9.310000	-2042.458184
9.320000	-2220.163078
9.330000	-2371.733860
9.340000	-2608.964938
9.350000	-2830.606162
9.360000	-2982.745985
9.370000	-3123.302164
9.380000	-3283.972269
9.390000	-3446.712817
9.400000	-3521.853757
9.410000	-3530.279689
9.420000	-3538.045836
9.430000	-3561.564004
9.440000	-3602.050548
