2025-07-21 16:18:45    绿光---红外光---红光---X轴---Y轴---Z轴
54717 236345 259355 -8383 13681 -854
54733 236198 259249 -8382 13675 -857
54730 236077 259189 -8398 13711 -839
54719 236005 259188 -8409 13750 -826
54701 235964 259198 -8399 13755 -836
54681 235957 259217 -8384 13742 -834
54663 235955 259214 -8374 13739 -819
54644 235941 259202 -8363 13750 -821
54631 235949 259199 -8355 13779 -830
54625 235958 259216 -8348 13811 -833
54617 235934 259189 -8342 13797 -833
54612 235943 259188 -8340 13787 -847
54618 235972 259201 -8348 13798 -851
54616 235962 259180 -8358 13793 -855
54617 235940 259159 -8368 13776 -877
54618 235930 259143 -8375 13775 -875
54617 235915 259139 -8375 13760 -858
54616 235918 259145 -8370 13736 -855
54621 235937 259166 -8365 13731 -856
54621 235939 259178 -8371 13731 -846
54622 235950 259177 -8380 13732 -833
54630 235968 259197 -8382 13737 -835
54636 235996 259217 -8378 13750 -843
54647 236018 259210 -8376 13761 -834
54655 236035 259212 -8384 13802 -840
54666 236053 259225 -8376 13811 -831
54677 236076 259238 -8372 13801 -838
54691 236101 259237 -8369 13773 -837
54707 236124 259244 -8369 13760 -829
54723 236158 259263 -8377 13738 -826
54740 236174 259277 -8375 13727 -838
54760 236205 259294 -8370 13734 -844
54779 236230 259307 -8371 13735 -847
54795 236251 259320 -8368 13757 -881
54814 236268 259327 -8373 13738 -874
54830 236277 259319 -8379 13719 -859
54850 236300 259317 -8390 13715 -836
54863 236321 259320 -8394 13697 -832
54883 236346 259345 -8393 13668 -834
54900 236353 259320 -8395 13667 -815
54906 236338 259261 -8387 13689 -799
54924 236381 259302 -8370 13684 -806
54947 236336 259269 -8362 13751 -835
54954 236165 259119 -8386 13799 -793
54950 235985 258997 -8387 13779 -791
54942 235860 258940 -8377 13736 -824
54933 235790 258941 -8360 13705 -834
54924 235782 258960 -8348 13710 -827
54918 235807 259007 -8345 13750 -833
54912 235827 259017 -8346 13796 -837
54908 235848 259046 -8352 13823 -843
54902 235858 259058 -8361 13822 -878
54890 235847 259052 -8367 13805 -909
54882 235858 259053 -8366 13775 -886
54882 235885 259071 -8364 13724 -865
54885 235909 259095 -8368 13689 -886
54884 235903 259081 -8379 13701 -888
54881 235894 259064 -8384 13737 -883
54879 235889 259066 -8377 13754 -901
54880 235882 259067 -8370 13758 -935
54878 235893 259088 -8365 13752 -944
54875 235907 259099 -8367 13740 -937
54876 235922 259103 -8380 13741 -934
54879 235934 259119 -8398 13731 -929
54884 235979 259158 -8401 13719 -941
54891 236013 259178 -8393 13729 -941
54896 236019 259161 -8385 13745 -923
54897 236027 259145 -8371 13763 -921
54901 236025 259142 -8360 13770 -927
54906 236045 259146 -8359 13769 -927
54921 236081 259156 -8355 13766 -927
54930 236108 259173 -8347 13751 -935
54938 236121 259169 -8339 13776 -955
54950 236150 259186 -8349 13796 -955
54960 236171 259191 -8358 13792 -953
54971 236187 259196 -8374 13775 -938
54982 236208 259204 -8387 13750 -930
55002 236248 259239 -8388 13730 -940
55016 236282 259268 -8392 13719 -940
55032 236317 259294 -8397 13737 -933
55046 236353 259327 -8391 13765 -937
55066 236406 259387 -8376 13773 -943
55092 236481 259459 -8376 13767 -917
55107 236516 259476 -8369 13710 -914
55119 236540 259480 -8367 13665 -930
55146 236597 259547 -8379 13703 -914
55178 236591 259568 -8392 13753 -879
55193 236478 259483 -8390 13773 -866
55197 236341 259410 -8377 13762 -869
55191 236242 259394 -8365 13736 -867
55181 236205 259427 -8352 13728 -866
55164 236204 259452 -8335 13759 -872
55146 236219 259489 -8323 13803 -888
55132 236236 259514 -8324 13834 -915
55120 236255 259534 -8342 13850 -915
55104 236252 259537 -8364 13848 -901
55086 236240 259510 -8372 13812 -896
55076 236249 259524 -8372 13754 -918
55070 236278 259535 -8377 13729 -927
55064 236286 259532 -8384 13738 -899
55054 236267 259514 -8383 13748 -899
55048 236244 259483 -8372 13756 -917
55041 236226 259473 -8355 13760 -927
55036 236241 259487 -8346 13745 -914
55032 236260 259516 -8347 13744 -886
55026 236274 259531 -8351 13763 -879
55025 236295 259553 -8347 13783 -883
55023 236310 259561 -8342 13793 -888
55020 236327 259569 -8347 13784 -883
55020 236350 259586 -8353 13766 -859
55021 236370 259587 -8354 13755 -838
55024 236396 259589 -8326 13755 -849
55028 236410 259600 -8329 13776 -835
55033 236432 259585 -8333 13808 -834
55042 236453 259590 -8338 13836 -841
55052 236476 259594 -8347 13839 -849
55061 236502 259603 -8356 13820 -842
55062 236507 259590 -8361 13805 -854
55061 236497 259552 -8367 13833 -880
55068 236514 259553 -8370 13864 -898
55081 236535 259559 -8354 13755 -838
55089 236548 259555 -8326 13755 -849
55101 236565 259550 -8329 13776 -835
55114 236583 259551 -8333 13808 -834
55128 236616 259574 -8338 13836 -841
55147 236672 259626 -8347 13839 -849
55158 236691 259618 -8356 13820 -842
55168 236703 259598 -8361 13805 -854
55187 236763 259643 -8367 13833 -880
55218 236817 259696 -8370 13864 -898
55237 236753 259638 -8384 13822 -929
55249 236612 259550 -8380 13762 -925
55255 236515 259530 -8369 13712 -912
55251 236456 259538 -8377 13678 -885
55235 236432 259558 -8386 13671 -857
55216 236429 259578 -8390 13639 -831
55197 236451 259607 -8389 13583 -830
55179 236466 259618 -8403 13576 -821
55163 236476 259622 -8426 13650 -780
55150 236491 259622 -8415 13708 -774
55142 236500 259619 -8396 13698 -790
55140 236533 259639 -8389 13703 -782
55138 236546 259632 -8374 13735 -780
55133 236531 259601 -8360 13758 -783
55128 236499 259572 -8350 13765 -782
55123 236495 259572 -8347 13778 -787
55115 236483 259550 -8356 13788 -789
55108 236470 259547 -8370 13770 -771
55100 236468 259528 -8385 13746 -753
55095 236472 259532 -8392 13741 -776
55092 236485 259534 -8392 13750 -805
55090 236502 259536 -8395 13742 -793
55091 236515 259537 -8397 13728 -783
55095 236557 259556 -8387 13732 -784
55094 236551 259538 -8382 13753 -769
55093 236551 259508 -8380 13768 -771
55094 236567 259500 -8375 13755 -770
55104 236588 259509 -8377 13729 -746
55112 236608 259507 -8378 13712 -724
55121 236619 259493 -8381 13721 -715
55125 236625 259488 -8382 13736 -732
55138 236647 259475 -8384 13729 -743
55151 236655 259474 -8391 13725 -727
55157 236673 259461 -8402 13726 -709
55170 236684 259460 -8401 13711 -715
55179 236691 259453 -8388 13704 -723
55196 236723 259472 -8380 13714 -726
55213 236765 259511 -8375 13721 -727
55233 236811 259540 -8380 13715 -728
55246 236834 259535 -8389 13680 -752
55253 236834 259499 -8435 13655 -780
55276 236877 259545 -8435 13617 -761
55297 236899 259551 -8440 13578 -735
55313 236787 259451 -8455 13549 -707
55318 236626 259345 -8460 13547 -701
55310 236466 259242 -8450 13578 -698
55291 236374 259228 -8429 13637 -714
55266 236350 259241 -8411 13710 -721
55238 236332 259242 -8392 13743 -728
55208 236313 259226 -8386 13742 -793
55176 236297 259199 -8404 13761 -750
55152 236305 259192 -8410 13749 -731
55133 236313 259195 -8403 13715 -753
55118 236325 259197 -8400 13649 -766
55105 236348 259200 -8411 13611 -767
55100 236354 259189 -8429 13638 -737
55094 236341 259163 -8423 13690 -708
55088 236337 259152 -8397 13729 -710
55083 236316 259135 -8361 13739 -718
55072 236295 259128 -8325 13722 -732
55063 236297 259126 -8314 13721 -735
55053 236308 259119 -8318 13742 -724
55042 236317 259140 -8323 13783 -728
55038 236333 259144 -8335 13815 -729
55029 236358 259156 -8352 13829 -728
55026 236373 259158 -8365 13834 -723
55023 236394 259164 -8380 13818 -712
55025 236420 259166 -8387 13788 -707
55028 236453 259184 -8389 13753 -710
55031 236456 259174 -8388 13738 -719
55029 236445 259127 -8382 13731 -715
55026 236444 259099 -8374 13713 -692
55031 236473 259110 -8367 13728 -675
55043 236493 259117 -8364 13755 -663
55049 236515 259107 -8370 13740 -653
55054 236526 259099 -8377 13720 -669
55066 236537 259092 -8386 13755 -683
55077 236551 259091 -8398 13796 -674
55084 236557 259082 -8398 13776 -679
55092 236577 259071 -8363 13696 -730
55101 236586 259067 -8360 13673 -718
55114 236606 259055 -8368 13683 -712
55124 236623 259056 -8380 13691 -708
55137 236645 259051 -8395 13669 -710
55146 236636 259004 -8406 13633 -719
55166 236687 259024 -8424 13618 -707
55189 236734 259080 -8431 13617 -697
55200 236639 258971 -8429 13627 -699
55209 236472 258844 -8412 13685 -737
55212 236342 258811 -8403 13685 -740
55203 236256 258834 -8401 13667 -724
55179 236207 258845 -8386 13646 -750
55147 236175 258845 -8382 13727 -769
55112 236173 258865 -8398 13835 -737
55080 236201 258895 -8403 13827 -727
55052 236231 258922 -8406 13751 -739
55032 236247 258939 -8405 13723 -731
55001 236242 258913 -8372 13747 -716
54982 236255 258920 -8366 13711 -709
54973 236295 258950 -8360 13682 -703
54959 236287 258929 -8358 13722 -700
54945 236257 258893 -8349 13766 -708
54935 236236 258870 -8338 13807 -718
54919 236219 258860 -8341 13839 -708
54909 236221 258872 -8340 13828 -708
54893 236217 258877 -8346 13839 -691
54879 236216 258859 -8354 13842 -682
54867 236232 258864 -8347 13806 -697
54858 236233 258854 -8342 13776 -689
54849 236260 258856 -8346 13769 -675
54844 236265 258857 -8356 13783 -678
54842 236286 258857 -8370 13783 -677
54842 236326 258881 -8382 13750 -683
54847 236357 258895 -8397 13720 -683
54851 236366 258884 -8409 13714 -678
54855 236388 258879 -8409 13703 -679
54861 236419 258901 -8403 13694 -693
54874 236444 258922 -8398 13711 -724
54886 236479 258936 -8391 13732 -738
54896 236504 258935 -8384 13742 -727
54910 236528 258941 -8388 13729 -720
54921 236537 258941 -8386 13708 -719
54931 236565 258946 -8383 13702 -713
54946 236576 258952 -8382 13696 -708
54960 236611 258980 -8375 13704 -709
54974 236631 258982 -8374 13718 -713
54988 236648 258972 -8385 13728 -713
55002 236687 259011 -8402 13738 -726
55013 236695 258986 -8404 13735 -735
55030 236721 258987 -8387 13734 -723
55058 236782 259056 -8374 13750 -718
55083 236776 259039 -8373 13772 -713
55099 236635 258941 -8372 13780 -704
55103 236490 258880 -8367 13792 -688
55095 236377 258864 -8363 13784 -665
55068 236299 258848 -8346 13719 -663
55037 236259 258847 -8336 13680 -668
55009 236263 258870 -8344 13782 -640
54983 236283 258901 -8350 13806 -640
54960 236306 258909 -8343 13810 -657
54944 236335 258934 -8332 13807 -673
54928 236333 258926 -8329 13797 -693
54918 236356 258923 -8323 13825 -709
54915 236386 258936 -8311 13872 -725
54911 236387 258908 -8311 13898 -737
54909 236369 258901 -8322 13892 -748
54908 236356 258891 -8336 13872 -758
54902 236336 258876 -8338 13835 -787
54894 236314 258882 -8340 13795 -811
54885 236309 258875 -8351 13792 -784
54878 236315 258881 -8361 13804 -771
54873 236334 258887 -8363 13793 -783
54868 236344 258892 -8363 13798 -779
54868 236368 258899 -8364 13795 -781
54868 236392 258908 -8360 13771 -779
54873 236398 258897 -8361 13758 -765
54875 236412 258892 -8362 13758 -761
54877 236435 258906 -8358 13763 -756
54890 236465 258919 -8359 13761 -750
54902 236485 258922 -8367 13762 -743
54915 236496 258924 -8375 13766 -738
54924 236517 258914 -8376 13756 -747
54942 236551 258944 -8370 13732 -756
54954 236570 258939 -8363 13721 -754
54967 236589 258938 -8363 13731 -759
54983 236618 258939 -8372 13760 -767
55004 236649 258973 -8372 13778 -763
55026 236669 258989 -8367 13753 -777
55046 236691 258993 -8377 13755 -745
55065 236724 259012 -8383 13750 -716
55086 236764 259035 -8378 13734 -705
55102 236764 259007 -8372 13721 -706
55122 236815 259043 -8363 13730 -705
55156 236876 259102 -8361 13753 -693
55178 236839 259061 -8367 13747 -692
55197 236694 258964 -8376 13733 -693
55208 236549 258901 -8362 13678 -745
55206 236444 258878 -8369 13703 -748
55192 236389 258888 -8394 13770 -717
55180 236376 258922 -8400 13796 -697
55168 236404 258970 -8390 13779 -703
55156 236437 259008 -8377 13747 -703
55142 236449 259018 -8366 13723 -687
55139 236482 259043 -8360 13707 -677
55131 236498 259054 -8352 13707 -675
55133 236531 259064 -8360 13783 -726
55138 236568 259079 -8363 13786 -722
55142 236582 259076 -8367 13757 -694
55151 236577 259062 -8363 13708 -686
55158 236562 259056 -8367 13693 -710
55159 236541 259046 -8372 13715 -718
55165 236525 259032 -8370 13736 -715
55167 236538 259056 -8372 13748 -733
55172 236547 259058 -8379 13757 -744
55178 236564 259078 -8388 13729 -752
55183 236596 259092 -8408 13698 -756
55191 236610 259091 -8424 13678 -733
55202 236631 259103 -8423 13668 -715
55209 236652 259095 -8418 13674 -718
55222 236673 259104 -8409 13682 -720
55235 236694 259105 -8401 13714 -719
55251 236723 259122 -8395 13725 -725
55270 236750 259134 -8392 13713 -724
55286 236770 259138 -8391 13709 -708
55300 236793 259139 -8391 13705 -697
55318 236819 259143 -8384 13720 -707
55335 236835 259146 -8376 13742 -724
55356 236864 259155 -8374 13757 -723
55376 236884 259161 -8375 13772 -709
55394 236900 259158 -8375 13767 -712
55420 236928 259170 -8375 13750 -713
55438 236936 259172 -8377 13743 -709
55463 236971 259198 -8379 13742 -711
55490 237015 259222 -8386 13729 -712
55506 237026 259205 -8384 13718 -715
55528 237059 259215 -8384 13731 -724
55563 237129 259289 -8389 13739 -725
55590 237053 259221 -8391 13736 -695
55609 236898 259106 -8390 13734 -668
55629 236758 259060 -8388 13702 -692
55637 236666 259058 -8393 13722 -707
55645 236616 259077 -8401 13793 -671
55640 236596 259091 -8400 13792 -661
55636 236604 259116 -8395 13752 -682
55633 236629 259146 -8386 13721 -686
55630 236656 259168 -8359 13725 -704
55629 236686 259185 -8346 13748 -710
55626 236699 259190 -8349 13776 -705
55629 236730 259200 -8356 13791 -705
55636 236769 259225 -8362 13796 -710
55644 236763 259208 -8364 13789 -706
55651 236760 259212 -8362 13778 -698
55661 236756 259214 -8360 13770 -707
55673 236744 259216 -8369 13771 -713
55684 236749 259222 -8382 13776 -717
55692 236758 259242 -8382 13785 -724
55700 236777 259261 -8364 13795 -722
55715 236811 259294 -8347 13791 -723
55727 236846 259330 -8354 13773 -715
55732 236889 259355 -8369 13740 -697
55739 236907 259360 -8376 13725 -696
55750 236930 259375 -8382 13750 -689
55758 236952 259381 -8388 13785 -671
55767 236973 259382 -8393 13787 -663
55777 237000 259386 -8385 13757 -656
55793 237023 259388 -8381 13727 -647
55809 237056 259403 -8386 13703 -642
55819 237068 259405 -8377 13681 -636
55830 237077 259395 -8373 13676 -636
55838 237087 259383 -8368 13701 -645
55853 237099 259372 -8366 13735 -645
55864 237114 259379 -8367 13775 -637
55878 237127 259373 -8364 13803 -637
55892 237137 259360 -8368 13798 -645
55906 237149 259352 -8368 13793 -660
55928 237192 259403 -8364 13785 -688
55947 237227 259434 -8356 13779 -690
55955 237231 259400 -8357 13750 -698
55974 237268 259427 -8371 13728 -696
56005 237318 259476 -8383 13743 -680
56024 237223 259401 -8376 13724 -686
56039 237070 259312 -8372 13679 -700
56053 236955 259287 -8383 13712 -674
56064 236888 259310 -8396 13773 -632
56060 236857 259333 -8365 13787 -667
56052 236832 259341 -8338 13778 -655
56047 236857 259385 -8312 13777 -643
56045 236892 259422 -8293 13799 -665
56037 236900 259418 -8287 13836 -721
56030 236891 259405 -8311 13874 -762
56023 236881 259375 -8351 13884 -784
56019 236899 259384 -8380 13864 -796
56023 236949 259421 -8392 13817 -813
56028 236952 259429 -8404 13728 -888
56037 236947 259445 -8417 13682 -869
56040 236946 259452 -8426 13662 -859
56040 236955 259484 -8427 13674 -883
56037 236961 259492 -8427 13665 -875
56034 236959 259501 -8437 13650 -853
56030 236961 259496 -8436 13638 -832
56031 236990 259531 -8434 13612 -818
56035 237033 259577 -8431 13601 -833
56039 237054 259590 -8427 13620 -849
56036 237068 259572 -8444 13667 -864
56031 237038 259513 -8450 13671 -876
56028 237015 259457 -8441 13635 -909
56041 237058 259513 -8431 13571 -979
56059 237120 259567 -8417 13485 -1102
56074 237165 259599 -8442 13447 -1222
56089 237208 259629 -8521 13456 -1272
56108 237283 259720 -8589 13464 -1288
56122 237369 259811 -8613 13465 -1284
56129 237386 259822 -8633 13492 -1235
56127 237363 259786 -8674 13595 -1153
56126 237347 259744 -8670 13682 -1050
56132 237370 259762 -8600 13683 -957
56147 237431 259827 -8532 13664 -905
56163 237484 259873 -8474 13692 -872
56164 237450 259792 -8432 13761 -823
56159 237411 259711 -8422 13805 -762
56183 237492 259805 -8422 13737 -751
56212 237509 259856 -8417 13564 -818
56215 237347 259720 -8441 13460 -867
56209 237151 259587 -8543 13487 -857
56211 237063 259591 -8618 13501 -839
56209 237069 259670 -8604 13400 -884
56201 237092 259732 -8581 13299 -972
56183 237091 259746 -8584 13306 -1033
56168 237105 259757 -8609 13374 -1056
56153 237119 259754 -8611 13436 -1070
56143 237137 259777 -8591 13481 -1096
56129 237146 259774 -8567 13501 -1121
56117 237144 259753 -8536 13512 -1141
56112 237175 259766 -8528 13577 -1195
56112 237172 259757 -8516 13587 -1219
56099 237142 259712 -8511 13596 -1186
56094 237118 259692 -8506 13602 -1142
56084 237080 259671 -8485 13585 -1162
56078 237048 259644 -8495 13543 -1187
56065 237039 259640 -8548 13495 -1183
56057 237061 259655 -8599 13446 -1184
56051 237066 259663 -8614 13419 -1180
56045 237095 259681 -8624 13428 -1151
56039 237112 259692 -8630 13452 -1122
56039 237125 259678 -8619 13439 -1101
56033 237114 259648 -8616 13412 -1076
56037 237148 259677 -8607 13406 -1056
56040 237184 259710 -8564 13427 -1076
56048 237213 259723 -8518 13480 -1107
56046 237202 259692 -8514 13518 -1097
56056 237256 259741 -8541 13514 -1078
56067 237292 259787 -8563 13468 -1100
56072 237308 259761 -8617 13462 -1125
56075 237295 259725 -8682 13493 -1088
56078 237302 259728 -8688 13470 -1051
56086 237310 259733 -8658 13418 -1058
56094 237341 259747 -8608 13387 -1080
56111 237397 259802 -8559 13402 -1096
56117 237383 259751 -8508 13445 -1133
56123 237403 259739 -8488 13519 -1152
56142 237457 259819 -8507 13545 -1165
56155 237416 259774 -8537 13504 -1196
56153 237258 259638 -8597 13486 -1163
56147 237110 259572 -8681 13521 -1103
56145 237015 259562 -8688 13510 -1091
56125 236961 259571 -8619 13442 -1115
56101 236924 259554 -8563 13437 -1127
56077 236934 259580 -8511 13475 -1126
56059 236941 259596 -8463 13508 -1136
56040 236966 259620 -8443 13551 -1156
56020 236976 259625 -8461 13598 -1165
55995 236953 259584 -8490 13604 -1164
55983 236964 259557 -8520 13566 -1145
55972 236966 259552 -8564 13514 -1123
55966 236953 259529 -8539 13521 -1119
55958 236929 259488 -8498 13517 -1126
55956 236912 259499 -8454 13541 -1169
55950 236900 259486 -8452 13583 -1195
55940 236888 259500 -8473 13617 -1189
55925 236868 259463 -8488 13622 -1180
55911 236852 259458 -8519 13585 -1147
55897 236865 259466 -8541 13541 -1102
55895 236883 259471 -8565 13527 -1075
55887 236906 259484 -8558 13513 -1061
55882 236915 259479 -8538 13498 -1069
55880 236929 259485 -8530 13494 -1079
55876 236936 259482 -8520 13491 -1062
55870 236941 259471 -8503 13480 -1044
55864 236925 259430 -8488 13464 -1051
55868 236955 259451 -8465 13471 -1083
55870 236979 259470 -8461 13525 -1105
55871 236982 259463 -8491 13598 -1102
55874 236990 259447 -8538 13653 -1102
55874 236999 259437 -8571 13641 -1091
55872 236994 259428 -8576 13552 -1077
55862 236964 259365 -8573 13465 -1047
55859 236939 259313 -8552 13402 -1033
55879 237019 259419 -8516 13372 -1081
55894 237045 259439 -8496 13480 -1115
55895 236927 259337 -8499 13653 -1085
55882 236755 259230 -8479 13714 -1059
55863 236631 259170 -8420 13695 -1079
55816 236473 259038 -8406 13682 -1088
55765 236389 258985 -8405 13645 -1075
55731 236382 259011 -8361 13628 -1113
55692 236374 258993 -8344 13689 -1143
55649 236319 258913 -8376 13729 -1122
55612 236276 258862 -8426 13723 -1137
55575 236248 258795 -8467 13705 -1175
55538 236189 258715 -8480 13665 -1184
55511 236170 258663 -8484 13580 -1179
55499 236155 258628 -8500 13510 -1183
55478 236094 258544 -8596 13565 -1224
55457 236007 258467 -8583 13504 -1255
55439 235989 258440 -8586 13422 -1273
55418 235952 258412 -8644 13320 -1271
55395 235912 258368 -8710 13216 -1264
55379 235923 258407 -8762 13179 -1271
55365 235933 258395 -8829 13207 -1273
55346 235905 258352 -8888 13223 -1266
55334 235919 258360 -8922 13242 -1266
55321 235910 258318 -8906 13375 -1298
55304 235888 258288 -8837 13374 -1292
55293 235887 258264 -8800 13336 -1261
55278 235852 258204 -8771 13281 -1243
55263 235820 258152 -8739 13256 -1234
55260 235824 258143 -8706 13286 -1224
55246 235796 258080 -8661 13332 -1229
55241 235776 258037 -8609 13376 -1258
55231 235767 258021 -8592 13406 -1267
55225 235760 258003 -8607 13430 -1255
55222 235757 257977 -8624 13461 -1243
55219 235756 257960 -8623 13447 -1239
55206 235701 257861 -8580 13405 -1263
55191 235660 257785 -8541 13442 -1273
55165 235539 257619 -8526 13527 -1264
55134 235323 257409 -8513 13590 -1276
55087 235077 257185 -8492 13618 -1283
55022 234809 256948 -8468 13595 -1270
54935 234551 256692 -8442 13545 -1288
54858 234397 256542 -8422 13562 -1308
54784 234292 256429 -8423 13666 -1289
54708 234151 256253 -8424 13750 -1268
54613 233930 255950 -8395 13778 -1271
54534 233748 255709 -8378 13811 -1266
54469 233608 255523 -8390 13853 -1231
54412 233466 255330 -8387 13837 -1218
54369 233387 255201 -8379 13764 -1218
54349 233358 255178 -8406 13692 -1202
54338 233337 255156 -8433 13628 -1213
54336 233349 255160 -8444 13572 -1240
54332 233340 255169 -8504 13542 -1258
54323 233361 255200 -8522 13507 -1251
54316 233390 255240 -8524 13487 -1249
54304 233396 255252 -8515 13491 -1250
54296 233436 255287 -8515 13515 -1235
54295 233476 255330 -8512 13530 -1234
54285 233484 255335 -8488 13528 -1265
54280 233499 255334 -8482 13516 -1283
54272 233511 255344 -8500 13521 -1280
54258 233485 255293 -8444 13572 -1240
54245 233448 255227 -8504 13542 -1258
54241 233446 255222 -8522 13507 -1251
54230 233413 255162 -8524 13487 -1249
54210 233345 255041 -8515 13491 -1250
54192 233288 254965 -8515 13515 -1235
54170 233196 254829 -8512 13530 -1234
54118 233015 254568 -8488 13528 -1265
54071 232821 254321 -8482 13516 -1283
54032 232695 254146 -8500 13521 -1280
54013 232615 254036 -8515 13552 -1279
53997 232546 253942 -8509 13563 -1274
54004 232531 253939 -8489 13586 -1285
54021 232526 253989 -8475 13591 -1295
54000 232356 253868 -8474 13618 -1282
53934 232085 253597 -8488 13650 -1274
53855 231837 253356 -8514 13625 -1271
53777 231652 253162 -8534 13571 -1262
53714 231571 253081 -8585 13510 -1233
53669 231562 253094 -8650 13433 -1232
53620 231482 252991 -8688 13356 -1285
53559 231362 252835 -8760 13312 -1281
53507 231273 252727 -8857 13316 -1172
53453 231172 252610 -8891 13306 -1106
53415 231128 252556 -8844 13245 -1067
53400 231152 252586 -8761 13192 -1059
53384 231129 252561 -8659 13184 -1080
53353 231044 252453 -8557 13250 -1094
53312 230932 252313 -8492 13384 -1106
53270 230835 252207 -8453 13492 -1116
53243 230783 252143 -8425 13585 -1171
53211 230721 252062 -8398 13673 -1203
53168 230608 251919 -8360 13689 -1237
53127 230484 251775 -8317 13711 -1316
53098 230413 251688 -8307 13862 -1382
53079 230368 251617 -8312 14034 -1396
53025 230177 251372 -8306 14093 -1394
52932 229855 250974 -8278 14062 -1420
52836 229526 250571 -8245 14005 -1435
52744 229207 250173 -8243 14005 -1417
52653 228875 249766 -8252 14050 -1389
52579 228582 249406 -8260 14089 -1348
52523 228363 249130 -8260 14080 -1314
52457 228094 248786 -8259 13984 -1265
52384 227794 248405 -8280 13910 -1201
52337 227574 248116 -8308 13906 -1152
52331 227480 247993 -8319 13930 -1121
52340 227453 247941 -8315 13918 -1082
52352 227422 247877 -8315 13850 -1019
52364 227401 247835 -8321 13775 -969
52388 227404 247840 -8311 13737 -960
52418 227363 247817 -8298 13733 -971
52443 227237 247721 -8312 13780 -939
52441 227107 247641 -8331 13828 -874
52410 226963 247516 -8326 13795 -848
52378 226893 247471 -8308 13738 -859
52350 226860 247443 -8305 13714 -846
52318 226804 247382 -8294 13696 -823
52302 226754 247321 -8266 13676 -834
52298 226768 247335 -8253 13741 -851
52295 226773 247336 -8289 14012 -884
52285 226742 247315 -8302 14062 -901
52271 226683 247231 -8297 14059 -911
52266 226652 247190 -8275 14039 -918
52265 226644 247170 -8283 14033 -905
52254 226572 247084 -8305 13997 -886
52251 226494 246992 -8322 13892 -893
52232 226383 246861 -8337 13769 -903
52207 226283 246740 -8372 13674 -893
52182 226203 246627 -8434 13615 -893
52150 226040 246414 -8513 13572 -938
52108 225827 246106 -8542 13516 -1012
52079 225645 245868 -8518 13469 -1057
52066 225532 245702 -8517 13430 -1056
52061 225445 245581 -8572 13371 -1029
52069 225395 245514 -8646 13317 -1027
52091 225366 245439 -8666 13313 -1040
52120 225394 245459 -8667 13368 -1025
52162 225467 245557 -8701 13402 -982
52206 225565 245693 -8723 13378 -957
52233 225584 245689 -8683 13359 -987
52258 225597 245697 -8591 13336 -1047
52288 225647 245737 -8512 13374 -1079
52328 225737 245850 -8470 13488 -1062
52372 225835 245963 -8437 13568 -1017
52418 225931 246071 -8388 13615 -987
52468 226061 246234 -8314 13685 -1012
52516 226201 246375 -8263 13815 -1024
52554 226279 246451 -8249 14012 -971
52591 226330 246502 -8208 14170 -925
52625 226326 246520 -8094 14171 -957
52655 226247 246489 -8002 14104 -978
52661 226119 246402 -8007 14080 -932
52661 226056 246395 -8054 14090 -883
52663 226060 246442 -8084 14105 -863
52661 226093 246495 -8059 14127 -873
52655 226109 246525 -8050 14143 -876
52651 226121 246529 -8093 14127 -878
52650 226137 246552 -8143 14104 -891
52657 226189 246625 -8193 14108 -893
52670 226251 246714 -8242 14030 -911
52671 226262 246712 -8257 13952 -901
52681 226290 246736 -8268 13887 -892
52702 226353 246822 -8276 13848 -881
52724 226435 246929 -8296 13855 -858
52740 226479 247000 -8311 13847 -851
52757 226519 247032 -8314 13802 -875
52767 226538 247070 -8316 13776 -886
52782 226592 247126 -8313 13792 -874
52802 226686 247236 -8320 13806 -872
52833 226809 247374 -8301 13779 -923
52863 226907 247484 -8279 13747 -960
52891 227000 247583 -8299 13756 -955
52914 227082 247660 -8333 13787 -941
52940 227171 247763 -8348 13819 -928
52968 227259 247856 -8335 13833 -923
53002 227345 247952 -8299 13810 -932
53042 227471 248083 -8272 13822 -950
53076 227543 248156 -8272 13897 -938
53106 227636 248257 -8266 13982 -924
53136 227715 248345 -8237 14006 -933
53164 227780 248402 -8219 13988 -934
53190 227825 248452 -8216 13969 -924
53220 227901 248531 -8210 13945 -919
53246 227967 248607 -8200 13951 -937
53270 228005 248632 -8197 13959 -959
53280 227993 248577 -8228 13979 -960
53298 228012 248591 -8255 13996 -968
53329 228086 248676 -8262 13970 -978
53368 228110 248736 -8278 13923 -970
53401 228052 248724 -8290 13876 -976
53434 228038 248788 -8296 13839 -997
53466 228085 248910 -8308 13824 -1009
53494 228197 249097 -8331 13848 -1012
53522 228332 249277 -8345 13846 -995
53546 228455 249452 -8341 13763 -1004
53569 228582 249593 -8338 13655 -1037
53593 228690 249741 -8361 13633 -1035
53608 228772 249840 -8399 13673 -1003
53616 228810 249883 -8405 13699 -990
53626 228859 249933 -8340 13753 -1039
53641 228912 250005 -8329 13778 -1042
53648 228932 250023 -8323 13801 -1034
53652 228936 250032 -8314 13827 -1030
53658 228941 250047 -8310 13860 -1043
53664 228962 250074 -8324 13862 -1042
53680 229005 250123 -8355 13863 -1026
53692 229037 250165 -8358 13840 -1031
53705 229093 250214 -8352 13766 -1056
53723 229166 250308 -8367 13733 -1055
53741 229267 250423 -8377 13742 -1040
53753 229313 250464 -8367 13744 -1030
53764 229344 250491 -8350 13742 -1039
53778 229394 250535 -8338 13717 -1037
53788 229407 250547 -8337 13717 -1035
53795 229427 250537 -8351 13727 -1045
53812 229473 250591 -8380 13717 -1048
53830 229535 250656 -8411 13727 -1057
53849 229581 250699 -8437 13755 -1048
53866 229643 250769 -8444 13750 -1033
53880 229677 250802 -8427 13692 -1012
53881 229655 250747 -8399 13641 -986
53894 229691 250778 -8361 13637 -1000
53909 229737 250824 -8331 13669 -1047
53917 229735 250789 -8325 13754 -1086
53935 229779 250840 -8346 13838 -1095
53965 229841 250895 -8382 13846 -1090
53990 229798 250896 -8420 13813 -1062
54011 229724 250866 -8449 13758 -1020
54010 229617 250825 -8428 13687 -1017
54000 229550 250788 -8388 13665 -1033
53986 229526 250794 -8355 13690 -1049
53985 229576 250869 -8318 13699 -1096
53978 229595 250892 -8316 13729 -1132
53978 229616 250919 -8351 13768 -1106
53969 229622 250923 -8398 13731 -1065
53959 229627 250951 -8434 13688 -1040
53942 229630 250951 -8444 13698 -1020
53938 229645 250962 -8417 13734 -1018
53927 229653 250976 -8266 13784 -1128
53922 229655 250978 -8262 13836 -1148
53909 229621 250944 -8271 13873 -1161
53901 229614 250946 -8312 13847 -1132
53899 229637 250979 -8353 13770 -1089
53896 229666 251018 -8392 13683 -1050
53896 229700 251060 -8425 13643 -1042
53897 229735 251108 -8423 13674 -1054
53892 229766 251113 -8395 13741 -1071
53887 229776 251119 -8310 13821 -1156
53884 229795 251132 -8306 13802 -1157
53878 229797 251126 -8338 13755 -1113
53879 229811 251135 -8376 13675 -1078
53881 229833 251148 -8414 13644 -1054
53883 229869 251186 -8433 13676 -1036
53888 229892 251210 -8421 13721 -1048
53892 229911 251213 -8396 13760 -1069
53892 229920 251205 -8373 13772 -1075
53899 229948 251234 -8369 13758 -1074
53903 229966 251250 -8375 13709 -1084
53905 229984 251251 -8387 13645 -1059
53913 230004 251266 -8400 13610 -1026
53933 230042 251301 -8418 13598 -1016
53941 230081 251329 -8424 13635 -1028
53942 230086 251301 -8413 13691 -1057
53952 230130 251362 -8411 13727 -1054
53969 230147 251389 -8411 13718 -1040
53982 230057 251328 -8409 13672 -1048
53979 229935 251236 -8412 13625 -1062
53969 229845 251203 -8438 13607 -1063
53954 229809 251225 -8465 13593 -1064
53936 229816 251276 -8459 13557 -1080
53916 229822 251287 -8466 13570 -1091
53892 229830 251304 -8491 13620 -1067
53871 229841 251323 -8489 13639 -1059
53856 229853 251350 -8465 13617 -1086
53836 229857 251369 -8444 13595 -1090
53811 229855 251358 -8434 13588 -1066
53800 229882 251387 -8426 13618 -1055
53794 229929 251458 -8414 13659 -1096
53781 229938 251461 -8404 13641 -1114
53768 229927 251450 -8407 13651 -1114
53756 229947 251481 -8417 13669 -1107
53746 229956 251495 -8420 13658 -1112
53728 229969 251516 -8424 13638 -1130
53716 229986 251534 -8440 13643 -1105
53706 230012 251566 -8448 13641 -1086
53697 230038 251589 -8441 13638 -1104
53685 230063 251607 -8438 13655 -1131
53682 230091 251629 -8434 13677 -1123
53674 230117 251645 -8423 13679 -1078
53667 230118 251640 -8409 13681 -1072
53661 230143 251660 -8397 13694 -1087
53656 230139 251651 -8398 13715 -1081
53651 230165 251658 -8399 13728 -1071
53648 230187 251675 -8400 13704 -1076
53648 230205 251686 -8416 13690 -1079
53643 230204 251656 -8418 13665 -1075
53630 230169 251602 -8426 13709 -1100
53619 230139 251573 -8401 13717 -1104
53611 230126 251527 -8392 13705 -1064
53605 230121 251521 -8406 13695 -1022
53608 230128 251507 -8416 13726 -1021
53615 230165 251546 -8404 13767 -1039
53618 230179 251557 -8386 13779 -1043
53623 230207 251575 -8384 13778 -1024
53624 230230 251585 -8370 13760 -1006
53639 230287 251646 -8359 13725 -1014
53652 230260 251635 -8346 13689 -1024
53657 230159 251581 -8352 13644 -1014
53647 230071 251562 -8387 13628 -993
53624 230039 251601 -8396 13612 -1004
53585 230013 251629 -8396 13615 -1029
53542 230023 251639 -8418 13627 -1017
53499 230029 251662 -8451 13640 -991
53462 230043 251677 -8448 13641 -1008
53427 230050 251707 -8429 13625 -1023
53395 230063 251731 -8421 13629 -1008
53361 230049 251723 -8423 13665 -1025
53326 230059 251723 -8408 13697 -1049
53302 230079 251749 -8382 13732 -1041
53275 230100 251770 -8371 13767 -1025
53247 230097 251775 -8369 13771 -1014
53216 230065 251742 -8375 13738 -1010
53188 230041 251707 -8387 13688 -991
53157 230038 251713 -8393 13653 -997
53129 230034 251717 -8390 13675 -1028
53093 230020 251709 -8389 13737 -1041
53069 230030 251706 -8375 13772 -1039
53050 230045 251708 -8369 13736 -1010
53031 230057 251712 -8365 13720 -974
53003 230019 251660 -8354 13754 -955
52987 230020 251647 -8332 13799 -978
52969 230036 251655 -8324 13828 -1009
52962 230064 251667 -8334 13842 -1011
52957 230077 251674 -8339 13866 -985
52951 230093 251668 -8341 13846 -961
52944 230097 251644 -8338 13756 -971
52941 230109 251654 -8328 13794 -983
52939 230134 251671 -8322 13842 -988
52939 230162 251694 -8316 13889 -988
52942 230202 251727 -8319 13899 -985
52949 230225 251744 -8335 13866 -986
52953 230260 251780 -8346 13822 -980
52959 230299 251799 -8354 13762 -969
52961 230346 251821 -8369 13722 -944
52971 230375 251865 -8380 13708 -924
52984 230426 251895 -8394 13718 -923
52987 230453 251908 -8402 13725 -925
52990 230477 251917 -8390 13735 -929
53006 230537 251981 -8372 13741 -947
53034 230543 252030 -8366 13743 -938
53048 230457 251978 -8371 13758 -906
53036 230364 251961 -8361 13752 -900
53003 230317 251987 -8348 13752 -916
52957 230282 252020 -8358 13790 -907
52904 230282 252023 -8358 13825 -866
52856 230277 252041 -8340 13810 -857
52810 230284 252041 -8339 13772 -861
52770 230282 252045 -8350 13757 -836
52737 230292 252061 -8346 13775 -828
52704 230282 252052 -8330 13793 -848
52670 230270 252041 -8318 13812 -858
52656 230308 252079 -8311 13828 -865
52640 230313 252059 -8312 13829 -885
52614 230286 252031 -8322 13830 -887
52590 230257 251998 -8321 13810 -879
52570 230257 252007 -8313 13829 -891
52550 230257 252013 -8318 13851 -866
52527 230250 252007 -8324 13848 -865
52512 230266 252017 -8318 13834 -873
52495 230273 252007 -8308 13815 -874
52485 230284 252016 -8309 13823 -864
52473 230291 252003 -8310 13839 -855
52465 230291 251983 -8317 13845 -839
52465 230305 251978 -8324 13849 -828
52467 230324 251992 -8314 13837 -834
52469 230341 252002 -8308 13842 -838
52474 230360 252005 -8309 13830 -840
52480 230374 252006 -8317 13809 -837
52486 230397 252012 -8329 13786 -833
52492 230420 252023 -8343 13770 -830
52504 230441 252047 -8353 13766 -836
52521 230470 252058 -8358 13766 -833
52534 230506 252078 -8359 13760 -824
52556 230537 252110 -8347 13761 -867
52571 230566 252121 -8336 13797 -851
52585 230589 252137 -8331 13830 -846
52598 230613 252143 -8331 13846 -849
52609 230633 252153 -8331 13849 -840
52627 230676 252198 -8326 13865 -826
52646 230715 252209 -8316 13858 -818
52655 230707 252165 -8314 13830 -813
52680 230755 252214 -8327 13848 -797
52710 230810 252270 -8313 13841 -809
52744 230754 252239 -8274 13787 -857
52763 230641 252199 -8284 13804 -852
52765 230580 252222 -8325 13856 -795
52745 230545 252260 -8337 13845 -780
52707 230518 252269 -8327 13817 -813
52664 230488 252251 -8308 13805 -827
52632 230499 252275 -8304 13803 -817
52603 230503 252277 -8311 13808 -815
52588 230522 252293 -8314 13831 -817
52575 230529 252294 -8314 13864 -826
52561 230518 252263 -8309 13855 -853
52556 230551 252298 -8318 13826 -835
52560 230590 252326 -8325 13783 -828
52561 230580 252321 -8336 13787 -832
52565 230581 252328 -8346 13811 -838
52567 230592 252352 -8347 13809 -838
52564 230602 252361 -8342 13799 -846
52565 230615 252377 -8343 13807 -848
52563 230621 252401 -8350 13803 -836
52564 230650 252420 -8374 13797 -880
52571 230688 252454 -8372 13782 -863
52579 230712 252484 -8370 13764 -851
52589 230749 252506 -8371 13768 -842
52599 230771 252511 -8371 13763 -821
52613 230796 252525 -8366 13748 -801
52630 230826 252544 -8359 13739 -795
52648 230852 252553 -8356 13718 -795
52667 230885 252585 -8359 13712 -797
52683 230912 252595 -8348 13744 -807
52702 230935 252612 -8342 13767 -818
52724 230961 252630 -8349 13774 -821
52746 231003 252651 -8340 13780 -823
52769 231012 252658 -8339 13782 -821
52796 231057 252697 -8351 13783 -825
52817 231081 252706 -8350 13791 -836
52839 231097 252699 -8350 13814 -825
52862 231115 252708 -8353 13835 -808
52889 231155 252745 -8346 13820 -811
52919 231201 252779 -8350 13790 -823
52935 231198 252740 -8354 13781 -830
52957 231218 252745 -8345 13775 -825
52992 231288 252811 -8336 13759 -820
53032 231281 252813 -8338 13773 -808
53071 231191 252772 -8350 13822 -789
53099 231111 252778 -8353 13841 -785
53113 231071 252829 -8342 13833 -783
53112 231053 252848 -8325 13839 -783
53099 231023 252849 -8318 13843 -779
53084 231036 252861 -8306 13831 -786
53080 231063 252879 -8263 13835 -819
53079 231087 252899 -8244 13855 -835
53079 231101 252908 -8265 13876 -833
53084 231091 252900 -8280 13885 -822
53083 231110 252888 -8293 13881 -804
53100 231157 252930 -8303 13858 -804
53117 231160 252926 -8312 13835 -820
53128 231146 252904 -8323 13850 -824
53142 231145 252908 -8327 13866 -819
53159 231147 252917 -8318 13868 -824
53171 231153 252918 -8293 13861 -834
53182 231155 252926 -8309 13852 -827
53196 231174 252935 -8325 13848 -816
53208 231186 252933 -8324 13860 -793
53225 231203 252949 -8316 13864 -776
53237 231224 252963 -8313 13865 -776
53253 231248 252961 -8320 13854 -774
53273 231278 252979 -8319 13851 -766
53290 231296 252988 -8304 13850 -764
53311 231317 252987 -8293 13843 -764
53331 231342 252997 -8289 13830 -764
53356 231373 253004 -8288 13823 -767
53377 231403 253013 -8298 13825 -761
53401 231421 253022 -8306 13814 -764
53427 231455 253031 -8311 13808 -765
53451 231474 253048 -8318 13814 -760
53473 231498 253054 -8325 13820 -758
53501 231528 253070 -8330 13819 -751
53527 231552 253094 -8325 13831 -765
53550 231571 253089 -8321 13845 -783
53573 231585 253092 -8293 13852 -819
53598 231612 253100 -8303 13830 -805
53626 231661 253134 -8314 13824 -776
53648 231682 253134 -8313 13851 -758
53663 231674 253086 -8302 13829 -768
53701 231738 253151 -8299 13810 -804
53739 231760 253185 -8313 13857 -796
53787 231679 253151 -8330 13893 -774
53831 231588 253157 -8325 13870 -766
53863 231520 253181 -8295 13824 -778
53882 231497 253216 -8282 13831 -770
53883 231478 253224 -8261 13848 -786
53887 231488 253247 -8246 13876 -805
53891 231514 253275 -8243 13909 -809
53893 231533 253286 -8251 13939 -821
53900 231552 253293 -8270 13952 -815
53905 231547 253279 -8277 13919 -804
53907 231543 253262 -8281 13872 -823
53913 231571 253271 -8285 13861 -840
53932 231604 253309 -8288 13868 -834
53946 231595 253291 -8301 13866 -819
53959 231579 253269 -8300 13871 -814
53971 231579 253276 -8291 13881 -819
53982 231577 253280 -8297 13869 -814
53994 231589 253294 -8304 13850 -792
54007 231613 253316 -8316 13846 -779
54015 231613 253309 -8331 13849 -777
54022 231627 253305 -8334 13848 -783
54034 231642 253309 -8329 13843 -794
54045 231658 253310 -8311 13821 -802
54055 231680 253314 -8305 13801 -787
54067 231700 253319 -8313 13801 -769
54081 231719 253325 -8323 13785 -761
54096 231753 253333 -8334 13785 -753
54113 231774 253342 -8332 13813 -756
54128 231793 253347 -8327 13825 -761
54142 231812 253353 -8316 13822 -762
54161 231835 253365 -8307 13828 -766
54178 231862 253368 -8310 13848 -772
54191 231881 253377 -8304 13866 -787
54209 231892 253370 -8305 13874 -781
54223 231901 253357 -8311 13872 -763
54239 231927 253373 -8309 13860 -759
54258 231954 253385 -8315 13864 -751
54271 231965 253389 -8311 13874 -759
54290 231993 253402 -8300 13875 -765
54312 232032 253426 -8295 13881 -748
54321 232033 253388 -8293 13852 -740
54336 232048 253372 -8282 13793 -772
54365 232108 253442 -8308 13862 -766
54400 232096 253443 -8336 13880 -737
54439 231982 253403 -8340 13856 -739
54475 231893 253426 -8332 13823 -741
54498 231851 253465 -8307 13807 -746
54503 231836 253492 -8291 13808 -758
54506 231826 253505 -8286 13827 -772
54502 231840 253533 -8281 13886 -783
54508 231871 253557 -8288 13929 -782
54499 231873 253548 -8306 13842 -821
54497 231889 253545 -8311 13791 -825
54492 231873 253510 -8322 13755 -832
54490 231882 253509 -8330 13770 -824
54500 231927 253545 -8332 13811 -812
54506 231933 253536 -8334 13816 -802
54508 231916 253500 -8338 13803 -804
54518 231890 253487 -8342 13794 -792
54526 231900 253509 -8344 13780 -775
54530 231911 253507 -8338 13780 -785
54537 231925 253539 -8325 13792 -795
54542 231949 253557 -8328 13832 -791
54545 231972 253574 -8342 13845 -793
54547 231986 253579 -8341 13819 -798
54552 232007 253580 -8344 13792 -792
54556 232031 253582 -8348 13776 -787
54562 232041 253582 -8347 13778 -784
54565 232068 253591 -8343 13772 -786
54574 232092 253590 -8343 13780 -790
54583 232112 253599 -8345 13801 -787
54590 232130 253601 -8333 13809 -808
54595 232146 253596 -8324 13813 -821
54599 232164 253592 -8318 13826 -820
54608 232185 253600 -8316 13826 -822
54616 232214 253602 -8323 13825 -807
54625 232227 253598 -8334 13839 -792
54639 232253 253607 -8342 13841 -781
54650 232271 253608 -8337 13828 -778
54657 232283 253604 -8329 13823 -783
54667 232303 253601 -8326 13814 -781
54682 232317 253608 -8318 13819 -776
54694 232364 253647 -8315 13798 -773
54703 232385 253630 -8317 13802 -776
54708 232379 253597 -8336 13853 -735
54729 232442 253648 -8352 13895 -710
54753 232479 253682 -8341 13880 -732
54781 232402 253626 -8323 13829 -739
54817 232294 253624 -8320 13803 -714
54844 232227 253675 -8316 13770 -702
54858 232187 253709 -8326 13814 -781
54853 232160 253737 -8318 13819 -776
54845 232172 253769 -8315 13798 -773
54838 232227 253816 -8317 13802 -776
54832 232259 253858 -8336 13853 -735
54821 232285 253870 -8352 13895 -710
54809 232297 253858 -8341 13880 -732
54799 232303 253848 -8323 13829 -739
54798 232336 253865 -8320 13803 -714
54795 232338 253847 -8316 13770 -702
54796 232330 253837 -8255 13826 -767
54798 232324 253830 -8259 13888 -769
54799 232313 253821 -8295 13917 -739
54797 232305 253819 -8318 13933 -721
54791 232298 253832 -8314 13902 -732
54788 232317 253845 -8310 13851 -754
54785 232339 253865 -8317 13825 -750
54779 232363 253879 -8325 13806 -735
54778 232390 253906 -8326 13791 -748
54770 232404 253905 -8331 13734 -768
54764 232423 253893 -8347 13724 -761
54762 232434 253899 -8360 13726 -763
54763 232465 253915 -8360 13734 -759
54766 232499 253932 -8358 13761 -761
54775 232540 253971 -8353 13797 -757
54782 232587 254004 -8350 13800 -737
54788 232607 254015 -8348 13782 -722
54787 232621 253994 -8346 13774 -717
54793 232628 253989 -8345 13771 -721
54790 232629 253974 -8336 13788 -754
54793 232651 253954 -8329 13813 -779
54799 232653 253943 -8327 13828 -776
54803 232657 253929 -8332 13816 -765
54805 232663 253923 -8338 13796 -758
54817 232705 253953 -8340 13796 -748
54820 232705 253929 -8346 13773 -750
54814 232697 253878 -8351 13749 -760
54830 232752 253915 -8358 13742 -762
54849 232780 253950 -8362 13752 -772
54869 232683 253883 -8333 13776 -799
54892 232565 253859 -8340 13808 -770
54910 232495 253913 -8340 13836 -763
54907 232452 253953 -8332 13809 -784
54884 232411 253948 -8331 13810 -801
54850 232397 253951 -8352 13864 -773
54822 232419 253977 -8365 13884 -742
54788 232419 253979 -8343 13862 -758
54755 232430 253973 -8325 13824 -772
54733 232434 253956 -8299 13813 -747
54707 232432 253939 -8288 13847 -752
54689 232453 253941 -8286 13861 -765
54677 232473 253941 -8300 13871 -773
54664 232448 253912 -8315 13873 -765
54650 232414 253872 -8320 13867 -748
54637 232384 253856 -8318 13843 -748
54621 232375 253853 -8323 13810 -760
54600 232369 253846 -8337 13831 -749
54579 232360 253836 -8324 13850 -782
54559 232369 253840 -8329 13822 -789
54539 232369 253835 -8341 13800 -769
54518 232372 253825 -8350 13782 -743
54498 232389 253825 -8357 13766 -726
54487 232389 253804 -8360 13772 -717
54466 232398 253792 -8364 13790 -707
54455 232401 253773 -8360 13796 -704
54448 232418 253768 -8348 13807 -694
54437 232427 253755 -8337 13810 -678
54432 232442 253754 -8326 13801 -686
54423 232445 253735 -8319 13801 -698
54416 232460 253731 -8320 13796 -695
54412 232474 253733 -8323 13800 -691
54413 232495 253736 -8325 13816 -698
54414 232521 253744 -8331 13813 -704
54415 232540 253735 -8339 13804 -695
54414 232536 253721 -8339 13789 -706
54409 232545 253708 -8338 13786 -723
54411 232578 253714 -8339 13798 -728
54417 232609 253733 -8327 13808 -754
54409 232591 253674 -8328 13822 -749
54413 232617 253698 -8338 13815 -730
54432 232674 253742 -8337 13804 -736
54445 232602 253694 -8334 13816 -737
54458 232444 253632 -8329 13837 -722
54457 232337 253642 -8329 13813 -727
54429 232269 253670 -8326 13786 -768
54379 232225 253672 -8336 13829 -761
54321 232175 253662 -8356 13872 -716
54262 232180 253674 -8328 13828 -765
54206 232185 253667 -8316 13801 -747
54154 232175 253658 -8309 13803 -716
54105 232161 253635 -8297 13821 -715
54062 232136 253591 -8283 13849 -744
54021 232145 253578 -8286 13884 -761
53997 232171 253599 -8300 13902 -763
53975 232156 253579 -8308 13896 -754
53947 232135 253547 -8310 13857 -735
53915 232103 253524 -8306 13842 -756
53879 232061 253487 -8325 13874 -753
53844 232034 253470 -8325 13897 -753
53803 232028 253462 -8317 13890 -761
53771 232028 253466 -8321 13877 -755
53741 232025 253448 -8329 13844 -738
53711 232029 253434 -8330 13815 -711
53678 232013 253400 -8326 13812 -712
53653 232007 253378 -8336 13794 -743
53630 232002 253348 -8347 13783 -736
53615 232021 253341 -8352 13784 -709
53600 232032 253330 -8351 13765 -704
53595 232048 253329 -8344 13745 -698
53583 232056 253313 -8343 13748 -686
53576 232067 253299 -8335 13757 -699
53569 232081 253307 -8329 13770 -722
53565 232108 253298 -8333 13790 -732
53562 232113 253286 -8334 13795 -733
53559 232130 253284 -8336 13804 -747
53558 232132 253279 -8347 13804 -760
53558 232165 253288 -8352 13811 -753
53565 232194 253317 -8349 13810 -740
53577 232264 253391 -8345 13803 -728
53581 232289 253386 -8342 13808 -713
53581 232296 253356 -8341 13781 -712
53595 232364 253429 -8341 13725 -730
53614 232365 253439 -8347 13717 -742
53626 232255 253369 -8347 13744 -755
53623 232121 253333 -8320 13769 -812
53592 232022 253333 -8361 13849 -758
53537 231951 253342 -8372 13885 -743
53475 231903 253338 -8353 13872 -771
53407 231889 253339 -8327 13849 -785
53348 231897 253355 -8309 13840 -778
53295 231901 253350 -8296 13838 -755
53252 231913 253370 -8283 13865 -757
53218 231923 253377 -8285 13903 -767
53182 231924 253358 -8287 13890 -760
53163 231957 253384 -8295 13857 -782
53147 231981 253390 -8317 13828 -775
53133 231965 253360 -8319 13781 -756
53114 231939 253353 -8318 13768 -754
53088 231921 253347 -8319 13822 -744
53063 231903 253340 -8320 13882 -754
53039 231907 253346 -8322 13901 -770
53013 231906 253353 -8323 13886 -766
52988 231905 253349 -8333 13858 -752
52968 231916 253342 -8339 13839 -761
52950 231934 253341 -8341 13807 -763
52938 231942 253342 -8343 13786 -755
52928 231956 253348 -8349 13784 -755
52922 231988 253363 -8360 13774 -745
52915 232005 253369 -8358 13768 -731
52915 232037 253389 -8352 13756 -722
52915 232055 253383 -8354 13758 -722
52914 232075 253386 -8359 13785 -706
52917 232087 253378 -8356 13809 -702
52918 232100 253364 -8351 13814 -722
52925 232115 253368 -8338 13808 -750
52931 232130 253357 -8327 13805 -761
52936 232128 253348 -8335 13783 -746
52945 232166 253358 -8331 13769 -738
52957 232185 253381 -8326 13772 -736
52962 232193 253356 -8331 13763 -732
52974 232224 253376 -8345 13751 -716
52986 232248 253391 -8365 13745 -703
53003 232202 253330 -8374 13732 -711
53017 232075 253275 -8374 13680 -726
53016 231959 253242 -8405 13709 -748
52986 231865 253241 -8407 13736 -729
52947 231824 253262 -8399 13723 -734
52901 231805 253267 -8382 13731 -763
52859 231805 253273 -8355 13757 -788
52825 231807 253273 -8337 13780 -792
52802 231826 253278 -8339 13813 -800
52787 231840 253288 -8344 13824 -818
52770 231838 253264 -8348 13812 -816
52763 231870 253273 -8327 13829 -834
52766 231892 253286 -8320 13813 -842
52767 231880 253272 -8322 13815 -852
52769 231867 253253 -8334 13845 -843
52763 231844 253238 -8336 13872 -843
52763 231826 253229 -8340 13867 -843
52754 231814 253231 -8360 13826 -831
52743 231821 253228 -8372 13767 -829
52745 231843 253251 -8373 13739 -818
52746 231858 253264 -8380 13735 -802
52746 231881 253273 -8380 13732 -797
52751 231895 253277 -8372 13741 -790
52760 231909 253287 -8368 13752 -779
52766 231936 253288 -8367 13743 -768
52778 231959 253284 -8371 13733 -756
52791 231981 253294 -8377 13729 -750
52809 231991 253296 -8375 13726 -748
52823 232007 253303 -8373 13725 -745
52837 232019 253291 -8379 13731 -737
52852 232035 253289 -8381 13752 -747
52867 232061 253289 -8383 13770 -773
52891 232088 253310 -8385 13761 -781
52912 232105 253320 -8391 13719 -761
52937 232141 253349 -8398 13701 -745
52962 232166 253354 -8392 13712 -738
52979 232172 253323 -8396 13705 -731
53009 232229 253371 -8404 13712 -713
53044 232269 253404 -8392 13727 -710
53082 232192 253357 -8374 13696 -736
53105 232051 253287 -8380 13709 -733
53113 231954 253276 -8413 13801 -731
53107 231887 253274 -8392 13787 -732
53089 231844 253280 -8369 13758 -715
53070 231831 253290 -8358 13731 -697
53054 231856 253310 -8354 13731 -698
53043 231864 253316 -8349 13765 -701
53034 231866 253313 -8342 13826 -701
53031 231868 253309 -8344 13857 -715
53028 231869 253295 -8357 13856 -722
53029 231895 253321 -8360 13850 -727
53045 231927 253333 -8343 13807 -744
53054 231917 253310 -8336 13770 -753
53064 231895 253295 -8342 13796 -746
53070 231874 253281 -8352 13835 -738
53071 231864 253273 -8356 13853 -752
53076 231860 253278 -8358 13832 -746
53084 231872 253299 -8364 13785 -728
53094 231883 253303 -8376 13737 -720
53106 231903 253321 -8376 13721 -726
53118 231933 253332 -8376 13733 -748
53130 231946 253324 -8385 13736 -760
53138 231945 253316 -8388 13735 -752
53151 231958 253330 -8387 13737 -727
53171 231978 253331 -8390 13730 -710
53188 231998 253327 -8391 13731 -711
53209 232013 253331 -8389 13741 -702
53230 232037 253335 -8382 13733 -706
53253 232057 253354 -8377 13725 -718
53276 232088 253364 -8381 13738 -716
53297 232103 253369 -8380 13770 -728
53318 232129 253377 -8373 13770 -747
53344 232152 253391 -8371 13749 -747
53367 232171 253397 -8370 13722 -744
53391 232206 253426 -8376 13710 -749
53412 232210 253413 -8384 13729 -749
53429 232212 253384 -8386 13761 -742
53460 232263 253425 -8383 13795 -729
53498 232263 253457 -8371 13765 -734
53531 232161 253386 -8360 13709 -753
53549 232014 253318 -8371 13754 -732
53554 231923 253297 -8399 13801 -735
53559 231888 253314 -8383 13766 -723
53553 231858 253318 -8371 13740 -703
53548 231861 253337 -8354 13728 -697
53543 231873 253354 -8337 13750 -705
53544 231880 253352 -8320 13795 -732
53546 231879 253349 -8323 13838 -745
53545 231871 253335 -8343 13848 -750
53547 231860 253334 -8356 13840 -753
53552 231894 253357 -8359 13748 -795
53563 231919 253393 -8354 13718 -787
53568 231896 253352 -8371 13745 -761
53571 231867 253325 -8375 13769 -749
53578 231859 253334 -8362 13762 -761
53582 231858 253331 -8364 13740 -755
53591 231863 253344 -8375 13714 -741
53597 231878 253363 -8382 13712 -742
53609 231900 253371 -8382 13731 -753
53616 231908 253378 -8389 13737 -775
53627 231907 253369 -8391 13739 -769
53630 231912 253361 -8388 13736 -737
53638 231923 253359 -8375 13732 -718
53647 231937 253357 -8365 13740 -713
53661 231938 253360 -8364 13736 -721
53676 231959 253366 -8357 13748 -731
53690 231975 253363 -8352 13757 -737
53705 231981 253367 -8345 13751 -742
53718 231993 253370 -8347 13747 -744
53739 232017 253391 -8353 13757 -755
53755 232038 253385 -8356 13766 -746
53773 232043 253386 -8366 13766 -719
53786 232054 253375 -8370 13768 -705
53798 232047 253358 -8362 13760 -710
53817 232067 253362 -8360 13744 -719
53834 232090 253375 -8358 13765 -718
53843 232076 253333 -8360 13781 -718
53859 232093 253337 -8353 13738 -747
53887 232127 253355 -8356 13756 -764
53911 232061 253312 -8394 13810 -739
53931 231922 253215 -8409 13801 -718
53940 231805 253157 -8390 13766 -722
53943 231739 253146 -8378 13728 -724
53945 231724 253171 -8370 13713 -710
53948 231725 253192 -8353 13701 -709
53952 231744 253212 -8342 13705 -705
53951 231747 253213 -8345 13755 -700
53953 231766 253246 -8350 13785 -717
53957 231776 253262 -8360 13777 -723
53954 231757 253225 -8363 13749 -764
53960 231788 253246 -8360 13727 -771
53971 231839 253313 -8368 13752 -756
53980 231830 253304 -8371 13773 -738
53983 231814 253284 -8369 13781 -754
53990 231809 253276 -8370 13787 -767
53992 231798 253262 -8380 13754 -760
53997 231794 253277 -8383 13712 -763
54003 231807 253288 -8389 13690 -753
54007 231810 253285 -8429 13708 -771
54014 231834 253299 -8427 13709 -766
54019 231853 253313 -8425 13686 -746
54024 231863 253306 -8423 13658 -735
54034 231886 253334 -8413 13642 -721
54045 231905 253342 -8410 13633 -723
54056 231930 253364 -8414 13644 -720
54069 231961 253387 -8408 13678 -728
54083 231980 253399 -8403 13694 -751
54096 231998 253414 -8408 13686 -753
54108 232022 253424 -8424 13680 -768
54124 232047 253431 -8430 13683 -780
54135 232064 253440 -8425 13681 -767
54151 232089 253469 -8430 13666 -753
54166 232109 253478 -8435 13649 -754
54182 232123 253483 -8432 13640 -762
54193 232146 253482 -8429 13633 -763
54209 232169 253503 -8429 13638 -753
54221 232184 253508 -8422 13640 -754
54223 232170 253451 -8417 13624 -781
54235 232180 253449 -8428 13634 -793
54256 232207 253462 -8440 13697 -773
54268 232148 253382 -8443 13730 -749
54276 232006 253257 -8437 13706 -752
54283 231874 253163 -8420 13699 -764
54285 231784 253131 -8398 13715 -767
54279 231728 253110 -8378 13723 -775
54272 231732 253129 -8367 13735 -791
54270 231761 253177 -8371 13729 -799
54264 231776 253190 -8386 13713 -804
54257 231787 253205 -8428 13634 -793
54237 231780 253193 -8440 13697 -773
54221 231745 253176 -8443 13730 -749
54220 231816 253253 -8437 13706 -752
54227 231899 253361 -8420 13699 -764
54226 231914 253363 -8398 13715 -767
54198 231799 253211 -8378 13723 -775
54162 231630 252988 -8367 13735 -791
54163 231620 252996 -8371 13729 -799
54173 231678 253081 -8386 13713 -804
54191 231768 253191 -8445 13741 -807
54224 231900 253356 -8433 13675 -800
54291 232170 253682 -8431 13622 -815
54335 232336 253855 -8431 13641 -802
54357 232411 253941 -8430 13675 -767
54384 232537 254111 -8433 13671 -763
54414 232681 254300 -8472 13589 -782
54423 232706 254317 -8571 13493 -783
54429 232709 254321 -8591 13471 -781
54442 232729 254321 -8591 13505 -784
54442 232668 254213 -8631 13514 -798
54425 232535 254017 -8607 13549 -793
54402 232411 253824 -8570 13600 -767
54396 232315 253692 -8585 13531 -756
54402 232287 253640 -8637 13440 -743
54406 232284 253611 -8644 13416 -719
54416 232274 253601 -8620 13421 -709
54423 232289 253592 -8623 13404 -721
54435 232307 253584 -8648 13391 -721
54455 232336 253619 -8722 13400 -743
54477 232400 253683 -8756 13340 -721
54505 232462 253729 -8759 13292 -703
54540 232570 253856 -8730 13310 -710
54585 232695 254009 -8689 13342 -706
54621 232696 254038 -8672 13340 -698
54642 232610 254001 -8665 13328 -693
54644 232499 253933 -8656 13363 -682
54638 232417 253895 -8642 13428 -684
54628 232362 253873 -8641 13494 -699
54620 232358 253879 -8682 13499 -745
54615 232400 253954 -8685 13463 -787
54621 232458 254027 -8701 13451 -770
54614 232474 254055 -8762 13446 -717
54613 232512 254102 -8767 13421 -695
54608 232530 254122 -8726 13392 -719
54606 232569 254156 -8687 13398 -736
54607 232614 254207 -8662 13419 -729
54606 232615 254195 -8639 13420 -718
54604 232613 254182 -8635 13409 -728
54595 232574 254142 -8674 13422 -734
54584 232549 254118 -8681 13458 -726
54570 232534 254110 -8644 13472 -724
54560 232521 254092 -8631 13472 -703
54545 232494 254036 -8619 13462 -683
54529 232469 253993 -8613 13446 -703
54513 232437 253947 -8637 13439 -714
54503 232421 253917 -8671 13417 -712
54496 232425 253911 -8669 13381 -724
54492 232425 253897 -8656 13373 -730
54484 232426 253881 -8714 13459 -738
54482 232417 253865 -8697 13471 -715
54482 232439 253872 -8680 13458 -715
54475 232428 253850 -8677 13424 -719
54473 232429 253834 -8680 13400 -717
54472 232448 253843 -8681 13387 -706
54473 232453 253838 -8685 13376 -676
54469 232458 253828 -8670 13368 -662
54469 232454 253821 -8640 13365 -657
54475 232480 253843 -8664 13453 -721
54475 232502 253857 -8650 13456 -717
54469 232497 253817 -8643 13438 -715
54471 232501 253812 -8635 13436 -721
54482 232530 253841 -8623 13457 -722
54490 232471 253794 -8607 13459 -708
54485 232341 253693 -8594 13421 -694
54469 232204 253617 -8590 13411 -696
54442 232126 253586 -8593 13435 -681
54402 232071 253559 -8607 13462 -680
54362 232054 253558 -8615 13492 -730
54322 232043 253560 -8623 13528 -734
54288 232038 253560 -8634 13553 -686
54252 232026 253558 -8613 13548 -675
54216 232016 253554 -8580 13507 -662
54173 231985 253513 -8562 13472 -640
54139 231979 253494 -8549 13492 -647
54113 232000 253545 -8526 13509 -662
54086 231989 253510 -8507 13519 -672
54055 231947 253464 -8512 13531 -678
54030 231928 253463 -8550 13551 -690
53998 231920 253445 -8579 13565 -691
53970 231905 253441 -8556 13532 -686
53942 231896 253447 -8530 13506 -697
53918 231901 253458 -8529 13502 -702
53890 231912 253451 -8532 13509 -707
53867 231906 253434 -8528 13518 -712
53848 231917 253430 -8517 13524 -722
53827 231907 253418 -8512 13541 -725
53807 231919 253417 -8520 13536 -715
53798 231938 253428 -8599 13538 -702
53787 231960 253447 -8578 13527 -687
53775 231971 253444 -8560 13527 -680
53766 231971 253435 -8539 13522 -674
53757 231978 253438 -8535 13507 -670
53751 231990 253430 -8534 13502 -668
53746 231997 253432 -8516 13514 -674
53741 232014 253452 -8504 13531 -680
53738 232037 253460 -8514 13531 -669
53733 232038 253448 -8544 13566 -666
53734 232060 253462 -8535 13564 -679
53731 232081 253470 -8517 13562 -683
53721 232069 253428 -8510 13559 -673
53727 232102 253458 -8504 13550 -669
53738 232126 253500 -8498 13537 -673
53746 232058 253458 -8496 13526 -678
53731 231923 253354 -8505 13529 -683
53700 231809 253303 -8514 13533 -670
53653 231754 253299 -8508 13533 -696
53599 231715 253311 -8516 13555 -744
53545 231699 253305 -8538 13586 -728
53499 231704 253331 -8541 13618 -695
53449 231702 253331 -8523 13613 -698
53414 231694 253344 -8501 13574 -709
53375 231691 253336 -8480 13551 -697
53332 231661 253319 -8461 13560 -685
53301 231685 253331 -8440 13581 -706
53279 231705 253360 -8429 13599 -724
53253 231693 253339 -8449 13624 -736
53226 231663 253325 -8482 13649 -740
53199 231652 253314 -8490 13669 -724
53168 231646 253314 -8479 13658 -719
53017 231719 253333 -8483 13581 -733
53011 231707 253298 -8481 13579 -722
53008 231705 253261 -8478 13571 -701
53005 231702 253249 -8472 13567 -701
53012 231709 253247 -8465 13577 -690
53021 231716 253240 -8463 13584 -680
53028 231732 253249 -8467 13593 -683
53031 231733 253247 -8506 13634 -702
53041 231750 253249 -8486 13617 -702
53047 231772 253268 -8475 13602 -706
53061 231805 253295 -8474 13589 -702
53067 231821 253290 -8478 13588 -687
53075 231817 253255 -8484 13581 -686
53095 231853 253276 -8491 13570 -690
53118 231876 253300 -8486 13562 -689
53138 231806 253272 -8484 13549 -686
53137 231682 253196 -8509 13561 -697
53116 231569 253146 -8532 13600 -704
53084 231516 253140 -8510 13587 -709
53047 231481 253153 -8494 13558 -720
53011 231479 253157 -8512 13568 -709
52980 231482 253175 -8523 13578 -691
52956 231479 253158 -8514 13558 -682
52937 231476 253165 -8496 13526 -682
52921 231472 253157 -8481 13526 -670
52904 231458 253130 -8467 13541 -657
52897 231481 253157 -8452 13575 -687
52904 231514 253191 -8466 13644 -738
52909 231513 253185 -8487 13667 -752
52908 231521 253204 -8495 13640 -737
52917 231546 253249 -8501 13625 -724
52921 231569 253284 -8501 13587 -725
52923 231584 253317 -8502 13537 -738
52930 231632 253363 -8512 13540 -720
52945 231689 253442 -8521 13564 -695
52959 231757 253515 -8520 13562 -706
52974 231818 253567 -8518 13564 -723
52988 231853 253589 -8538 13593 -736
53001 231883 253628 -8554 13602 -737
53025 231944 253691 -8545 13573 -726
53046 231985 253715 -8551 13554 -715
53063 231998 253723 -8550 13538 -714
53084 232019 253732 -8540 13533 -708
53110 232064 253767 -8531 13530 -693
53137 232110 253810 -8529 13503 -667
53167 232161 253848 -8539 13488 -652
53195 232203 253889 -8537 13491 -658
53228 232261 253938 -8557 13531 -674
53261 232314 253983 -8540 13522 -677
53288 232331 253998 -8533 13529 -676
53318 232364 254027 -8536 13535 -676
53347 232410 254064 -8547 13524 -674
53385 232477 254136 -8544 13505 -685
53422 232545 254200 -8532 13499 -704
53447 232572 254193 -8543 13492 -710
53480 232610 254220 -8549 13478 -710
53527 232715 254314 -8571 13500 -711
53572 232743 254386 -8604 13512 -722
53617 232668 254359 -8606 13510 -720
53649 232599 254360 -8600 13507 -690
53668 232532 254373 -8573 13478 -706
53672 232508 254388 -8554 13454 -736
53677 232530 254445 -8575 13459 -731
53688 232586 254526 -8600 13486 -699
53695 232624 254549 -8592 13497 -691
53701 232639 254553 -8570 13496 -713
53719 232685 254598 -8581 13510 -693
53729 232704 254615 -8557 13500 -703
53742 232751 254650 -8536 13523 -715
53770 232836 254743 -8534 13549 -720
53801 232880 254791 -8544 13543 -713
53825 232905 254828 -8560 13515 -704
53853 232923 254860 -8563 13475 -700
53878 232956 254912 -8566 13449 -721
53903 232994 254980 -8582 13452 -728
53927 233053 255055 -8596 13469 -739
53953 233120 255111 -8630 13512 -768
53968 233139 255125 -8660 13512 -770
53987 233162 255128 -8658 13474 -774
54005 233185 255140 -8650 13452 -766
54018 233186 255118 -8644 13434 -751
54037 233190 255088 -8635 13424 -750
54061 233220 255108 -8639 13427 -742
54087 233239 255112 -8643 13422 -740
54099 233217 255058 -8645 13413 -727
54112 233191 254985 -8648 13413 -714
54128 233177 254937 -8658 13433 -721
54145 233169 254888 -8661 13446 -725
54162 233148 254852 -8647 13431 -710
54180 233135 254798 -8635 13434 -702
54210 233164 254813 -8633 13431 -718
54239 233201 254854 -8635 13418 -727
54268 233243 254903 -8641 13418 -733
54295 233308 254985 -8648 13410 -737
54313 233349 255021 -8657 13388 -735
54333 233403 255064 -8678 13376 -733
54351 233446 255117 -8730 13444 -798
54365 233399 255036 -8709 13411 -800
54375 233258 254920 -8697 13406 -786
54433 233264 255050 -8690 13407 -770
54483 233298 255178 -8705 13386 -758
54540 233409 255422 -8773 13375 -738
54607 233606 255719 -8824 13362 -728
54655 233752 255866 -8839 13308 -758
54701 233887 256017 -8902 13252 -769
54740 234021 256175 -8938 13283 -761
54772 234107 256279 -8973 13282 -741
54795 234178 256366 -8964 13267 -709
54823 234251 256454 -8836 13307 -749
54843 234302 256485 -8800 13301 -789
54867 234318 256480 -8872 13305 -774
54886 234318 256452 -8925 13333 -760
54900 234259 256370 -8947 13303 -752
54906 234176 256240 -8965 13256 -748
54909 234077 256100 -8962 13275 -755
54925 234053 256056 -8974 13300 -779
54943 234082 256086 -9039 13278 -783
54969 234143 256136 -9096 13205 -759
54996 234207 256195 -9129 13149 -716
55027 234291 256289 -9157 13116 -693
55082 234468 256522 -9179 13065 -702
55140 234669 256777 -9194 13033 -697
55181 234811 256923 -9174 13049 -685
55210 234866 256959 -9120 13120 -677
55229 234896 256972 -9076 13161 -678
55251 234915 256958 -9082 13159 -685
55258 234888 256883 -9114 13182 -692
55275 234896 256857 -9107 13190 -684
55292 234890 256828 -9077 13176 -693
55307 234872 256774 -9071 13173 -710
55332 234892 256763 -9101 13173 -703
55363 234920 256814 -9131 13169 -702
55408 235005 256900 -9138 13155 -714
55441 235065 256946 -9136 13146 -708
55463 235095 256952 -9145 13161 -683
55496 235157 257004 -9172 13144 -670
55529 235197 257025 -9110 13131 -692
55556 235099 256937 -9116 13117 -664
55584 234957 256861 -9100 13114 -661
55603 234835 256806 -9061 13100 -679
55623 234767 256787 -9082 13139 -672
55634 234731 256778 -9128 13205 -658
55636 234725 256774 -9126 13224 -658
55642 234738 256795 -9098 13212 -670
55647 234747 256783 -9073 13184 -663
55650 234744 256782 -9030 13204 -688
55657 234763 256794 -8987 13224 -695
55663 234773 256792 -8966 13227 -702
55668 234791 256795 -8980 13211 -705
55679 234822 256815 -9005 13204 -707
55682 234792 256768 -9020 13202 -702
55684 234768 256741 -9016 13200 -707
55689 234748 256720 -9003 13212 -725
55693 234737 256719 -9011 13226 -719
55700 234732 256716 -9058 13256 -748
55707 234751 256732 -9038 13252 -748
55709 234753 256722 -8995 13238 -729
55714 234760 256721 -8980 13236 -720
55719 234782 256727 -8996 13240 -691
55721 234784 256708 -8996 13244 -678
55724 234782 256694 -8986 13233 -684
55727 234792 256677 -8974 13217 -685
55737 234802 256681 -8963 13203 -687
55753 234863 256742 -8973 13190 -699
55768 234904 256770 -8994 13187 -725
55767 234865 256692 -8988 13179 -753
55766 234841 256647 -9007 13203 -763
55790 234916 256734 -9055 13252 -739
55811 234989 256824 -9052 13229 -713
55819 235020 256827 -8984 13160 -748
55816 234989 256774 -8935 13149 -800
55815 234947 256695 -8986 13195 -792
55839 235019 256780 -9066 13245 -737
55873 235115 256930 -9085 13252 -692
55907 235083 256960 -9047 13233 -731
55917 234936 256864 -8969 13225 -784
55919 234818 256806 -8940 13282 -760
55927 234795 256839 -8965 13384 -708
55922 234763 256836 -8947 13405 -689
55908 234753 256834 -8883 13380 -708
55909 234788 256884 -8827 13364 -713
55903 234793 256877 -8801 13348 -681
55893 234774 256838 -8762 13321 -659
55885 234756 256832 -8741 13301 -664
55888 234804 256887 -8801 13361 -659
55886 234841 256912 -8844 13395 -666
55884 234846 256901 -8811 13354 -689
55880 234827 256884 -8798 13325 -704
55880 234833 256910 -8839 13310 -702
55877 234837 256923 -8905 13309 -670
55870 234798 256897 -8957 13295 -653
55866 234818 256905 -8974 13263 -673
55871 234848 256957 -8992 13247 -672
55874 234887 256993 -8996 13237 -656
55874 234900 256994 -8992 13204 -690
55876 234930 257021 -8969 13182 -684
55884 234971 257076 -8940 13167 -679
55915 235116 257255 -8922 13182 -677
55964 235334 257545 -8910 13207 -681
55990 235461 257680 -8902 13212 -705
55990 235475 257670 -8913 13223 -724
56001 235505 257699 -8912 13261 -728
55996 235470 257627 -8887 13294 -719
55988 235427 257544 -8880 13307 -735
55977 235370 257439 -8900 13354 -763
55960 235303 257324 -8884 13383 -762
55961 235305 257313 -8856 13358 -771
55957 235289 257267 -8843 13338 -777
55945 235244 257175 -8838 13318 -796
55950 235240 257138 -8859 13296 -813
55966 235208 257146 -8886 13274 -797
55980 235093 257081 -8879 13257 -789
55980 234975 257028 -8866 13266 -788
55970 234895 257011 -8892 13303 -761
55959 234885 257043 -8948 13348 -755
55939 234869 257052 -8946 13333 -767
55917 234851 257037 -8882 13284 -756
55897 234870 257025 -8849 13266 -734
55880 234873 257027 -8842 13281 -706
55863 234886 257033 -8834 13297 -710
55842 234868 256995 -8815 13293 -732
55826 234862 256964 -8811 13299 -730
55821 234893 256993 -8840 13304 -707
55818 234904 257004 -8863 13295 -694
55802 234861 256951 -8869 13317 -718
55785 234812 256911 -8863 13338 -725
55767 234781 256854 -8862 13334 -697
55749 234760 256843 -8855 13333 -685
55734 234764 256832 -8830 13312 -686
55715 234730 256766 -8817 13281 -677
55700 234737 256762 -8803 13273 -669
55697 234768 256785 -8794 13275 -661
55689 234789 256800 -8804 13281 -654
55676 234796 256789 -8827 13292 -652
55670 234811 256785 -8876 13392 -676
55667 234830 256790 -8865 13369 -661
55664 234863 256803 -8837 13323 -654
55665 234878 256805 -8814 13291 -664
55668 234931 256855 -8810 13283 -669
55683 235006 256940 -8801 13297 -675
55696 235078 257016 -8794 13303 -688
55732 235220 257198 -8801 13298 -686
55774 235422 257454 -8799 13311 -669
55823 235632 257719 -8836 13353 -698
55863 235816 257947 -8835 13358 -706
55896 235958 258109 -8827 13375 -697
55933 236121 258308 -8835 13386 -694
55981 236292 258532 -8814 13316 -707
56041 236433 258752 -8808 13260 -719
56087 236450 258893 -8862 13290 -704
56119 236479 259033 -8903 13331 -667
56121 236502 259157 -8885 13318 -660
56102 236491 259169 -8836 13293 -691
56073 236472 259155 -8809 13327 -717
56046 236490 259166 -8790 13356 -719
56014 236492 259137 -8759 13352 -728
55985 236449 259057 -8754 13368 -746
55947 236401 258960 -8765 13386 -750
55921 236380 258904 -8777 13383 -755
55901 236410 258923 -8782 13356 -749
55893 236428 258930 -8785 13323 -743
55880 236403 258896 -8783 13319 -762
55867 236380 258866 -8784 13342 -772
55852 236361 258858 -8811 13365 -777
55837 236364 258857 -8785 13357 -783
55819 236366 258869 -8779 13369 -792
55797 236363 258859 -8788 13360 -787
55773 236344 258830 -8805 13334 -769
55753 236350 258784 -8813 13319 -752
55730 236329 258757 -8815 13324 -738
55709 236301 258692 -8806 13328 -722
55692 236296 258649 -8789 13320 -714
55674 236269 258592 -8822 13361 -697
55655 236262 258555 -8801 13343 -698
55649 236265 258553 -8794 13314 -694
55645 236288 258565 -8803 13301 -686
55638 236324 258581 -8826 13294 -683
55637 236349 258596 -8837 13294 -687
55639 236395 258643 -8830 13296 -693
55648 236487 258736 -8835 13291 -694
55664 236565 258821 -8854 13300 -690
55678 236658 258921 -8901 13270 -754
55714 236844 259153 -8937 13258 -758
55756 237029 259381 -8959 13307 -727
55785 237055 259454 -8946 13351 -706
55797 236955 259408 -8891 13319 -723
55781 236851 259380 -8846 13265 -744
55761 236835 259456 -8832 13247 -761
55724 236867 259546 -8833 13276 -774
55683 236916 259646 -8850 13317 -782
55644 236971 259720 -8886 13330 -797
55602 237021 259780 -8935 13338 -827
55567 237066 259829 -8948 13321 -828
55529 237085 259839 -8924 13269 -813
55499 237118 259858 -8909 13238 -811
55482 237194 259932 -8913 13253 -792
55465 237187 259907 -8928 13263 -771
55444 237163 259869 -8936 13271 -771
55420 237139 259847 -8930 13278 -780
55399 237129 259837 -8911 13261 -777
55369 237122 259836 -8907 13249 -764
55337 237113 259835 -8956 13275 -770
55305 237105 259819 -8991 13297 -771
55277 237100 259808 -8972 13291 -752
55250 237105 259772 -8949 13295 -751
55225 237090 259750 -8940 13285 -732
55205 237104 259745 -8939 13262 -722
55189 237128 259751 -8926 13247 -729
55180 237141 259748 -8914 13240 -722
55171 237160 259753 -8916 13234 -720
55164 237169 259742 -8924 13227 -711
55160 237184 259734 -8966 13261 -720
55152 237185 259701 -8935 13250 -722
55145 237189 259692 -8941 13252 -713
55147 237227 259721 -8957 13251 -706
55143 237240 259700 -8930 13218 -721
55138 237222 259639 -8911 13205 -730
55147 237248 259661 -8941 13257 -716
55162 237253 259667 -8988 13304 -688
55167 237127 259565 -8989 13287 -682
55148 236978 259484 -8911 13262 -734
55113 236884 259467 -8875 13248 -723
55057 236854 259505 -8861 13261 -719
54998 236834 259524 -8867 13268 -731
54934 236826 259528 -8869 13266 -730
54875 236826 259524 -8881 13285 -732
54825 236818 259514 -8899 13305 -732
54782 236835 259528 -8900 13278 -737
54744 236822 259506 -8879 13251 -756
54711 236823 259469 -8896 13282 -750
54694 236841 259478 -8928 13317 -741
54681 236824 259449 -8909 13305 -747
54660 236790 259404 -8885 13291 -746
54639 236766 259373 -8882 13288 -741
54619 236735 259348 -8887 13267 -732
54589 236716 259332 -8910 13261 -727
54564 236716 259317 -8935 13265 -716
54543 236719 259318 -8951 13255 -717
54533 236741 259328 -8954 13252 -713
54521 236769 259353 -8953 13247 -702
54520 236799 259385 -8955 13270 -711
54516 236843 259423 -8944 13279 -718
54525 236891 259453 -8928 13257 -719
54532 236912 259479 -8925 13258 -708
54535 236947 259486 -8918 13259 -696
54542 236966 259481 -8910 13260 -691
54547 236967 259475 -8899 13264 -686
54557 236988 259472 -8890 13258 -687
54563 236984 259450 -8891 13246 -686
54572 236972 259406 -8900 13246 -684
54583 236987 259413 -8955 13270 -711
54595 236985 259374 -8944 13279 -718
54600 236969 259306 -8928 13257 -719
54629 237030 259384 -8925 13258 -708
54667 237071 259459 -8918 13259 -696
54685 236973 259405 -8910 13260 -691
54680 236829 259349 -8899 13264 -686
54648 236727 259311 -8890 13258 -687
54605 236681 259328 -8891 13246 -686
54556 236665 259337 -8900 13246 -684
54513 236658 259327 -8920 13280 -749
54478 236645 259318 -8885 13264 -761
54445 236620 259270 -8917 13310 -733
54418 236609 259247 -8945 13333 -695
54397 236609 259238 -8932 13314 -707
54385 236604 259209 -8876 13274 -725
54376 236608 259195 -8826 13249 -726
54362 236519 259079 -8810 13266 -722
54345 236449 258961 -8811 13300 -724
54338 236395 258917 -8843 13354 -735
54325 236364 258875 -8855 13387 -744
54314 236324 258836 -8837 13361 -740
54302 236292 258776 -8825 13329 -735
54295 236265 258730 -8839 13299 -740
54290 236247 258701 -8860 13300 -748
54291 236254 258694 -8870 13319 -727
54300 236271 258704 -8868 13333 -717
54309 236279 258689 -8847 13335 -745
54312 236269 258643 -8839 13319 -758
54324 236256 258613 -8860 13336 -774
54335 236244 258579 -8896 13357 -782
54349 236247 258557 -8911 13336 -758
54366 236268 258558 -8911 13299 -729
54383 236269 258532 -8903 13277 -716
54401 236278 258517 -8885 13258 -716
54423 236269 258495 -8881 13249 -704
54436 236255 258447 -8884 13262 -702
54453 236240 258408 -8883 13270 -708
54471 236261 258425 -8888 13269 -710
54497 236279 258415 -8896 13277 -717
54507 236242 258333 -8914 13298 -723
54542 236286 258377 -8921 13283 -719
54586 236335 258445 -8910 13257 -718
54611 236209 258368 -8907 13255 -730
54621 236060 258286 -8915 13251 -736
54623 235967 258262 -8907 13239 -731
54616 235941 258297 -8893 13226 -723
54602 235935 258319 -8903 13226 -716
54592 235943 258340 -8904 13235 -705
54586 235969 258359 -8866 13231 -713
54586 235987 258375 -8875 13263 -752
54580 235995 258364 -8928 13319 -752
54575 235969 258319 -8959 13343 -709
54577 235983 258315 -8948 13304 -706
54592 236011 258350 -8894 13238 -719
54603 236011 258336 -8851 13226 -705
54614 235978 258295 -8836 13247 -683
54620 235937 258250 -8827 13271 -694
54627 235919 258238 -8824 13294 -716
54633 235917 258226 -8853 13323 -736
54641 235898 258212 -8870 13363 -760
54647 235902 258187 -8855 13356 -757
54656 235886 258161 -8852 13303 -748
54666 235882 258149 -8862 13285 -749
54675 235860 258103 -8889 13298 -736
54685 235846 258055 -8909 13294 -717
54698 235827 258018 -8887 13285 -719
54707 235807 257957 -8869 13286 -724
54721 235793 257912 -8867 13281 -728
54733 235770 257860 -8878 13298 -734
54749 235761 257814 -8919 13335 -736
54770 235764 257809 -8931 13325 -729
54791 235773 257804 -8901 13297 -722
54811 235777 257785 -8889 13288 -702
54837 235796 257791 -8886 13263 -676
54860 235797 257774 -8882 13249 -669
54881 235809 257762 -8884 13253 -662
54902 235817 257755 -8879 13257 -654
54930 235836 257759 -8876 13259 -657
54955 235862 257767 -8865 13258 -659
54977 235869 257748 -8896 13324 -702
54992 235826 257653 -8880 13314 -676
55017 235833 257637 -8866 13302 -680
55049 235822 257619 -8863 13293 -694
55084 235710 257539 -8878 13289 -693
55101 235536 257431 -8880 13290 -687
55116 235422 257371 -8870 13284 -680
55124 235368 257374 -8860 13274 -679
55130 235356 257397 -8854 13293 -682
55133 235374 257414 -8844 13366 -712
55143 235407 257461 -8813 13323 -732
55148 235424 257477 -8865 13327 -699
55156 235454 257504 -8915 13329 -653
55161 235459 257483 -8902 13286 -661
55167 235466 257475 -8859 13232 -683
55183 235523 257537 -8838 13209 -684
55201 235544 257557 -8838 13218 -695
55209 235522 257520 -8846 13245 -720
55220 235503 257507 -8868 13305 -758
55234 235504 257519 -8877 13332 -770
55247 235503 257523 -8874 13300 -756
55259 235520 257530 -8885 13275 -737
55274 235528 257536 -8898 13259 -729
55284 235555 257542 -8896 13246 -732
55296 235566 257554 -8900 13256 -706
55308 235572 257533 -8897 13289 -701
55316 235576 257523 -8882 13305 -729
55329 235581 257513 -8867 13293 -747
55350 235599 257520 -8872 13296 -758
55369 235643 257534 -8924 13320 -775
55389 235665 257561 -8950 13300 -774
55409 235700 257573 -8942 13267 -760
55425 235723 257577 -8942 13262 -748
55441 235735 257588 -8941 13256 -733
55462 235757 257607 -8930 13236 -722
55481 235787 257618 -8921 13206 -718
55501 235815 257633 -8914 13194 -718
55521 235830 257645 -8902 13196 -721
55543 235859 257665 -8905 13218 -721
55564 235890 257689 -8931 13288 -726
55585 235938 257719 -8930 13313 -725
55601 235929 257691 -8917 13283 -722
55614 235945 257676 -8914 13273 -741
55649 236025 257767 -8918 13276 -740
55687 236051 257800 -8923 13292 -727
55714 235932 257724 -8910 13294 -727
55738 235807 257669 -8896 13277 -729
55752 235725 257667 -8893 13262 -735
55767 235699 257712 -8905 13264 -736
55782 235726 257767 -8914 13320 -723
55790 235776 257829 -8855 13271 -731
55804 235820 257883 -8853 13267 -733
55811 235862 257913 -8904 13319 -706
55812 235881 257919 -8924 13351 -696
55813 235885 257900 -8885 13328 -717
55821 235910 257922 -8841 13276 -726
55834 235978 257983 -8809 13234 -729
55845 235968 257963 -8799 13245 -739
55854 235939 257921 -8833 13325 -743
55866 235934 257929 -8862 13394 -751
55874 235936 257939 -8864 13380 -756
55881 235925 257932 -8859 13353 -741
55890 235923 257922 -8840 13326 -743
55898 235945 257943 -8822 13292 -757
55906 235973 257976 -8825 13296 -746
55915 235999 257996 -8835 13322 -742
55922 236016 257986 -8843 13328 -759
55926 236032 257994 -8847 13321 -761
55936 236062 258013 -8860 13330 -773
55944 236082 258020 -8913 13328 -792
55959 236089 258015 -8939 13268 -780
55965 236112 258033 -8948 13205 -757
55978 236151 258041 -8971 13186 -743
55988 236166 258044 -8986 13190 -743
55996 236177 258040 -9004 13193 -740
56006 236195 258038 -9019 13188 -735
56020 236208 258044 -9015 13173 -742
56029 236200 258020 -8990 13163 -750
56043 236224 258029 -8963 13196 -755
56061 236266 258063 -8967 13261 -777
56074 236297 258087 -8960 13287 -791
56083 236286 258039 -8952 13279 -779
56091 236310 258028 -8963 13269 -773
56111 236346 258075 -8959 13249 -778
56133 236332 258082 -8964 13231 -778
56147 236204 257984 -8965 13227 -774
56164 236060 257943 -8942 13209 -790
56174 235989 257940 -8926 13193 -800
56180 235970 257979 -8952 13231 -787
56174 235969 258011 -8978 13296 -817
56169 235996 258044 -8942 13230 -818
56165 236024 258083 -8973 13229 -789
56159 236051 258092 -9015 13257 -754
56158 236082 258114 -8994 13263 -739
56150 236081 258104 -8939 13236 -733
56148 236095 258104 -8894 13228 -735
56152 236133 258134 -8866 13241 -737
56152 236117 258100 -8849 13255 -742
56148 236081 258058 -8872 13301 -760
56147 236066 258049 -8901 13331 -754
56146 236057 258046 -8893 13310 -741
56148 236044 258055 -8886 13299 -743
56142 236046 258058 -8886 13306 -755
56138 236054 258060 -8876 13296 -788
56137 236073 258071 -8894 13297 -789
56133 236084 258075 -8922 13303 -779
56129 236083 258056 -8920 13290 -787
56124 236092 258041 -8924 13269 -793
56128 236108 258061 -8984 13273 -796
56130 236143 258064 -8991 13259 -782
56128 236151 258061 -8982 13240 -774
56134 236170 258082 -8980 13242 -763
56140 236202 258082 -8974 13247 -749
56146 236233 258113 -8962 13245 -746
56155 236253 258120 -8957 13236 -741
56159 236266 258116 -8952 13207 -728
56171 236293 258135 -8946 13186 -716
56173 236301 258112 -8941 13191 -727
56178 236296 258093 -8956 13231 -753
56181 236307 258091 -8949 13262 -754
56191 236344 258125 -8916 13276 -747
56201 236361 258133 -8900 13286 -753
56201 236350 258083 -8892 13281 -762
56202 236370 258089 -8900 13292 -781
56224 236425 258139 -8917 13292 -811
56242 236360 258087 -8932 13269 -824
56252 236185 257975 -8937 13240 -822
56250 236030 257909 -8947 13211 -826
56249 235974 257927 -8986 13249 -843
56234 235942 257952 -8979 13276 -842
56209 235922 257955 -8910 13239 -841
56185 235923 257959 -8894 13227 -852
56159 235929 257966 -8936 13272 -827
56130 235923 257940 -8993 13300 -805
56104 235907 257926 -9020 13251 -819
56076 235883 257889 -9007 13181 -834
56052 235891 257886 -8985 13161 -826
56039 235925 257918 -8958 13178 -827
56020 235901 257891 -8985 13307 -877
56002 235868 257844 -8986 13286 -857
55981 235826 257822 -8961 13238 -872
55960 235815 257821 -8952 13219 -869
55932 235802 257801 -8957 13200 -864
55913 235783 257796 -8950 13176 -885
55885 235785 257798 -8967 13195 -869
55866 235804 257811 -9000 13225 -846
55847 235814 257801 -9002 13232 -863
55825 235799 257766 -9015 13249 -867
55804 235809 257758 -9000 13233 -831
55791 235829 257776 -8984 13203 -818
55784 235858 257785 -8985 13206 -804
55770 235867 257778 -8985 13225 -789
55763 235880 257787 -8990 13234 -792
55753 235902 257792 -8996 13228 -790
55743 235923 257800 -8994 13209 -785
55731 235930 257798 -8990 13190 -770
55723 235937 257797 -9005 13209 -758
55717 235958 257796 -9020 13271 -761
55708 235967 257801 -8998 13295 -769
55700 235967 257784 -8969 13281 -776
55698 235975 257789 -8950 13274 -787
55691 235987 257799 -8943 13248 -796
55687 236017 257814 -8955 13206 -789
55684 236032 257794 -8977 13193 -788
55671 235999 257728 -8999 13204 -795
55666 236016 257737 -8996 13195 -804
55680 236065 257797 -8978 13201 -808
55688 235978 257732 -8989 13257 -815
55672 235787 257600 -8986 13281 -808
55638 235623 257501 -8957 13276 -779
55596 235546 257512 -8932 13263 -766
55548 235517 257527 -8900 13200 -786
55489 235496 257542 -8924 13213 -795
55433 235487 257545 -8995 13305 -763
55385 235488 257547 -9032 13334 -750
55333 235484 257549 -9037 13268 -766
55284 235482 257546 -9005 13174 -776
55231 235438 257508 -8980 13225 -783
55189 235441 257495 -8935 13247 -771
55156 235467 257514 -8902 13276 -776
55124 235455 257502 -8891 13293 -776
55085 235410 257460 -8899 13286 -776
55044 235369 257413 -8906 13265 -766
55009 235354 257421 -8924 13237 -756
54968 235348 257428 -8947 13206 -773
54928 235339 257423 -8981 13204 -782
54893 235319 257397 -8993 13297 -802
54861 235337 257386 -8945 13265 -814
54833 235342 257392 -8928 13249 -810
54802 235343 257384 -8946 13254 -790
54782 235351 257379 -8964 13254 -779
54763 235383 257408 -8981 13227 -778
54755 235417 257441 -9017 13196 -780
54743 235455 257486 -9029 13179 -771
54737 235510 257531 -9014 13180 -767
54721 235515 257534 -9029 13222 -812
54704 235512 257528 -9017 13232 -809
54684 235503 257464 -8994 13226 -781
54670 235471 257413 -8980 13225 -759
54654 235438 257354 -8969 13211 -763
54648 235436 257337 -8973 13204 -772
54639 235429 257319 -8972 13230 -764
54632 235415 257286 -8971 13262 -765
54627 235423 257281 -8961 13262 -783
54631 235466 257311 -8954 13268 -805
54629 235486 257316 -8979 13308 -836
54623 235472 257272 -8970 13305 -827
54629 235506 257285 -8931 13262 -795
54645 235564 257345 -8915 13244 -791
54657 235510 257318 -8923 13245 -781
54652 235352 257219 -8921 13240 -766
54629 235214 257148 -8887 13223 -784
54581 235123 257143 -8894 13232 -799
54517 235076 257153 -8958 13277 -768
54456 235063 257171 -8994 13297 -739
54396 235076 257198 -8993 13298 -755
54347 235077 257203 -8946 13292 -772
54301 235076 257213 -8877 13267 -769
54263 235088 257220 -8854 13254 -768
54225 235078 257187 -8857 13271 -772
54195 235086 257189 -8871 13300 -774
54176 235121 257236 -8889 13303 -776
54157 235118 257233 -8908 13298 -766
54131 235085 257206 -8912 13280 -760
54102 235048 257173 -8900 13236 -775
54074 235036 257165 -8921 13253 -824
54047 235021 257174 -8958 13310 -852
54021 235034 257187 -8961 13331 -834
53996 235034 257182 -8945 13316 -828
53976 235034 257169 -8945 13266 -813
53962 235051 257190 -8958 13232 -805
53951 235069 257197 -8981 13220 -799
53942 235086 257216 -9001 13220 -793
53934 235099 257222 -9013 13218 -796
53933 235129 257237 -9018 13191 -793
53934 235162 257264 -9053 13216 -779
53941 235194 257298 -9052 13207 -763
53945 235217 257305 -9032 13199 -743
53953 235236 257320 -8996 13193 -745
53955 235251 257335 -8971 13198 -749
53968 235280 257349 -8975 13209 -740
53975 235296 257354 -8985 13204 -737
53982 235300 257353 -8992 13189 -755
53989 235319 257361 -9007 13186 -767
54009 235379 257431 -9034 13211 -777
54021 235394 257430 -9053 13238 -816
54026 235384 257375 -9048 13218 -822
54043 235421 257416 -9035 13180 -800
54068 235474 257456 -9046 13178 -781
54091 235448 257456 -9057 13203 -760
54105 235331 257375 -9028 13199 -777
54095 235218 257345 -8997 13164 -797
54080 235174 257389 -9028 13166 -778
54058 235201 257495 -9088 13204 -753
54043 235275 257605 -9092 13228 -753
54031 235364 257742 -9052 13229 -792
54027 235460 257869 -9003 13207 -814
54030 235548 257979 -8981 13202 -798
54048 235672 258145 -9003 13236 -793
54089 235897 258459 -9031 13268 -803
54156 236269 258952 -9048 13268 -798
54239 236634 259457 -9044 13238 -797
54298 236892 259802 -9029 13210 -804
54344 237064 260060 -9021 13188 -806
54384 237228 260307 -9015 13179 -826
54425 237405 260550 -9029 13236 -850
54462 237560 260763 -9045 13275 -841
54498 237689 260926 -9042 13241 -819
54529 237786 261051 -9038 13204 -816
54559 237886 261162 -9062 13170 -808
54592 237966 261257 -9104 13129 -787
54621 238027 261306 -9128 13106 -783
54646 238070 261325 -9128 13124 -788
54675 238099 261339 -9103 13151 -787
54700 238116 261360 -9089 13161 -785
54723 238123 261332 -9174 13198 -780
54744 238103 261288 -9180 13185 -769
54765 238092 261259 -9157 13166 -767
54791 238096 261219 -9142 13147 -764
54810 238066 261161 -9158 13098 -747
54838 238055 261120 -9184 13050 -739
54864 238056 261099 -9195 13043 -748
54889 238054 261075 -9199 13044 -746
54910 238044 261055 -9206 13045 -739
54931 238016 260987 -9258 13079 -776
54949 237989 260926 -9241 13097 -793
54961 237914 260762 -9202 13097 -780
54961 237786 260559 -9180 13094 -763
54968 237689 260390 -9195 13092 -748
54988 237626 260319 -9192 13092 -748
55012 237499 260198 -9158 13080 -766
55012 237252 259965 -9163 13097 -781
54992 237002 259750 -9212 13134 -769
54968 236846 259609 -9245 13160 -745
54944 236732 259487 -9222 13178 -753
54900 236547 259246 -9166 13157 -773
54850 236347 258957 -9113 13108 -770
54787 236086 258589 -9092 13091 -762
54734 235880 258300 -9098 13115 -769
54697 235719 258076 -9104 13160 -781
54672 235589 257876 -9111 13187 -780
54663 235519 257765 -9129 13171 -788
54678 235536 257799 -9160 13139 -785
54673 235504 257753 -9166 13109 -783
54665 235455 257722 -9184 13197 -855
54674 235504 257814 -9191 13160 -825
54673 235474 257774 -9218 13122 -806
54665 235398 257661 -9239 13091 -817
54667 235381 257650 -9227 13078 -809
54715 235539 257846 -9216 13069 -786
54763 235694 258044 -9245 13010 -787
54824 235890 258279 -9350 12922 -784
54903 236134 258559 -9406 12923 -782
54978 236342 258797 -9451 12998 -814
55031 236435 258876 -9466 12952 -783
55071 236522 258973 -9442 12978 -739
55109 236588 259052 -9461 12943 -723
55147 236656 259132 -9492 12856 -725
55186 236719 259194 -9526 12813 -718
55229 236820 259315 -9540 12835 -729
55271 236889 259402 -9530 12885 -748
55310 236950 259467 -9574 12869 -725
55349 236989 259494 -9670 12801 -734
55381 237011 259501 -9680 12786 -724
55412 237019 259488 -9703 12736 -700
55449 237062 259529 -9738 12695 -695
55481 237098 259550 -9761 12693 -693
55501 237058 259467 -9753 12724 -688
55532 237065 259444 -9705 12742 -691
55577 237114 259513 -9699 12730 -698
55634 237135 259619 -9758 12730 -691
55710 237245 259886 -9796 12759 -682
55774 237381 260155 -9745 12793 -720
55815 237472 260340 -9670 12794 -737
55838 237532 260452 -9642 12764 -701
55851 237583 260519 -9626 12781 -688
55862 237599 260533 -9612 12807 -710
55865 237592 260521 -9603 12810 -719
55880 237594 260526 -9612 12795 -702
55891 237597 260529 -9630 12761 -712
55888 237506 260391 -9660 12758 -717
55870 237360 260137 -9647 12782 -703
55873 237298 260035 -9597 12839 -730
55895 237304 260039 -9608 12861 -778
55907 237249 259952 -9655 12824 -762
55924 237204 259890 -9675 12819 -716
55940 237188 259854 -9647 12826 -715
55953 237152 259806 -9620 12807 -709
55956 237116 259745 -9620 12787 -698
55962 237078 259689 -9627 12793 -698
55969 237029 259606 -9656 12815 -698
55971 237012 259572 -9686 12807 -699
55984 236993 259528 -9685 12727 -686
55996 236982 259500 -9700 12722 -678
56010 236976 259458 -9684 12742 -672
56024 236958 259432 -9665 12752 -675
56045 236977 259428 -9672 12746 -678
56058 236975 259405 -9693 12738 -677
56074 236969 259380 -9706 12736 -685
56089 236963 259357 -9693 12759 -680
56105 236949 259331 -9680 12777 -676
56124 236945 259316 -9666 12789 -712
56145 236972 259327 -9691 12785 -715
56162 236977 259314 -9709 12773 -702
56175 236965 259276 -9693 12751 -688
56188 236953 259243 -9668 12727 -694
56213 236978 259258 -9676 12725 -695
56236 236945 259220 -9722 12757 -673
56258 236826 259126 -9732 12783 -659
56263 236669 259008 -9694 12774 -662
56262 236549 258939 -9609 12760 -686
56268 236499 258934 -9586 12793 -685
56271 236493 258940 -9553 12829 -686
56277 236486 258940 -9533 12856 -692
56277 236483 258925 -9523 12869 -702
56278 236468 258909 -9522 12868 -710
56284 236468 258905 -9536 12867 -702
56291 236463 258909 -9527 12871 -709
56294 236466 258900 -9518 12855 -718
56298 236485 258899 -9552 12843 -718
56306 236482 258892 -9573 12865 -745
56312 236469 258871 -9561 12884 -757
56316 236449 258851 -9539 12882 -739
56319 236429 258827 -9515 12882 -746
56323 236406 258799 -9509 12874 -758
56321 236403 258789 -9510 12858 -759
56329 236410 258786 -9515 12853 -753
56337 236420 258789 -9524 12854 -741
56339 236418 258780 -9519 12856 -732
56340 236410 258757 -9503 12856 -725
56347 236410 258735 -9573 12865 -745
56350 236420 258750 -9561 12884 -757
56360 236435 258736 -9539 12882 -739
56366 236434 258728 -9515 12882 -746
56377 236450 258726 -9509 12874 -758
56386 236451 258721 -9510 12858 -759
56396 236459 258716 -9515 12853 -753
56402 236460 258708 -9524 12854 -741
56413 236476 258701 -9519 12856 -732
56421 236493 258711 -9503 12856 -725
56438 236511 258730 -9478 12896 -725
56446 236526 258722 -9476 12898 -711
56455 236526 258695 -9477 12892 -712
56468 236548 258724 -9491 12885 -712
56484 236550 258720 -9503 12896 -701
56499 236468 258642 -9493 12897 -702
56497 236322 258522 -9488 12869 -703
56491 236194 258438 -9481 12854 -699
56491 236136 258427 -9472 12864 -710
56491 236122 258446 -9470 12911 -715
56489 236150 258469 -9460 12936 -713
56490 236155 258480 -9433 12901 -712
56487 236163 258492 -9431 12905 -710
56488 236174 258503 -9473 12941 -704
56486 236176 258504 -9501 12951 -684
56482 236197 258505 -9486 12924 -686
56483 236204 258513 -9446 12885 -698
56486 236217 258518 -9417 12865 -685
56484 236187 258490 -9403 12883 -675
56482 236177 258458 -9389 12984 -719
56481 236152 258450 -9398 12986 -731
56480 236150 258444 -9405 12976 -720
56479 236152 258453 -9402 12965 -701
56477 236165 258454 -9416 12947 -707
56477 236176 258453 -9434 12915 -710
56476 236179 258456 -9449 12909 -689
56477 236203 258460 -9464 12923 -681
56480 236201 258455 -9457 12914 -684
56478 236218 258458 -9441 12906 -700
56483 236229 258460 -9445 12926 -734
56488 236251 258473 -9454 12945 -728
56487 236262 258470 -9463 12942 -700
56493 236276 258481 -9459 12933 -687
56498 236290 258478 -9456 12917 -676
56502 236297 258475 -9470 12896 -663
56507 236303 258478 -9470 12882 -658
56514 236316 258480 -9455 12882 -656
56518 236331 258474 -9448 12885 -646
56523 236331 258469 -9459 12896 -643
56525 236343 258470 -9463 12927 -658
56531 236364 258485 -9455 12930 -666
56540 236382 258498 -9444 12917 -670
56545 236394 258473 -9443 12919 -679
56551 236403 258480 -9447 12912 -682
56562 236427 258491 -9450 12915 -680
56575 236381 258459 -9447 12911 -676
56573 236236 258337 -9446 12910 -670
56567 236095 258248 -9443 12912 -672
56555 235999 258201 -9442 12893 -687
56544 235975 258198 -9470 12947 -733
56532 235978 258231 -9439 12902 -726
56519 236000 258255 -9439 12877 -733
56510 236010 258257 -9477 12900 -721
56495 236009 258254 -9520 12939 -690
56481 236004 258251 -9511 12935 -681
56459 235995 258234 -9466 12892 -687
56449 236009 258239 -9435 12863 -689
56444 236030 258254 -9413 12876 -686
56436 236005 258239 -9393 12997 -735
56421 235979 258207 -9397 13003 -741
56407 235957 258187 -9412 12983 -728
56390 235944 258185 -9430 12949 -713
56378 235948 258189 -9438 12897 -716
56366 235945 258186 -9446 12873 -728
56352 235954 258188 -9465 12897 -720
56342 235960 258188 -9479 12917 -709
56330 235967 258182 -9474 12928 -720
56317 235973 258182 -9469 12940 -736
56304 235984 258179 -9457 12957 -747
56298 235994 258185 -9430 12954 -744
56291 236002 258187 -9437 12919 -716
56283 236017 258191 -9462 12900 -700
56280 236038 258199 -9464 12903 -692
56273 236046 258182 -9456 12899 -687
56270 236053 258182 -9458 12883 -686
56266 236069 258185 -9478 12874 -673
56262 236077 258193 -9484 12875 -674
56262 236095 258191 -9478 12867 -677
56261 236097 258188 -9483 12865 -677
56258 236109 258186 -9478 12875 -687
56252 236109 258182 -9456 12894 -689
56250 236135 258192 -9440 12895 -685
56252 236140 258195 -9446 12885 -680
56246 236159 258191 -9461 12890 -686
56241 236168 258174 -9475 12888 -689
56242 236177 258163 -9482 12891 -686
56245 236194 258168 -9484 12879 -693
56247 236138 258128 -9490 12859 -706
56246 235993 258024 -9491 12897 -727
56226 235851 257923 -9488 12880 -704
56200 235757 257898 -9487 12872 -687
56165 235716 257901 -9461 12867 -693
56128 235702 257905 -9450 12884 -701
56091 235704 257912 -9470 12926 -665
56058 235716 257922 -9497 12942 -639
56025 235720 257924 -9491 12908 -640
55992 235725 257935 -9444 12876 -645
55958 235711 257920 -9401 12959 -678
55934 235738 257933 -9402 12966 -692
55908 235750 257953 -9411 12944 -698
55885 235732 257922 -9434 12915 -701
55858 235708 257886 -9449 12904 -709
55829 235686 257872 -9467 12913 -708
55799 235668 257865 -9478 12901 -705
55769 235655 257851 -9485 12884 -721
55742 235659 257867 -9501 12894 -720
55714 235677 257884 -9514 12935 -719
55688 235677 257877 -9507 12958 -738
55664 235683 257879 -9494 12934 -730
55637 235677 257873 -9492 12889 -709
55613 235689 257869 -9489 12858 -693
55588 235701 257873 -9487 12866 -693
55574 235706 257877 -9497 12890 -700
55556 235724 257887 -9506 12899 -698
55547 235742 257897 -9504 12889 -698
55531 235764 257904 -9503 12870 -696
55515 235756 257892 -9515 12865 -687
55502 235775 257884 -9501 12878 -689
55494 235782 257885 -9482 12878 -687
55489 235799 257899 -9493 12864 -672
55482 235818 257907 -9498 12875 -670
55477 235831 257912 -9490 12913 -673
55473 235844 257918 -9467 12923 -675
55465 235854 257908 -9450 12903 -678
55462 235872 257927 -9454 12881 -670
55462 235907 257936 -9461 12874 -669
55456 235916 257933 -9465 12902 -677
55450 235921 257909 -9460 12947 -689
55454 235960 257948 -9465 12943 -691
55456 235939 257924 -9487 12889 -668
55449 235806 257831 -9512 12841 -644
55426 235637 257713 -9541 12833 -620
55381 235520 257654 -9527 12860 -621
55329 235457 257648 -9486 12851 -650
55268 235428 257645 -9471 12837 -657
55211 235417 257661 -9494 12877 -636
55162 235424 257676 -9531 12928 -609
55107 235424 257669 -9524 12956 -625
55060 235422 257681 -9489 12932 -657
55019 235412 257678 -9455 12889 -648
54978 235432 257696 -9436 12883 -641
54937 235425 257670 -9437 12898 -651
54900 235391 257629 -9444 12917 -662
54861 235318 257558 -9442 12940 -677
54815 235258 257489 -9438 12940 -678
54774 235218 257461 -9452 12920 -665
54738 235200 257447 -9472 12895 -670
54706 235201 257464 -9475 12941 -695
54679 235220 257477 -9471 12946 -682
54657 235259 257521 -9457 12931 -677
54637 235281 257542 -9439 12925 -677
54621 235306 257566 -9429 12907 -671
54608 235336 257601 -9429 12895 -650
54591 235362 257612 -9433 12901 -638
54580 235388 257625 -9444 12894 -644
54567 235412 257646 -9453 12881 -646
54560 235435 257648 -9453 12897 -660
54554 235464 257663 -9446 12919 -696
54542 235467 257666 -9463 12925 -688
54533 235482 257662 -9486 12914 -664
54530 235493 257663 -9475 12902 -667
54534 235535 257701 -9460 12898 -669
54536 235553 257713 -9458 12916 -664
54538 235575 257727 -9447 12938 -667
54539 235595 257724 -9444 12930 -661
54537 235576 257692 -9458 12902 -653
54543 235607 257698 -9449 12880 -666
54548 235625 257700 -9469 12889 -683
54550 235619 257648 -9490 12898 -678
54566 235672 257703 -9476 12904 -657
54582 235717 257755 -9470 12902 -637
54598 235646 257705 -9465 12887 -619
54588 235469 257583 -9467 12891 -610
54553 235320 257488 -9458 12902 -605
54505 235202 257444 -9421 12897 -621
54449 235137 257408 -9385 12898 -649
54395 235118 257391 -9405 12921 -648
54346 235080 257344 -9441 13009 -609
54300 235064 257324 -9404 12969 -618
54265 235050 257294 -9373 12928 -622
54232 235012 257236 -9367 12910 -621
54227 235048 257275 -9355 12936 -630
54248 235211 257495 -9346 12979 -638
54279 235399 257755 -9356 13000 -642
54295 235521 257918 -9358 12990 -641
54270 235429 257778 -9359 12983 -662
54215 235251 257543 -9376 13005 -709
54173 235140 257410 -9379 12977 -699
54143 235094 257356 -9376 12984 -655
54113 235070 257348 -9363 13017 -620
54098 235098 257382 -9344 13024 -627
54084 235133 257424 -9346 13004 -648
54078 235167 257459 -9348 12996 -663
54076 235207 257497 -9328 13010 -685
54068 235211 257483 -9331 13028 -704
54066 235220 257474 -9360 13078 -740
54068 235236 257473 -9346 13081 -747
54065 235220 257433 -9335 13083 -737
54073 235226 257432 -9356 13088 -733
54085 235256 257447 -9367 13070 -724
54099 235276 257458 -9358 13041 -702
54106 235280 257438 -9354 13007 -668
54115 235278 257420 -9346 12983 -649
54125 235288 257429 -9349 12973 -648
54141 235322 257448 -9367 12996 -647
54161 235350 257471 -9380 13011 -641
54181 235374 257470 -9393 12968 -628
54204 235412 257513 -9410 12917 -604
54224 235438 257525 -9422 12890 -571
54240 235457 257519 -9438 12872 -537
54265 235503 257551 -9443 12850 -517
54298 235529 257592 -9452 12837 -503
54325 235443 257553 -9468 12831 -488
54331 235282 257468 -9451 12829 -481
54314 235152 257385 -9445 12838 -476
54285 235079 257381 -9485 12893 -489
54255 235064 257398 -9525 12934 -464
54224 235050 257399 -9513 12905 -424
54199 235054 257398 -9461 12860 -426
54176 235050 257387 -9413 12822 -433
54164 235048 257363 -9397 12817 -431
54148 235005 257295 -9379 12861 -445
54137 234968 257233 -9346 12915 -485
54136 234996 257236 -9343 12952 -513
54140 235007 257240 -9354 12992 -528
54139 234944 257153 -9321 13036 -581
54127 234836 257020 -9285 12994 -632
54122 234788 256947 -9300 13017 -628
54126 234783 256950 -9343 13049 -598
54126 234760 256911 -9359 13041 -577
54132 234739 256879 -9336 12995 -567
54140 234749 256874 -9303 12963 -579
54149 234770 256878 -9283 12992 -585
54158 234782 256859 -9261 13019 -587
54162 234759 256818 -9282 13080 -675
54168 234771 256813 -9301 13092 -694
54188 234813 256842 -9344 13063 -695
54198 234806 256820 -9369 13009 -700
54214 234802 256767 -9374 12954 -716
54232 234813 256755 -9382 12945 -716
54249 234825 256737 -9377 12957 -710
54268 234836 256729 -9366 12939 -714
54285 234826 256700 -9370 12931 -715
54305 234840 256688 -9395 12935 -731
54321 234835 256660 -9409 12944 -759
54343 234837 256645 -9416 12928 -757
54363 234828 256601 -9450 12878 -730
54383 234827 256591 -9487 12848 -700
54408 234855 256591 -9518 12833 -680
54426 234862 256557 -9533 12817 -679
54448 234889 256568 -9542 12792 -699
54476 234903 256567 -9554 12775 -715
54509 234857 256548 -9548 12772 -717
54540 234738 256488 -9559 12769 -734
54559 234605 256436 -9603 12773 -752
54559 234495 256399 -9645 12806 -740
54558 234470 256425 -9646 12870 -750
54552 234484 256478 -9630 12892 -801
54550 234510 256508 -9612 12852 -851
54548 234548 256539 -9633 12799 -866
54551 234573 256547 -9696 12764 -847
54559 234623 256591 -9748 12757 -844
54563 234631 256585 -9777 12761 -867
54574 234670 256614 -9786 12760 -886
54590 234719 256662 -9786 12814 -953
54601 234706 256626 -9811 12807 -968
54611 234676 256591 -9847 12817 -981
54621 234649 256557 -9898 12822 -958
54632 234624 256558 -9921 12786 -922
54649 234659 256595 -9919 12722 -898
54665 234685 256617 -9902 12677 -906
54677 234700 256635 -9885 12663 -941
54691 234721 256645 -9902 12655 -969
54701 234748 256658 -9904 12674 -1005
54711 234763 256665 -9929 12665 -989
54724 234789 256670 -9953 12641 -961
54747 234832 256710 -9958 12619 -964
54766 234858 256722 -9938 12619 -979
54785 234896 256748 -9927 12638 -985
54807 234931 256768 -9921 12670 -991
54826 234955 256788 -9895 12706 -1002
54846 234979 256779 -9885 12719 -993
54863 234990 256786 -9848 12711 -1015
54883 235016 256810 -9852 12696 -993
54905 235050 256826 -9881 12680 -951
54920 235061 256798 -9877 12664 -944
54950 235128 256871 -9839 12645 -977
54982 235190 256921 -9855 12650 -990
55014 235175 256923 -9938 12670 -975
55038 235064 256861 -10002 12685 -958
55058 234944 256815 -9994 12687 -968
55077 234894 256825 -9945 12664 -1011
55093 234884 256874 -9895 12633 -1031
55098 234894 256910 -9891 12622 -1028
55105 234917 256937 -9913 12626 -1038
55109 234953 256955 -9922 12630 -1055
55116 234981 256972 -9955 12644 -1057
55119 234993 256976 -9974 12649 -1063
55123 235005 256967 -9980 12649 -1058
55140 235058 257014 -9986 12642 -1053
55260 235160 257062 -9891 12674 -989
55269 235160 257036 -9883 12685 -978
55276 235166 257030 -9836 12669 -996
55286 235186 257029 -9832 12678 -982
55298 235198 257014 -9825 12689 -968
55314 235209 257027 -9812 12687 -962
55330 235237 257030 -9805 12683 -960
55344 235269 257062 -9807 12688 -961
55362 235291 257044 -9821 12705 -950
55372 235274 256999 -9830 12710 -951
55393 235315 257032 -9808 12685 -966
55418 235371 257083 -9888 12723 -954
55441 235304 257028 -9917 12718 -922
55461 235177 256962 -9896 12686 -916
55477 235069 256920 -9862 12672 -916
55480 235007 256926 -9840 12678 -911
55486 234989 256954 -9816 12684 -918
55485 234991 256972 -9793 12692 -929
55488 235029 257011 -9800 12704 -930
55489 235043 257026 -9815 12714 -944
55486 235063 257033 -9815 12724 -960
55491 235092 257052 -9810 12734 -972
55490 235089 257028 -9814 12724 -983
55495 235118 257040 -9834 12701 -987
55506 235142 257064 -9878 12692 -970
55508 235119 257021 -9902 12698 -970
55513 235101 257000 -9898 12705 -998
55522 235083 256992 -9905 12698 -1010
55520 235056 256954 -9897 12679 -1008
55522 235043 256946 -9892 12658 -1000
55528 235053 256947 -9908 12641 -1002
55538 235066 256942 -9913 12641 -1010
55551 235077 256941 -9934 12652 -991
55560 235079 256905 -9944 12655 -965
55563 235063 256859 -9919 12647 -955
55565 235047 256811 -9915 12651 -932
55564 235012 256752 -9917 12662 -921
55565 234989 256698 -9909 12667 -934
55568 234973 256665 -9895 12667 -939
55574 234969 256643 -9874 12671 -937
55580 234964 256612 -9873 12679 -938
55582 234954 256581 -9894 12674 -991
55594 234980 256600 -9943 12692 -971
55593 234959 256544 -9938 12680 -981
55586 234912 256450 -9916 12666 -1007
55591 234909 256452 -9942 12690 -979
55597 234868 256394 -9964 12700 -937
55597 234696 256241 -9917 12675 -949
55596 234517 256122 -9863 12658 -964
55593 234409 256082 -9829 12656 21813
55595 234363 256087 -9797 12661 -993
55586 234364 256125 -9793 12668 -1000
55583 234391 256160 -9823 12682 -990
55579 234439 256223 -9845 12698 -1008
55574 234459 256247 -9857 12703 -1025
55565 234473 256266 -9866 12702 -1010
55554 234464 256240 -9866 12692 -1001
55545 234456 256216 -9868 12688 -1009
55541 234478 256229 -9883 12695 -997
55536 234479 256227 -9888 12684 -983
55527 234451 256194 -9844 12675 -1008
55528 234448 256193 -9821 12691 -1016
55527 234456 256213 -9849 12696 -995
55517 234452 256228 -9880 12693 -976
55513 234449 256222 -9908 12687 -957
55502 234438 256201 -9924 12675 -947
55496 234448 256205 -9933 12674 -937
55492 234467 256220 -9930 12673 -932
55487 234479 256230 -9916 12663 -938
55478 234472 256206 -9908 12660 -936
55474 234485 256205 -9844 12675 -1008
55472 234492 256197 -9821 12691 -1016
55471 234506 256199 -9849 12696 -995
55472 234541 256212 -9880 12693 -976
55469 234555 256214 -9908 12687 -957
55470 234563 256223 -9924 12675 -947
55473 234587 256242 -9933 12674 -937
55470 234597 256236 -9930 12673 -932
55475 234625 256250 -9916 12663 -938
55477 234639 256255 -9908 12660 -936
55470 234624 256210 -9896 12670 -964
55478 234678 256255 -9899 12671 -959
55495 234705 256299 -9901 12673 -962
55503 234616 256235 -9905 12677 -959
55497 234450 256121 -9905 12679 -961
55483 234328 256065 -9888 12693 -951
55458 234261 256062 -9875 12691 -936
55431 234233 256062 -9886 12674 -927
55398 234212 256049 -9888 12677 -921
55369 234224 256051 -9855 12666 -947
55345 234232 256059 -9831 12659 -967
55321 234240 256056 -9880 12689 -925
55293 234220 256019 -9940 12720 -874
55270 234197 255981 -9927 12713 -876
55252 234215 256001 -9870 12688 -900
55233 234200 255978 -9829 12673 -905
55213 234153 255912 -9802 12667 -898
55194 234121 255879 -9783 12672 -895
55171 234096 255852 -9786 12689 -900
55146 234070 255812 -9794 12717 -916
55128 234075 255833 -9793 12751 -951
55111 234074 255825 -9796 12749 -945
55095 234078 255818 -9796 12715 -923
55078 234076 255800 -9802 12688 -928
55064 234091 255795 -9832 12694 -899
55047 234080 255766 -9843 12713 -892
55030 234063 255729 -9810 12722 -924
55019 234065 255717 -9789 12725 -932
55014 234071 255712 -9792 12722 -938
55003 234078 255703 -9792 12705 -949
54994 234079 255683 -9785 12709 -963
54989 234091 255682 -9798 12721 -963
54986 234100 255674 -9825 12707 -946
54978 234103 255660 -9822 12707 -948
54975 234115 255650 -9808 12721 -952
54975 234122 255641 -9804 12718 -944
54973 234121 255620 -9794 12708 -938
54973 234146 255640 -9786 12705 -942
54973 234154 255629 -9797 12707 -939
54964 234142 255570 -9811 12715 -929
54972 234179 255599 -9784 12720 -970
54989 234195 255622 -9794 12727 -954
54986 234069 255508 -9806 12736 -947
54974 233897 255397 -9809 12733 -948
54947 233782 255361 -9797 12730 -944
54911 233720 255362 -9790 12716 -939
54874 233705 255368 -9789 12708 -925
54840 233721 255395 -9785 12704 -915
54811 233742 255420 -9759 12689 -934
54782 233757 255425 -9812 12761 -970
54759 233785 255468 -9860 12766 -926
54739 233793 255474 -9851 12734 -925
54714 233796 255471 -9823 12710 -928
54697 233847 255523 -9803 12699 -920
54686 233858 255537 -9793 12690 -915
54669 233836 255507 -9780 12677 -916
54653 233822 255505 -9787 12682 -912
54630 233805 255484 -9816 12709 -916
54611 233799 255492 -9825 12734 -947
54591 233806 255500 -9810 12726 -941
54574 233823 255509 -9814 12695 -937
54554 233821 255504 -9845 12678 -947
54536 233834 255497 -9875 12685 -929
54522 233823 255459 -9877 12705 -933
54503 233771 255380 -9845 12711 -948
54486 233707 255263 -9822 12710 -955
54471 233635 255151 -9827 12705 -966
54461 233595 255080 -9847 12680 -960
54456 233532 254983 -9870 12670 -950
54442 233476 254903 -9864 12679 -953
54443 233495 254928 -9866 12685 -935
54471 233665 255180 -9886 12692 -890
54505 233879 255464 -9878 12696 -860
54531 234033 255665 -9865 12700 -853
54561 234150 255791 -9865 12713 -843
54566 234156 255762 -9861 12733 -845
54538 234017 255545 -9864 12737 -828
54525 233906 255380 -9845 12715 -788
54530 233879 255324 -9767 12691 -800
54550 233893 255307 -9744 12695 -863
54586 233989 255411 -9793 12711 -860
54626 234047 255477 -9808 12745 -879
54615 233861 255316 -9825 12747 -892
54562 233611 255097 -9826 12723 -885
54492 233448 255008 -9875 12677 -866
54394 233268 254873 -9952 12608 -892
54302 233134 254752 -9964 12553 -959
54202 232973 254579 -9932 12538 -984
54117 232828 254412 -9917 12576 -993
54043 232677 254218 -9989 12629 -987
53971 232511 254009 -10073 12662 -969
53906 232353 253815 -10102 12658 -971
53849 232230 253673 -10106 12635 -971
53834 232241 253710 -10099 12642 -957
53827 232243 253717 -10064 12643 -929
53819 232220 253697 -9994 12634 -915
53783 232083 253530 -9911 12655 -925
53741 231917 253350 -9864 12691 -929
53701 231789 253193 -9737 12728 -933
53647 231630 253005 -9717 12739 -952
53614 231524 252878 -9764 12755 -937
53593 231454 252777 -9842 12747 -906
53560 231345 252627 -9879 12718 -905
53529 231210 252437 -9885 12712 -890
53495 231077 252269 -9882 12698 -878
53465 230996 252166 -9886 12683 -873
53460 230999 252157 -9890 12681 -858
53444 230929 252038 -9866 12693 -863
53432 230849 251926 -9851 12714 -869
53431 230805 251857 -9865 12699 -850
53449 230854 251908 -9856 12669 -822
53486 230969 252048 -9821 12669 -805
53523 231097 252183 -9821 12676 -792
53551 231176 252274 -9881 12658 -791
53564 231183 252263 -9877 12652 -774
53570 231177 252232 -9828 12654 -782
53588 231229 252295 -9823 12656 -797
53609 231287 252358 -9836 12679 -796
53617 231288 252331 -9841 12708 -809
53630 231313 252338 -9807 12727 -796
53665 231388 252435 -9767 12732 -768
53699 231392 252456 -9731 12737 -749
53718 231263 252383 -9697 12759 -736
53720 231146 252333 -9661 12769 -731
53716 231073 252353 -9648 12776 -730
53707 231113 252469 -9660 12790 -725
53688 231166 252532 -9631 12776 -734
53673 231205 252590 -9608 12778 -753
53665 231272 252668 -9645 12832 -745
53662 231340 252744 -9667 12875 -706
53670 231431 252844 -9634 12848 -691
53667 231490 252912 -9584 12811 -695
53667 231534 252947 -9527 12783 -703
53665 231576 253002 -9495 12778 -705
53658 231571 252995 -9493 12790 -691
53654 231566 253000 -9484 12795 -706
53653 231572 253014 -9473 12818 -738
53648 231577 253046 -9468 12857 -750
53647 231613 253082 -9466 12967 -821
53649 231665 253134 -9466 12971 -827
53649 231695 253176 -9472 12973 -804
53658 231745 253210 -9485 12969 -769
53662 231785 253248 -9476 12953 -755
53669 231832 253287 -9446 12934 -745
53678 231872 253337 -9409 12918 -738
53688 231913 253364 -9380 12918 -745
53705 231956 253397 -9383 12948 -749
53725 232014 253444 -9394 12985 -757
53744 232085 253497 -9396 13009 -769
53768 232150 253549 -9385 12995 -758
53792 232209 253615 -9368 12963 -736
53814 232260 253654 -9364 12953 -726
53836 232304 253681 -9366 12962 -709
53862 232357 253732 -9357 12964 -699
53885 232403 253765 -9347 12965 -698
53909 232439 253786 -9341 12973 -709
53933 232491 253834 -9326 12991 -735
53958 232543 253874 -9333 13025 -756
53976 232564 253856 -9346 13057 -778
53984 232545 253807 -9341 13058 -789
54014 232584 253828 -9339 13032 -787
54044 232547 253810 -9337 13034 -783
54063 232386 253687 -9330 13045 -783
54062 232224 253593 -9326 13019 -787
54060 232146 253594 -9328 13004 -793
54051 232140 253636 -9330 13002 -783
54034 232154 253668 -9313 12982 -764
54023 232179 253711 -9292 12979 -777
54012 232200 253738 -9321 13024 -791
54002 232231 253766 -9377 13052 -766
