Time(s)	IR_denoised_wiener
0.000000	2425.292074
0.010000	3416.417934
0.020000	2795.703561
0.030000	1794.454979
0.040000	266.986828
0.050000	-1597.815085
0.060000	-3613.641238
0.070000	-5636.116139
0.080000	-7649.215861
0.090000	-9516.692544
0.100000	-10947.315190
0.110000	-11752.846985
0.120000	-12189.608737
0.130000	-12519.668404
0.140000	-12725.463365
0.150000	-12822.587839
0.160000	-12744.443622
0.170000	-12751.434469
0.180000	-12779.238661
0.190000	-12691.801602
0.200000	-12467.075127
0.210000	-12157.111256
0.220000	-11934.325133
0.230000	-11726.843449
0.240000	-11659.887102
0.250000	-11497.030041
0.260000	-11297.051217
0.270000	-11046.486467
0.280000	-10900.155966
0.290000	-10831.934447
0.300000	-10583.454749
0.310000	-10165.630565
0.320000	-9630.050353
0.330000	-9215.368747
0.340000	-8870.722153
0.350000	-8511.562169
0.360000	-8012.171624
0.370000	-7457.568066
0.380000	-6894.425673
0.390000	-6492.832316
0.400000	-6279.213980
0.410000	-6305.772271
0.420000	-6435.430028
0.430000	-6568.104100
0.440000	-6908.783533
0.450000	-7259.638354
0.460000	-7535.765199
0.470000	-7669.881499
0.480000	-7818.029855
0.490000	-7804.893218
0.500000	-7578.654745
0.510000	-7164.145461
0.520000	-6865.753056
0.530000	-6652.524475
0.540000	-6517.306712
0.550000	-6415.532828
0.560000	-6201.991456
0.570000	-5893.067909
0.580000	-5577.967764
0.590000	-5337.346361
0.600000	-5185.871615
0.610000	-5075.235852
0.620000	-4978.627036
0.630000	-4935.775798
0.640000	-4943.741408
0.650000	-4999.800921
0.660000	-5118.061650
0.670000	-5466.082189
0.680000	-5776.029068
0.690000	-6135.524391
0.700000	-6351.752494
0.710000	-6721.512508
0.720000	-7110.501211
0.730000	-7533.460824
0.740000	-8029.542581
0.750000	-8501.936058
0.760000	-9039.669407
0.770000	-9451.892257
0.780000	-9926.427210
0.790000	-10338.923167
0.800000	-10713.532811
0.810000	-11030.781913
0.820000	-11334.099854
0.830000	-11679.638552
0.840000	-12087.872730
0.850000	-12507.609646
0.860000	-12938.437104
0.870000	-13319.741405
0.880000	-13660.860196
0.890000	-14012.660984
0.900000	-14307.304754
0.910000	-14560.497857
0.920000	-14820.199302
0.930000	-15120.665321
0.940000	-15492.124409
0.950000	-15915.412047
0.960000	-16232.055026
0.970000	-16564.992937
0.980000	-16876.946512
0.990000	-17155.048043
1.000000	-17556.384767
1.010000	-17836.419402
1.020000	-18096.197466
1.030000	-18284.804485
1.040000	-18439.021162
1.050000	-18773.453712
1.060000	-18978.185432
1.070000	-19244.599712
1.080000	-19443.928881
1.090000	-19715.612662
1.100000	-20024.327640
1.110000	-20284.962399
1.120000	-20404.182113
1.130000	-20350.966230
1.140000	-20422.759536
1.150000	-20569.507480
1.160000	-20836.428079
1.170000	-20949.004136
1.180000	-21095.204465
1.190000	-21334.322175
1.200000	-21597.808271
1.210000	-21717.214663
1.220000	-21650.946133
1.230000	-21551.830140
1.240000	-21548.208949
1.250000	-21647.976748
1.260000	-21748.366052
1.270000	-21732.619300
1.280000	-21551.913452
1.290000	-21410.830764
1.300000	-21230.223553
1.310000	-21104.730467
1.320000	-20998.053751
1.330000	-20786.605484
1.340000	-20520.243934
1.350000	-20124.357309
1.360000	-19847.876371
1.370000	-19604.409920
1.380000	-19379.262190
1.390000	-19248.268882
1.400000	-19209.660338
1.410000	-19078.183697
1.420000	-18878.529119
1.430000	-18735.601853
1.440000	-18656.636768
1.450000	-18568.695715
1.460000	-18380.256347
1.470000	-18214.609499
1.480000	-18023.635220
1.490000	-17848.331523
1.500000	-17708.185087
1.510000	-17599.887509
1.520000	-17455.119347
1.530000	-17213.026553
1.540000	-16895.175362
1.550000	-16545.455010
1.560000	-16259.935409
1.570000	-16001.744888
1.580000	-15565.792387
1.590000	-14814.110384
1.600000	-13924.740771
1.610000	-12996.146215
1.620000	-12014.267693
1.630000	-10913.259326
1.640000	-9639.713476
1.650000	-8487.877101
1.660000	-7547.479046
1.670000	-6819.798435
1.680000	-6130.640750
1.690000	-5351.722161
1.700000	-4703.969383
1.710000	-4197.272187
1.720000	-3915.371546
1.730000	-3688.327549
1.740000	-3462.961198
1.750000	-3228.029571
1.760000	-2886.845642
1.770000	-2636.398971
1.780000	-2370.088308
1.790000	-2241.004959
1.800000	-2054.898212
1.810000	-1773.892917
1.820000	-1510.638569
1.830000	-1292.060326
1.840000	-1186.672583
1.850000	-1050.153782
1.860000	-924.393168
1.870000	-785.573068
1.880000	-708.221330
1.890000	-620.091182
1.900000	-556.845649
1.910000	-399.682638
1.920000	-267.618559
1.930000	-124.674933
1.940000	3.949486
1.950000	-58.238260
1.960000	-32.385121
1.970000	-28.019401
1.980000	119.551207
1.990000	158.575630
2.000000	102.070235
2.010000	39.571855
2.020000	-130.074599
2.030000	-279.274892
2.040000	-437.118832
2.050000	-518.274228
2.060000	-581.690671
2.070000	-737.543384
2.080000	-815.619325
2.090000	-987.877054
2.100000	-1105.790244
2.110000	-1360.597532
2.120000	-1615.511609
2.130000	-1790.589967
2.140000	-1904.617726
2.150000	-2018.810282
2.160000	-2221.574274
2.170000	-2364.821186
2.180000	-2398.571476
2.190000	-2384.240270
2.200000	-2489.961702
2.210000	-2711.617166
2.220000	-2931.468438
2.230000	-3097.935320
2.240000	-3151.376876
2.250000	-3179.746968
2.260000	-3255.996474
2.270000	-3283.175238
2.280000	-3541.064943
2.290000	-3706.358757
2.300000	-3841.602368
2.310000	-3858.200489
2.320000	-3918.232420
2.330000	-4157.705514
2.340000	-4270.045869
2.350000	-4491.430949
2.360000	-4704.949934
2.370000	-5048.580858
2.380000	-5277.190131
2.390000	-5470.341561
2.400000	-5707.479570
2.410000	-5861.247721
2.420000	-6068.538753
2.430000	-6123.921437
2.440000	-6201.010565
2.450000	-6112.973781
2.460000	-5971.668406
2.470000	-5798.139351
2.480000	-5587.949198
2.490000	-5345.351986
2.500000	-5059.542039
2.510000	-4882.361606
2.520000	-4775.960952
2.530000	-4806.667885
2.540000	-4723.181421
2.550000	-4564.107754
2.560000	-4240.051020
2.570000	-3916.578593
2.580000	-3608.500552
2.590000	-3017.179133
2.600000	-2417.846790
2.610000	-1724.103516
2.620000	-1476.562138
2.630000	-1211.579804
2.640000	-935.876061
2.650000	-558.758407
2.660000	-232.824565
2.670000	-37.365197
2.680000	180.237864
2.690000	362.495090
2.700000	600.756755
2.710000	811.593169
2.720000	1057.731755
2.730000	1276.070495
2.740000	1480.312717
2.750000	1644.169814
2.760000	1798.786742
2.770000	1925.203640
2.780000	2047.454440
2.790000	2221.069680
2.800000	2531.286209
2.810000	2754.172474
2.820000	3023.857406
2.830000	3176.549726
2.840000	3432.579720
2.850000	3829.858744
2.860000	4296.102174
2.870000	4833.144123
2.880000	5252.879028
2.890000	5753.937721
2.900000	6294.110319
2.910000	6769.013016
2.920000	7116.580139
2.930000	7355.101109
2.940000	7647.575935
2.950000	7937.384228
2.960000	8258.287869
2.970000	8503.084358
2.980000	8638.677089
2.990000	8709.808210
3.000000	8809.344551
3.010000	9280.702357
3.020000	10106.840153
3.030000	11074.545169
3.040000	11869.213984
3.050000	12438.935368
3.060000	12912.245084
3.070000	13310.528631
3.080000	13487.649056
3.090000	13476.114420
3.100000	13386.103685
3.110000	13381.353349
3.120000	13401.784926
3.130000	13419.858196
3.140000	13382.908839
3.150000	13197.430926
3.160000	13005.862477
3.170000	12620.279523
3.180000	12220.677995
3.190000	11790.440853
3.200000	11394.905993
3.210000	11020.574263
3.220000	10477.171566
3.230000	9986.029030
3.240000	9521.283401
3.250000	9136.561607
3.260000	8755.899679
3.270000	8341.059001
3.280000	7979.723785
3.290000	7580.259907
3.300000	7322.155906
3.310000	7087.173721
3.320000	6912.546243
3.330000	6671.836395
3.340000	6345.763094
3.350000	6107.226212
3.360000	5994.810736
3.370000	6045.812539
3.380000	6050.379933
3.390000	5964.388020
3.400000	5875.512008
3.410000	5837.738720
3.420000	5808.914604
3.430000	5729.576585
3.440000	5510.771000
3.450000	5274.194537
3.460000	4979.717801
3.470000	4801.937106
3.480000	4677.211743
3.490000	4564.944366
3.500000	4468.694925
3.510000	4267.811621
3.520000	4054.630747
3.530000	3934.582299
3.540000	3910.151062
3.550000	3827.791421
3.560000	3597.044706
3.570000	3240.510828
3.580000	2949.935698
3.590000	2678.774854
3.600000	2433.504389
3.610000	2186.811104
3.620000	2061.015360
3.630000	1985.180782
3.640000	2046.825335
3.650000	2041.612218
3.660000	2096.407892
3.670000	2086.214331
3.680000	2054.648863
3.690000	2033.311583
3.700000	1981.218117
3.710000	1919.439734
3.720000	1852.936384
3.730000	1849.265872
3.740000	1903.313891
3.750000	1939.757451
3.760000	1946.389114
3.770000	1987.315746
3.780000	2122.308943
3.790000	2590.221800
3.800000	3029.100552
3.810000	3341.375308
3.820000	3284.681787
3.830000	3303.267956
3.840000	3369.486206
3.850000	3419.245743
3.860000	3420.563309
3.870000	3414.273941
3.880000	3458.871882
3.890000	3405.247443
3.900000	3369.089094
3.910000	3346.071828
3.920000	3375.606076
3.930000	3370.393630
3.940000	3381.681444
3.950000	3467.912132
3.960000	3630.776931
3.970000	3719.186033
3.980000	3726.443039
3.990000	3688.416531
4.000000	3660.000056
4.010000	3611.585870
4.020000	3579.574887
4.030000	3508.672106
4.040000	3519.132836
4.050000	3565.803843
4.060000	3641.627386
4.070000	3852.409679
4.080000	4051.925943
4.090000	4278.350306
4.100000	4299.642734
4.110000	4287.893350
4.120000	4304.881009
4.130000	4309.978250
4.140000	4255.922818
4.150000	4181.787305
4.160000	4226.056614
4.170000	4284.413650
4.180000	4326.208767
4.190000	4330.547981
4.200000	4257.454840
4.210000	4181.474969
4.220000	4037.126183
4.230000	3972.797630
4.240000	3980.173754
4.250000	3942.293526
4.260000	3913.160848
4.270000	3906.146068
4.280000	4122.797972
4.290000	4529.149843
4.300000	4942.489535
4.310000	5262.507782
4.320000	5403.012541
4.330000	5496.925001
4.340000	5497.497643
4.350000	5560.351678
4.360000	5519.551235
4.370000	5474.958059
4.380000	5396.696129
4.390000	5211.891912
4.400000	5132.065596
4.410000	5006.271553
4.420000	4925.204572
4.430000	4672.578337
4.440000	4341.628399
4.450000	4093.838367
4.460000	3786.981567
4.470000	3484.424259
4.480000	3118.065827
4.490000	2819.983095
4.500000	2560.125545
4.510000	2274.868061
4.520000	2120.872884
4.530000	1883.814223
4.540000	1655.873086
4.550000	1313.576624
4.560000	1088.922348
4.570000	978.429174
4.580000	797.542019
4.590000	564.905062
4.600000	297.553325
4.610000	265.469225
4.620000	429.105500
4.630000	894.822626
4.640000	1421.756628
4.650000	2223.140004
4.660000	3087.956755
4.670000	4214.292695
4.680000	5289.797386
4.690000	6436.344554
4.700000	7230.176665
4.710000	8037.266761
4.720000	8424.392841
4.730000	8894.455988
4.740000	8913.454199
4.750000	8788.980343
4.760000	8170.060833
4.770000	7352.298379
4.780000	6075.823310
4.790000	2984.617548
4.800000	-300.562902
4.810000	-3601.686903
4.820000	-6477.222920
4.830000	-10271.898103
4.840000	-14632.556665
4.850000	-18186.983866
4.860000	-22218.861511
4.870000	-25766.916409
4.880000	-28430.388022
4.890000	-28236.215341
4.900000	-22954.337174
4.910000	-7203.272754
4.920000	-2640.388549
4.930000	-4154.660572
4.940000	-11169.398653
4.950000	-11483.540526
4.960000	-4579.646206
4.970000	34774.314093
4.980000	45422.702994
4.990000	50059.246113
5.000000	49903.032116
5.010000	49772.188287
5.020000	50035.762524
5.030000	47177.730560
5.040000	20315.734950
5.050000	-50963.441367
5.060000	-79712.229492
5.070000	-75729.247209
5.080000	-66868.052416
5.090000	-58837.361892
5.100000	-53587.269324
5.110000	-49337.750270
5.120000	-44075.324121
5.130000	-37633.956713
5.140000	-29646.906148
5.150000	-22117.752887
5.160000	-15529.057450
5.170000	-10694.873628
5.180000	-6669.122259
5.190000	-1606.606363
5.200000	2434.677452
5.210000	5233.624130
5.220000	5452.327665
5.230000	5408.145094
5.240000	5503.970454
5.250000	5380.155553
5.260000	5327.650417
5.270000	5046.793790
5.280000	4779.400502
5.290000	4403.348312
5.300000	4025.026995
5.310000	3650.876651
5.320000	3357.761441
5.330000	3274.127361
5.340000	3297.107412
5.350000	3432.255488
5.360000	3526.597038
5.370000	3712.412237
5.380000	3810.141382
5.390000	2045.766934
5.400000	118.802636
5.410000	-1894.093070
5.420000	-2496.728674
5.430000	-3296.235350
5.440000	-4386.529933
5.450000	-5126.452115
5.460000	-5876.844000
5.470000	-6538.500001
5.480000	-7222.497546
5.490000	-7759.874532
5.500000	-8151.714432
5.510000	-8678.780646
5.520000	-9415.461656
5.530000	-10222.865154
5.540000	-10941.249437
5.550000	-11451.492627
5.560000	-11897.190371
5.570000	-12329.297345
5.580000	-12732.046448
5.590000	-13016.666587
5.600000	-13227.366021
5.610000	-13421.837602
5.620000	-13621.350021
5.630000	-13974.455662
5.640000	-14343.979598
5.650000	-14584.480847
5.660000	-14852.868824
5.670000	-14777.148547
5.680000	-14795.076497
5.690000	-14547.721610
5.700000	-14553.787212
5.710000	-14709.342719
5.720000	-14840.061584
5.730000	-15159.451469
5.740000	-15335.926571
5.750000	-15524.984356
5.760000	-15521.886944
5.770000	-15554.455144
5.780000	-15643.025577
5.790000	-15609.794711
5.800000	-15640.573982
5.810000	-15809.570149
5.820000	-16094.263685
5.830000	-16218.720993
5.840000	-16069.134472
5.850000	-15878.892162
5.860000	-15675.504022
5.870000	-15515.538096
5.880000	-15324.906973
5.890000	-14893.533315
5.900000	-14292.802879
5.910000	-13671.792157
5.920000	-13265.983265
5.930000	-13013.611912
5.940000	-12742.567976
5.950000	-12439.571966
5.960000	-12294.411064
5.970000	-12202.420424
5.980000	-12053.599724
5.990000	-11793.778796
6.000000	-11480.113658
6.010000	-11302.183245
6.020000	-11251.762797
6.030000	-11341.653314
6.040000	-11488.484978
6.050000	-11545.281773
6.060000	-11569.764967
6.070000	-11571.101563
6.080000	-11519.591922
6.090000	-11333.093319
6.100000	-11073.125009
6.110000	-10783.677293
6.120000	-10508.292636
6.130000	-10284.542645
6.140000	-10005.690290
6.150000	-9696.056209
6.160000	-9282.771067
6.170000	-8922.478624
6.180000	-8667.171237
6.190000	-8421.431287
6.200000	-8090.169003
6.210000	-7708.332656
6.220000	-7387.296355
6.230000	-7180.990678
6.240000	-7084.838806
6.250000	-6970.546014
6.260000	-6870.387331
6.270000	-6745.465491
6.280000	-6691.192221
6.290000	-6702.323798
6.300000	-6693.988128
6.310000	-6711.410209
6.320000	-6613.804948
6.330000	-6454.890285
6.340000	-6295.160763
6.350000	-6191.207583
6.360000	-6200.026487
6.370000	-6205.886756
6.380000	-6265.195390
6.390000	-6321.413507
6.400000	-6314.172265
6.410000	-6177.403757
6.420000	-6008.738522
6.430000	-5858.731730
6.440000	-5646.070155
6.450000	-5447.615544
6.460000	-5222.527046
6.470000	-5082.360232
6.480000	-4932.854687
6.490000	-4771.787446
6.500000	-4662.452349
6.510000	-4562.675365
6.520000	-4474.582339
6.530000	-4411.331151
6.540000	-4390.455465
6.550000	-4407.651599
6.560000	-4437.990076
6.570000	-4419.582139
6.580000	-4390.838543
6.590000	-4296.620860
6.600000	-4168.951578
6.610000	-4134.939274
6.620000	-4059.355947
6.630000	-4035.223093
6.640000	-3923.788847
6.650000	-3745.268560
6.660000	-3658.921904
6.670000	-3655.830247
6.680000	-3879.444771
6.690000	-4102.672011
6.700000	-4458.581126
6.710000	-5008.266807
6.720000	-5770.545158
6.730000	-6437.902167
6.740000	-6952.123788
6.750000	-7309.944646
6.760000	-7089.468430
6.770000	-6178.747139
6.780000	-4590.724342
6.790000	-3292.397747
6.800000	-2593.061006
6.810000	-2316.260824
6.820000	-2051.962129
6.830000	-1625.636125
6.840000	-1162.544738
6.850000	-688.589303
6.860000	-256.711738
6.870000	135.439930
6.880000	521.378054
6.890000	945.343840
6.900000	1250.434601
6.910000	1397.430853
6.920000	1458.998987
6.930000	1579.589547
6.940000	1757.376778
6.950000	2046.791888
6.960000	2375.970781
6.970000	2791.891007
6.980000	3320.752018
6.990000	3847.854692
7.000000	4414.219741
7.010000	4939.417472
7.020000	5531.812524
7.030000	6174.917688
7.040000	6791.860269
7.050000	7472.838020
7.060000	8074.902628
7.070000	8718.791232
7.080000	9327.383841
7.090000	9965.122457
7.100000	10505.670465
7.110000	10998.606382
7.120000	11344.557596
7.130000	11574.464515
7.140000	11694.065077
7.150000	11781.885341
7.160000	11813.325225
7.170000	11828.192041
7.180000	11822.513759
7.190000	11616.069539
7.200000	11452.594442
7.210000	11261.818422
7.220000	11315.688235
7.230000	11293.685868
7.240000	11286.997840
7.250000	11276.340751
7.260000	11260.453541
7.270000	11272.191611
7.280000	11261.121697
7.290000	11257.711420
7.300000	11235.084569
7.310000	11249.249822
7.320000	11279.299118
7.330000	11307.932992
7.340000	11278.545751
7.350000	11277.487290
7.360000	11257.575830
7.370000	11303.893369
7.380000	11348.345277
7.390000	11399.006900
7.400000	11460.608544
7.410000	11501.862537
7.420000	11549.209353
7.430000	11564.724929
7.440000	11560.134542
7.450000	11533.408629
7.460000	11456.518410
7.470000	11426.971474
7.480000	11439.157597
7.490000	11476.714112
7.500000	11471.868956
7.510000	11473.661596
7.520000	11533.140418
7.530000	11595.543549
7.540000	11679.174740
7.550000	11706.728774
7.560000	11736.484273
7.570000	11731.558995
7.580000	11729.909189
7.590000	11730.863021
7.600000	11728.904023
7.610000	11734.129741
7.620000	11750.805828
7.630000	11774.298111
7.640000	11797.964577
7.650000	11810.719695
7.660000	11781.670562
7.670000	11698.463314
7.680000	11567.702473
7.690000	11467.680351
7.700000	11402.142082
7.710000	11358.133156
7.720000	11227.604590
7.730000	11126.487600
7.740000	11050.692888
7.750000	11052.955790
7.760000	11018.614592
7.770000	10928.314353
7.780000	10831.689749
7.790000	10711.455044
7.800000	10631.288437
7.810000	10541.921836
7.820000	10475.080988
7.830000	10385.149301
7.840000	10277.655407
7.850000	10202.474858
7.860000	10139.682567
7.870000	10132.954318
7.880000	10104.356304
7.890000	10061.651043
7.900000	9993.961984
7.910000	9919.411731
7.920000	9878.949123
7.930000	9829.595059
7.940000	9760.010644
7.950000	9660.772058
7.960000	9552.477237
7.970000	9493.041642
7.980000	9448.682813
7.990000	9440.787615
8.000000	9364.868157
8.010000	9311.395120
8.020000	9222.639702
8.030000	9177.705473
8.040000	9088.278848
8.050000	9022.105553
8.060000	8940.286465
8.070000	8867.341420
8.080000	8792.525662
8.090000	8356.949633
8.100000	7976.220682
8.110000	7616.986689
8.120000	7586.513132
8.130000	7552.261609
8.140000	7408.423296
8.150000	7292.867266
8.160000	7138.431545
8.170000	7056.624586
8.180000	6923.453570
8.190000	6645.793573
8.200000	6442.993627
8.210000	6283.265463
8.220000	6311.678268
8.230000	6349.506310
8.240000	6332.668822
8.250000	6365.199303
8.260000	6285.252195
8.270000	6314.935894
8.280000	6263.021937
8.290000	6273.915172
8.300000	6246.771441
8.310000	6215.918206
8.320000	6128.934278
8.330000	6077.634719
8.340000	6108.288366
8.350000	6186.444859
8.360000	6317.399225
8.370000	6430.359203
8.380000	6512.982673
8.390000	6231.033655
8.400000	5830.469335
8.410000	5533.284044
8.420000	5576.303866
8.430000	5835.515836
8.440000	6051.069756
8.450000	6249.503931
8.460000	6373.908065
8.470000	6433.640853
8.480000	6567.066002
8.490000	6710.854233
8.500000	6882.073589
8.510000	6976.027047
8.520000	6950.879363
8.530000	6916.908134
8.540000	6835.565102
8.550000	6805.452844
8.560000	6780.471823
8.570000	6819.903519
8.580000	6827.566153
8.590000	6814.594912
8.600000	6794.945512
8.610000	6778.216230
8.620000	6719.448154
8.630000	6615.891131
8.640000	6484.273097
8.650000	6372.250893
8.660000	6266.528274
8.670000	6227.073888
8.680000	6242.513830
8.690000	6263.382870
8.700000	6212.344351
8.710000	6199.793191
8.720000	6196.040004
8.730000	6286.767733
8.740000	6311.303786
8.750000	6370.369023
8.760000	6364.590816
8.770000	6459.935876
8.780000	6518.610931
8.790000	6648.408524
8.800000	6699.150969
8.810000	6698.929734
8.820000	6624.439209
8.830000	6535.231614
8.840000	6362.926182
8.850000	6228.935196
8.860000	5942.432929
8.870000	5850.991785
8.880000	5619.268442
8.890000	5578.747800
8.900000	5301.883938
8.910000	5320.333137
8.920000	5212.405845
8.930000	5417.137382
8.940000	5324.230526
8.950000	5547.819412
8.960000	5488.901274
8.970000	5900.054916
8.980000	6063.036731
8.990000	2205.035899
9.000000	-13801.097451
9.010000	-16040.709245
9.020000	-10112.320046
9.030000	-1103.075963
9.040000	1551.111796
9.050000	-4603.813766
9.060000	-32637.418433
9.070000	-69410.989515
9.080000	-63161.759252
9.090000	-40178.865319
9.100000	-24826.205109
9.110000	-15270.096672
9.120000	-8916.446140
9.130000	-5157.400286
9.140000	-2963.017967
9.150000	-1830.698175
9.160000	-1240.422946
9.170000	-1201.666411
9.180000	-1383.109687
9.190000	-1774.402364
9.200000	-2014.053181
9.210000	-2116.727671
9.220000	-1883.634959
9.230000	-1453.205411
9.240000	-885.228632
9.250000	-406.371024
9.260000	4.961724
9.270000	283.659085
9.280000	491.265515
9.290000	673.409418
9.300000	994.658289
9.310000	1320.097875
9.320000	1693.300325
9.330000	1867.078466
9.340000	2075.687083
9.350000	2098.563944
9.360000	2273.693669
9.370000	2284.335218
9.380000	2475.600433
9.390000	4477.048291
9.400000	6452.400252
9.410000	8146.180312
9.420000	7818.531816
9.430000	7604.361554
9.440000	6659.887214
9.450000	4112.867751
9.460000	114.788854
9.470000	-4280.749148
9.480000	-7623.489555
9.490000	-9592.739985
9.500000	-9109.625714
9.510000	-7340.506290
9.520000	-5074.670210
9.530000	-3907.766493
9.540000	-3319.517453
9.550000	-2950.417665
9.560000	-2561.647300
9.570000	-2174.402504
9.580000	-1920.368492
9.590000	-1729.121794
9.600000	-1709.874288
9.610000	-1802.335076
9.620000	-1932.303065
9.630000	-1863.399073
9.640000	-1687.932380
9.650000	-1509.125757
9.660000	-1280.785621
9.670000	-1138.988958
9.680000	-1016.718522
9.690000	-1142.302390
9.700000	-1279.348975
9.710000	-1326.294965
9.720000	-1279.893168
9.730000	-1095.819968
9.740000	-921.945348
9.750000	-643.939791
9.760000	-326.472316
9.770000	19.102149
9.780000	374.328370
9.790000	563.390870
9.800000	724.669493
9.810000	813.185282
9.820000	956.158029
9.830000	1127.230824
9.840000	1239.150726
9.850000	1337.979080
9.860000	1409.646626
9.870000	1510.922045
9.880000	1627.612890
9.890000	1335.736528
9.900000	899.130439
9.910000	575.528139
9.920000	485.597167
9.930000	447.479558
9.940000	149.697005
9.950000	-115.590228
9.960000	-337.322631
9.970000	-587.904933
9.980000	-749.169459
9.990000	-1005.736813
10.000000	-1182.715999
10.010000	-1377.003909
10.020000	-1535.540987
10.030000	-1714.930760
10.040000	-1958.021655
10.050000	-2182.542310
10.060000	-2440.567880
10.070000	-2615.722632
10.080000	-2828.129958
10.090000	-3019.112994
10.100000	-3209.279082
10.110000	-3345.672069
10.120000	-3535.908111
10.130000	-3754.906999
10.140000	-3992.285903
10.150000	-4162.311425
10.160000	-4374.243746
10.170000	-4573.979658
10.180000	-4837.272063
10.190000	-5046.832792
10.200000	-5223.395832
10.210000	-5288.130059
10.220000	-5484.122569
10.230000	-5600.901555
10.240000	-5677.255013
10.250000	-5683.540631
10.260000	-5635.234641
10.270000	-5634.809609
10.280000	-5533.583074
10.290000	-5616.662940
10.300000	-5690.009331
10.310000	-5794.890626
10.320000	-5737.184655
10.330000	-5613.646966
10.340000	-5276.418648
10.350000	-4728.549057
10.360000	-4251.816843
10.370000	-3923.288223
10.380000	-3870.754344
10.390000	-3850.741627
10.400000	-3966.712609
10.410000	-4262.432855
10.420000	-4560.465662
10.430000	-4874.050654
10.440000	-5165.816404
10.450000	-5475.283474
10.460000	-5695.168208
10.470000	-5874.015635
10.480000	-6014.131399
10.490000	-5919.943035
10.500000	-5748.134450
10.510000	-5538.622351
10.520000	-5582.567083
10.530000	-5673.675088
10.540000	-5743.785649
10.550000	-5811.038186
10.560000	-5872.686937
10.570000	-5929.150109
10.580000	-5939.214031
10.590000	-5921.499838
10.600000	-5807.241181
10.610000	-5740.841698
10.620000	-5661.778666
10.630000	-5711.477905
10.640000	-5731.565538
10.650000	-5764.738940
10.660000	-5777.883148
10.670000	-5814.616046
10.680000	-5830.029253
10.690000	-5838.393615
10.700000	-5808.120239
10.710000	-5777.767565
10.720000	-5783.608171
10.730000	-5862.545948
10.740000	-5965.929922
10.750000	-6022.664218
10.760000	-5956.638798
10.770000	-5883.375711
10.780000	-5880.643496
10.790000	-5818.582370
10.800000	-5770.604477
10.810000	-5594.594226
10.820000	-5436.085144
10.830000	-5305.965012
10.840000	-5229.666911
10.850000	-5278.856299
10.860000	-5286.986938
10.870000	-5384.956035
10.880000	-5486.434105
10.890000	-5634.132868
10.900000	-5702.808183
10.910000	-5678.669536
10.920000	-5671.574391
10.930000	-5624.131466
10.940000	-5659.219079
10.950000	-5669.008460
10.960000	-5675.601345
10.970000	-5688.563697
10.980000	-5586.334726
10.990000	-4964.050643
11.000000	-4213.297292
11.010000	-3624.633608
11.020000	-3554.145120
11.030000	-3568.418540
11.040000	-3541.539643
11.050000	-3413.418105
11.060000	-3312.484155
11.070000	-3169.572169
11.080000	-3187.203739
11.090000	-3617.556443
11.100000	-4093.915593
11.110000	-4589.832309
11.120000	-4703.284499
11.130000	-4806.254170
11.140000	-4963.494560
11.150000	-5134.068877
11.160000	-5260.340004
11.170000	-5337.708599
11.180000	-5400.302550
11.190000	-5494.056175
11.200000	-5592.740313
11.210000	-5715.533177
11.220000	-5820.011518
11.230000	-5904.455833
11.240000	-5938.535853
11.250000	-5927.472329
11.260000	-6005.408260
11.270000	-5975.905914
11.280000	-6060.417863
11.290000	-6057.498409
11.300000	-6073.256919
11.310000	-6122.823347
11.320000	-6208.039359
11.330000	-6415.358077
11.340000	-6575.761678
11.350000	-6754.842839
11.360000	-6974.333253
11.370000	-7159.696945
11.380000	-7362.883298
11.390000	-7852.106717
11.400000	-8313.460077
11.410000	-8659.093462
11.420000	-8643.557221
11.430000	-8641.065803
11.440000	-8722.100811
11.450000	-8836.651516
11.460000	-9031.518202
11.470000	-9170.004679
11.480000	-9206.788140
11.490000	-9307.535681
11.500000	-9463.507428
11.510000	-9643.931183
11.520000	-9613.921032
11.530000	-9261.916863
11.540000	-8721.255184
11.550000	-7867.104460
11.560000	-6915.766963
11.570000	-5958.518970
11.580000	-5209.516129
11.590000	-4582.671603
11.600000	-3903.247402
11.610000	-3083.618561
11.620000	-2190.954999
11.630000	-1327.542552
11.640000	-492.255216
11.650000	180.622178
11.660000	801.581461
11.670000	1362.262363
11.680000	1913.720514
11.690000	2402.425104
11.700000	2828.821576
11.710000	3260.924458
11.720000	3700.896724
11.730000	4171.305376
11.740000	4658.033857
11.750000	5086.018834
11.760000	5390.035116
11.770000	5607.187593
11.780000	5822.345581
11.790000	6095.135446
11.800000	6327.742423
11.810000	6550.959000
11.820000	6780.290046
11.830000	6955.103133
11.840000	7104.283451
11.850000	7172.887116
11.860000	7160.299636
11.870000	7108.331271
11.880000	7030.785927
11.890000	7089.733011
11.900000	7066.780906
11.910000	7097.664284
11.920000	7112.437735
11.930000	7135.083460
11.940000	7102.755790
11.950000	7034.630689
11.960000	6990.424323
11.970000	6952.206769
11.980000	7025.677463
11.990000	7157.594245
12.000000	7277.133103
12.010000	7237.359609
12.020000	7147.548800
12.030000	7113.039902
12.040000	7189.757185
12.050000	7278.224413
12.060000	7285.918286
12.070000	7189.869448
12.080000	7091.025046
12.090000	7088.116156
12.100000	7045.431386
12.110000	7057.942304
12.120000	6938.678183
12.130000	6823.940110
12.140000	6731.886485
12.150000	6640.114687
12.160000	6580.200023
12.170000	6383.364725
12.180000	6153.222841
12.190000	5936.087199
12.200000	5755.147276
12.210000	5678.901181
12.220000	5634.987128
12.230000	5641.935636
12.240000	5730.165623
12.250000	5810.950633
12.260000	6083.444345
12.270000	6238.881857
12.280000	6417.268597
12.290000	6416.521439
12.300000	6482.639747
12.310000	6605.107590
12.320000	6673.388820
12.330000	6697.010964
12.340000	6654.708892
12.350000	6679.662176
12.360000	6721.516549
12.370000	6794.149471
12.380000	6835.443093
12.390000	6626.200856
12.400000	6272.593332
12.410000	6078.125439
12.420000	6084.022184
12.430000	6105.094887
12.440000	5850.829515
12.450000	5538.126749
12.460000	5257.292199
12.470000	5005.573668
12.480000	4834.241464
12.490000	4677.036846
12.500000	4544.742216
12.510000	4444.497369
12.520000	4316.734533
12.530000	4360.009034
12.540000	4309.129366
12.550000	4259.187157
12.560000	4081.587396
12.570000	3971.599665
12.580000	3955.259413
12.590000	3897.916883
12.600000	3818.366140
12.610000	3740.261243
12.620000	3778.738424
12.630000	3814.977798
12.640000	3793.299358
12.650000	3687.123276
12.660000	3600.234419
12.670000	3506.261059
12.680000	3383.532546
12.690000	3210.081854
12.700000	3041.059960
12.710000	2868.413495
12.720000	2806.608601
12.730000	2848.429237
12.740000	2955.757586
12.750000	3047.345291
12.760000	3170.946529
12.770000	3156.348510
12.780000	3235.927208
12.790000	3279.040815
12.800000	3482.827762
12.810000	3482.877160
12.820000	3355.625600
12.830000	3177.733982
12.840000	3245.713847
12.850000	3444.814504
12.860000	3737.367069
12.870000	3919.792587
12.880000	4224.236916
12.890000	3856.304340
12.900000	3399.912124
12.910000	2527.666051
12.920000	2257.969811
12.930000	1850.550076
12.940000	1723.895941
12.950000	1303.057843
12.960000	1172.692447
12.970000	742.690917
12.980000	849.090975
12.990000	652.741069
13.000000	968.049012
13.010000	615.666200
13.020000	1095.048661
13.030000	1319.171194
13.040000	2668.509063
13.050000	3419.834953
13.060000	4321.440728
13.070000	2519.955905
13.080000	-1613.421962
13.090000	-10343.184711
13.100000	-21184.503463
13.110000	-21994.785582
13.120000	21250.655194
13.130000	43494.166671
13.140000	48215.955344
13.150000	48154.658044
13.160000	49665.158404
13.170000	48374.144661
13.180000	49389.748132
13.190000	46546.941024
13.200000	18271.951296
13.210000	-90584.202214
13.220000	-63271.650169
13.230000	-30478.366144
13.240000	-18766.007748
13.250000	-10719.711503
13.260000	-4191.018085
13.270000	-2315.827094
13.280000	98.433888
13.290000	139.792872
13.300000	1504.697345
13.310000	1236.800402
13.320000	2174.869821
13.330000	2065.145549
13.340000	3044.424906
13.350000	3106.099772
13.360000	3822.798845
13.370000	3725.687539
13.380000	4271.193309
13.390000	3587.117956
13.400000	2903.759524
13.410000	1182.967270
13.420000	300.978520
13.430000	-569.294625
13.440000	-487.970219
13.450000	-546.491089
13.460000	-203.123225
13.470000	-93.278443
13.480000	428.549610
13.490000	853.737477
13.500000	1373.115537
13.510000	1641.919810
13.520000	1973.124254
13.530000	2158.639394
13.540000	2422.286420
13.550000	2608.616562
13.560000	2936.775475
13.570000	3239.495864
13.580000	3600.582957
13.590000	3844.624083
13.600000	4041.690913
13.610000	4051.131767
13.620000	4058.986359
13.630000	3939.404980
13.640000	3869.735310
13.650000	3820.061580
13.660000	3833.636416
13.670000	3895.173776
13.680000	3936.005777
13.690000	3991.852691
13.700000	3898.437618
13.710000	3722.777081
13.720000	3597.992963
13.730000	3486.172023
13.740000	3440.403584
13.750000	3365.429842
13.760000	3349.587088
13.770000	3334.551762
13.780000	3183.821043
13.790000	3089.172078
13.800000	2891.018256
13.810000	2672.385254
13.820000	2407.173772
13.830000	2158.767056
13.840000	1981.558935
13.850000	1664.338490
13.860000	1348.162215
13.870000	1014.052408
13.880000	804.455654
13.890000	548.818198
13.900000	453.360230
13.910000	577.755864
13.920000	956.768838
13.930000	1492.900781
13.940000	2210.079534
13.950000	3054.064309
13.960000	3722.272832
13.970000	3984.990697
13.980000	4098.361312
13.990000	4243.603364
14.000000	4332.265825
14.010000	4220.953100
14.020000	3902.095959
14.030000	3618.206826
14.040000	3206.695101
14.050000	2685.502560
14.060000	2023.035506
14.070000	1498.527121
14.080000	1192.035095
14.090000	1033.677198
14.100000	893.070279
14.110000	715.902396
14.120000	565.291926
14.130000	487.944187
14.140000	490.930791
14.150000	523.016306
14.160000	482.285329
14.170000	367.885264
14.180000	264.057234
14.190000	279.335650
14.200000	391.649510
14.210000	440.582865
14.220000	527.134298
14.230000	544.765626
14.240000	625.109845
14.250000	677.839732
14.260000	696.815296
14.270000	694.795454
14.280000	657.941763
14.290000	714.299294
14.300000	780.978326
14.310000	823.088760
14.320000	826.891114
14.330000	856.240484
14.340000	1017.400519
14.350000	1167.184875
14.360000	1410.734094
14.370000	1570.826841
14.380000	1790.083552
14.390000	2113.669519
14.400000	2362.950996
14.410000	2534.122655
14.420000	2462.504464
14.430000	2408.535542
14.440000	2439.316612
14.450000	2379.737095
14.460000	2386.491544
14.470000	2348.318334
14.480000	2391.097627
14.490000	2489.929428
14.500000	2533.240451
14.510000	2615.545483
14.520000	2587.148906
14.530000	2630.173377
14.540000	2668.111572
14.550000	2635.259566
14.560000	2546.722193
14.570000	2398.048753
14.580000	2344.525604
14.590000	2364.102267
14.600000	2413.018102
14.610000	2583.608935
14.620000	2681.466348
14.630000	2807.667765
14.640000	2771.851982
14.650000	2746.458142
14.660000	2701.079466
14.670000	2629.711732
14.680000	2578.844508
14.690000	2521.153140
14.700000	2502.865949
14.710000	2503.796992
14.720000	2526.999867
14.730000	2533.705065
14.740000	2523.281387
14.750000	2474.262512
14.760000	2419.749777
14.770000	2352.743862
14.780000	2289.981101
14.790000	2211.485806
14.800000	2061.806750
14.810000	2062.677810
14.820000	2000.455662
14.830000	2075.690113
14.840000	2043.895218
14.850000	1989.950281
14.860000	1858.957695
14.870000	1705.180673
14.880000	1572.325146
14.890000	689.170331
14.900000	-268.338251
14.910000	-1140.934505
14.920000	-1308.748428
14.930000	-1402.154896
14.940000	-1531.749114
14.950000	-1555.703233
14.960000	-1663.350384
14.970000	-1740.445229
14.980000	-1908.964341
14.990000	-2011.453383
15.000000	-2174.060609
15.010000	-2292.535162
15.020000	-2498.514241
15.030000	-2564.676883
15.040000	-2624.674845
15.050000	-2545.805579
15.060000	-2468.640876
15.070000	-2535.664023
15.080000	-2521.992029
15.090000	-2601.347662
15.100000	-2543.968298
15.110000	-2598.748865
15.120000	-2691.128626
15.130000	-2815.414549
15.140000	-2964.697139
15.150000	-2993.112955
15.160000	-2928.493244
15.170000	-2728.371619
15.180000	-2609.089645
15.190000	-2566.115869
15.200000	-2574.725569
15.210000	-2592.910373
15.220000	-2619.908559
15.230000	-2774.803859
15.240000	-2918.488246
15.250000	-3018.097665
15.260000	-3064.243580
15.270000	-3120.706242
15.280000	-3179.250877
15.290000	-3184.638075
15.300000	-3176.640738
15.310000	-3211.739963
15.320000	-3304.709419
15.330000	-3404.791091
15.340000	-3456.897938
15.350000	-3434.722138
15.360000	-3298.853804
15.370000	-3188.950779
15.380000	-3179.438693
15.390000	-3380.087078
15.400000	-3527.812472
15.410000	-3548.223615
15.420000	-3511.734954
15.430000	-3388.905855
15.440000	-3377.436881
15.450000	-3286.679319
15.460000	-3301.329825
15.470000	-3275.373455
15.480000	-3233.522888
15.490000	-3201.236360
15.500000	-3175.473231
15.510000	-3186.695648
15.520000	-3175.015243
15.530000	-3134.812586
15.540000	-3089.480954
15.550000	-3091.856471
15.560000	-3115.911521
15.570000	-3175.861039
15.580000	-3164.861752
15.590000	-3157.551540
15.600000	-3074.244238
15.610000	-3089.130732
15.620000	-3101.063814
15.630000	-3009.907940
15.640000	-2881.202223
15.650000	-2664.565765
15.660000	-2517.779885
15.670000	-2382.499336
15.680000	-2343.287896
15.690000	-2360.297509
15.700000	-2376.289572
15.710000	-2435.250240
15.720000	-2496.269702
15.730000	-2589.946074
15.740000	-2610.423481
15.750000	-2572.523501
15.760000	-2543.606734
15.770000	-2410.157656
15.780000	-2329.756421
15.790000	-2242.417749
15.800000	-2273.306434
15.810000	-2290.531904
15.820000	-2233.280018
15.830000	-2171.902927
15.840000	-2165.788341
15.850000	-2193.618704
15.860000	-2185.063345
15.870000	-2139.094326
15.880000	-2082.318604
15.890000	-2090.945381
15.900000	-2094.411433
15.910000	-2068.164981
15.920000	-2009.474501
15.930000	-1950.057628
15.940000	-1912.759739
15.950000	-1854.684346
15.960000	-1896.744278
15.970000	-1820.964410
15.980000	-1786.683994
15.990000	-1689.774408
16.000000	-1571.277372
16.010000	-1486.880936
16.020000	-1388.510076
16.030000	-1426.792207
16.040000	-1450.507388
16.050000	-1506.174894
16.060000	-1615.031551
16.070000	-1705.232853
16.080000	-1717.188258
16.090000	-1669.773163
16.100000	-1571.584847
16.110000	-1541.218298
16.120000	-1408.793078
16.130000	-1362.585677
16.140000	-1312.844121
16.150000	-1410.889509
16.160000	-1527.065651
16.170000	-1623.722797
16.180000	-1717.714830
16.190000	-1798.426446
16.200000	-1903.109131
16.210000	-1963.789240
16.220000	-2020.081576
16.230000	-2083.358252
16.240000	-2208.792579
16.250000	-2309.155521
16.260000	-2382.023657
16.270000	-2369.421789
16.280000	-2388.692247
16.290000	-2416.592316
16.300000	-2515.554253
16.310000	-2514.747976
16.320000	-2530.498443
16.330000	-2541.152497
16.340000	-2516.715204
16.350000	-2560.218843
16.360000	-2497.133701
16.370000	-2467.781641
16.380000	-2407.956393
16.390000	-2437.149167
16.400000	-2580.153408
16.410000	-2684.999832
16.420000	-2862.708905
16.430000	-3033.630480
16.440000	-3242.577420
16.450000	-3387.162149
16.460000	-3412.215068
16.470000	-3477.591284
16.480000	-3459.715224
16.490000	-3563.564519
16.500000	-3614.147512
16.510000	-3717.953965
16.520000	-3820.447965
16.530000	-3912.111468
16.540000	-4095.701823
16.550000	-4290.076169
16.560000	-4490.144097
16.570000	-4634.533034
16.580000	-4747.802991
16.590000	-4822.215611
16.600000	-4874.510669
16.610000	-4852.022883
16.620000	-4776.404857
16.630000	-4711.929980
16.640000	-4687.184133
16.650000	-4648.594842
16.660000	-4550.635880
16.670000	-4547.124510
16.680000	-4504.281908
16.690000	-4444.400556
16.700000	-4364.175517
16.710000	-4276.037848
16.720000	-4250.212668
16.730000	-4159.785242
16.740000	-4171.040067
16.750000	-4186.793987
16.760000	-4202.105808
16.770000	-4197.414219
16.780000	-4223.349264
16.790000	-4239.769998
16.800000	-4186.188261
16.810000	-4137.482207
16.820000	-4006.901152
16.830000	-3914.413162
16.840000	-3819.156419
16.850000	-3775.924054
16.860000	-3782.238017
16.870000	-3727.454550
16.880000	-3715.558832
16.890000	-3705.235366
16.900000	-3689.623335
16.910000	-3648.294271
16.920000	-3595.765446
16.930000	-3562.043599
16.940000	-3520.733419
16.950000	-3545.046820
16.960000	-3596.374100
16.970000	-3609.289049
16.980000	-3559.439728
16.990000	-3505.069720
17.000000	-3512.170987
17.010000	-3488.726829
17.020000	-3365.273997
17.030000	-3317.366065
17.040000	-3209.832090
17.050000	-3183.404255
17.060000	-3061.492430
17.070000	-2927.128593
17.080000	-2812.986796
17.090000	-2623.137957
17.100000	-2560.606394
17.110000	-2474.478544
17.120000	-2511.679890
17.130000	-2566.426746
17.140000	-2597.565087
17.150000	-2638.880775
17.160000	-2646.536209
17.170000	-2668.886249
17.180000	-2565.619803
17.190000	-2074.185716
17.200000	-1664.343538
17.210000	-1323.788997
17.220000	-1428.427057
17.230000	-1520.394832
17.240000	-1591.704429
17.250000	-1772.336849
17.260000	-2008.098853
17.270000	-2408.684211
17.280000	-2709.419237
17.290000	-3099.899069
17.300000	-3446.470551
17.310000	-3862.744070
17.320000	-4188.051795
17.330000	-4395.237914
17.340000	-4429.170537
17.350000	-4446.259278
17.360000	-4419.062968
17.370000	-4031.097529
17.380000	-3122.996453
17.390000	-2174.967332
17.400000	-1161.481181
17.410000	-2835.741438
17.420000	-7048.932939
17.430000	-14088.984726
17.440000	-23310.499699
17.450000	-31213.844378
17.460000	-32021.927063
17.470000	3842.646145
17.480000	28722.926854
17.490000	39561.403131
17.500000	42101.676373
17.510000	36240.173986
17.520000	-33807.257390
17.530000	-88049.506825
17.540000	-54231.718581
17.550000	-41037.314593
17.560000	-32226.049111
17.570000	-26177.629939
17.580000	-20027.742801
17.590000	-15340.561651
17.600000	-11626.701816
17.610000	-9927.934843
17.620000	-8642.967864
17.630000	-7984.520384
17.640000	-7151.676799
17.650000	-6982.497906
17.660000	-6649.698927
17.670000	-6334.462517
17.680000	-5340.190778
17.690000	-4476.106907
17.700000	-3606.628189
17.710000	-3037.834811
17.720000	-2349.604700
17.730000	-1725.083162
17.740000	-1030.905262
17.750000	-428.664838
17.760000	146.229063
17.770000	473.789048
17.780000	831.550576
17.790000	1170.503616
17.800000	1737.512485
17.810000	2326.472011
17.820000	3014.085936
17.830000	3639.292315
17.840000	4282.497700
17.850000	4849.143967
17.860000	5451.994233
17.870000	5994.606451
17.880000	6490.648674
17.890000	6906.798708
17.900000	7311.778873
17.910000	7684.944271
17.920000	8031.181188
17.930000	8167.111264
17.940000	8297.190371
17.950000	8390.509888
17.960000	8579.863625
17.970000	8711.004236
17.980000	8721.342331
17.990000	8673.733047
18.000000	8528.431989
18.010000	8406.131367
18.020000	8319.456409
18.030000	8309.508810
18.040000	8358.221845
18.050000	8392.641590
18.060000	8433.486491
18.070000	8485.641940
18.080000	8445.366248
18.090000	8340.920663
18.100000	8099.553348
18.110000	7868.390329
18.120000	7554.670811
18.130000	7195.140403
18.140000	6891.226066
18.150000	6571.344150
18.160000	6348.552652
18.170000	6087.130767
18.180000	5930.246642
18.190000	5791.222726
18.200000	5611.623343
18.210000	5365.678018
18.220000	5153.955763
18.230000	4942.373935
18.240000	4807.871939
18.250000	4591.034514
18.260000	4446.265510
18.270000	4319.406003
18.280000	4218.448443
18.290000	3963.214211
18.300000	3508.289922
18.310000	3006.857780
18.320000	2358.058369
18.330000	1374.890924
18.340000	-276.950161
18.350000	-1749.533133
18.360000	-2670.634815
18.370000	-3092.156881
18.380000	-3435.033083
18.390000	-3902.548105
18.400000	-4163.995174
18.410000	-4480.259837
18.420000	-4789.765749
18.430000	-4956.459630
18.440000	-4760.998620
18.450000	-4331.971176
18.460000	-3840.369137
18.470000	-3458.840139
18.480000	-3126.783548
18.490000	-2926.450953
18.500000	-2833.586537
18.510000	-2954.432893
18.520000	-3157.748202
18.530000	-3494.591369
18.540000	-3916.310039
18.550000	-4444.949574
18.560000	-4921.043721
18.570000	-5291.936325
18.580000	-5574.969618
18.590000	-5068.947594
18.600000	-4349.398219
18.610000	-3510.297010
18.620000	-3308.305687
18.630000	-3185.024550
18.640000	-2988.316960
18.650000	-2794.365070
18.660000	-2533.244051
18.670000	-2369.330769
18.680000	-2247.882153
18.690000	-2213.212552
18.700000	-2157.076413
18.710000	-2188.998777
18.720000	-2218.024152
18.730000	-2229.295912
18.740000	-2251.725106
18.750000	-2281.132921
18.760000	-2284.976656
18.770000	-2260.344208
18.780000	-2102.572682
18.790000	-1994.299562
18.800000	-1803.590708
18.810000	-1630.174864
18.820000	-1429.828019
18.830000	-1196.433811
18.840000	-995.204526
18.850000	-796.372804
18.860000	-649.738107
18.870000	-461.520268
18.880000	-238.147352
18.890000	3.706083
18.900000	262.890395
18.910000	478.508415
18.920000	694.959826
18.930000	804.638123
18.940000	928.404024
18.950000	1136.712373
18.960000	1463.165706
18.970000	1840.597597
18.980000	2131.490944
18.990000	2428.875175
19.000000	2756.721329
19.010000	3097.469174
19.020000	3382.243584
19.030000	3570.242055
19.040000	3729.502173
19.050000	3802.777160
19.060000	3930.077777
19.070000	3974.328677
19.080000	4070.513591
19.090000	4153.111308
19.100000	4274.724468
19.110000	4436.538797
19.120000	4454.882458
19.130000	4642.453176
19.140000	4722.547226
19.150000	4842.326022
19.160000	4844.505417
19.170000	4777.227981
19.180000	4723.693377
19.190000	4642.924255
19.200000	4580.255642
19.210000	4519.590877
19.220000	4485.403548
19.230000	4471.315417
19.240000	4475.374683
19.250000	4423.989318
19.260000	4372.514465
19.270000	4314.309090
19.280000	4309.321593
19.290000	4339.233292
19.300000	4368.903497
19.310000	4303.148450
19.320000	4325.408060
19.330000	4324.413065
19.340000	4377.925517
19.350000	4435.487336
19.360000	4433.904571
19.370000	4360.865995
19.380000	4145.221353
19.390000	3970.778924
19.400000	3805.112884
19.410000	3608.842690
19.420000	3368.914591
19.430000	3086.451163
19.440000	2855.812701
19.450000	2611.127728
19.460000	2410.560841
19.470000	2257.163433
19.480000	2101.342712
19.490000	1958.891506
19.500000	1711.938020
19.510000	1523.907171
19.520000	1354.489835
19.530000	1231.961695
19.540000	1079.939080
19.550000	924.483536
19.560000	820.989215
19.570000	763.023601
19.580000	708.129480
19.590000	585.007889
19.600000	444.797160
19.610000	288.045383
19.620000	156.103417
19.630000	24.095171
19.640000	-6.381081
19.650000	-86.352675
19.660000	-130.352128
19.670000	-258.500271
19.680000	-426.672801
19.690000	-507.218176
19.700000	-583.371397
19.710000	-709.989158
19.720000	-964.261330
19.730000	-1301.554515
19.740000	-1534.553986
19.750000	-1757.018766
19.760000	-1937.963212
19.770000	-2131.173987
19.780000	-2321.306302
19.790000	-2387.829633
19.800000	-2506.250715
19.810000	-2486.601941
19.820000	-2587.546671
19.830000	-2535.029305
19.840000	-2390.882227
19.850000	-2192.505456
19.860000	-2065.240699
19.870000	-2077.939966
19.880000	-2095.150334
19.890000	-2021.261654
19.900000	-1968.741312
19.910000	-1940.390728
19.920000	-1977.211206
19.930000	-2065.475542
19.940000	-2130.618772
19.950000	-2215.319175
19.960000	-2239.123639
19.970000	-2185.439035
19.980000	-2113.268962
19.990000	-2169.899508
20.000000	-2216.391585
20.010000	-2216.069580
20.020000	-2141.299706
20.030000	-2001.768078
20.040000	-1885.848452
20.050000	-1670.308452
20.060000	-1423.678846
20.070000	-1035.778146
20.080000	-687.393773
20.090000	-480.448453
20.100000	-401.875276
20.110000	-322.881827
20.120000	-103.405249
20.130000	42.300375
20.140000	307.440793
20.150000	444.530578
20.160000	649.765327
20.170000	677.475214
20.180000	641.339714
20.190000	554.742073
20.200000	443.547564
20.210000	374.722478
20.220000	309.734454
20.230000	280.499985
20.240000	208.556595
20.250000	163.290118
20.260000	42.849772
20.270000	-42.059799
20.280000	-135.337398
20.290000	-136.066220
20.300000	-96.330917
20.310000	-69.126462
20.320000	29.334726
20.330000	132.351581
20.340000	190.333780
20.350000	315.896349
20.360000	416.391746
20.370000	617.999621
20.380000	829.478158
20.390000	1002.848789
20.400000	1140.665219
20.410000	1111.292709
20.420000	1077.960235
20.430000	1027.217561
20.440000	980.652446
20.450000	1009.247131
20.460000	1016.521847
20.470000	1091.424541
20.480000	1192.673518
20.490000	1366.483623
20.500000	1561.533380
20.510000	1650.310909
20.520000	1727.983690
20.530000	1663.162816
20.540000	1641.620005
20.550000	1631.399632
20.560000	1675.780540
20.570000	1708.654918
20.580000	1747.825098
20.590000	1819.922648
20.600000	1860.275037
20.610000	1876.713622
20.620000	1908.135680
20.630000	1990.155551
20.640000	2047.018326
20.650000	2055.069703
20.660000	2083.152036
20.670000	2182.600663
20.680000	2344.452892
20.690000	2388.662341
20.700000	2512.124164
20.710000	2612.571957
20.720000	2833.474448
20.730000	3106.571921
20.740000	3343.776593
20.750000	3545.154752
20.760000	3546.970661
20.770000	3586.180985
20.780000	3695.948897
20.790000	3874.790301
20.800000	4237.592652
20.810000	4886.043554
20.820000	5636.467098
20.830000	6339.071913
20.840000	6795.557896
20.850000	7305.484778
20.860000	7661.942205
20.870000	7934.676166
20.880000	8047.946308
20.890000	8114.070791
20.900000	8103.581660
20.910000	7989.493484
20.920000	7876.934978
20.930000	7781.693034
20.940000	7761.760215
20.950000	7719.153891
20.960000	7719.056959
20.970000	7690.263784
20.980000	7678.699276
20.990000	7657.865472
21.000000	7641.810465
21.010000	7567.613352
21.020000	7452.165158
21.030000	7302.023802
21.040000	7231.172461
21.050000	7079.371865
21.060000	6970.985417
21.070000	6893.367397
21.080000	6912.036591
21.090000	7065.311472
21.100000	7178.525711
21.110000	7217.330160
21.120000	7057.122416
21.130000	6843.111586
21.140000	6655.561923
21.150000	6405.782929
21.160000	6175.489504
21.170000	5935.168188
21.180000	5719.946701
21.190000	5542.175585
21.200000	5295.094036
21.210000	5246.895994
21.220000	5098.031038
21.230000	4961.096570
21.240000	4644.814044
21.250000	4370.443254
21.260000	4199.503741
21.270000	4012.637601
21.280000	3798.834479
21.290000	3553.191149
21.300000	3442.310981
21.310000	3376.380730
21.320000	3314.260369
21.330000	3169.450476
21.340000	3031.028934
21.350000	2910.643332
21.360000	2820.132622
21.370000	2697.633824
21.380000	2627.302874
21.390000	2586.996634
21.400000	2559.817221
21.410000	2479.218166
21.420000	2393.641193
21.430000	2336.056370
21.440000	2347.144191
21.450000	2367.609835
21.460000	2423.871108
21.470000	2460.592567
21.480000	2417.570420
21.490000	2333.163716
21.500000	2202.801456
21.510000	2090.905907
21.520000	2007.529939
21.530000	2015.103951
21.540000	2074.957940
21.550000	2149.948578
21.560000	2219.739672
21.570000	2246.049984
21.580000	2242.301295
21.590000	2151.928856
21.600000	2079.941506
21.610000	2016.458768
21.620000	1950.543838
21.630000	1933.122029
21.640000	1985.359613
21.650000	2205.289983
21.660000	2528.354101
21.670000	2890.750336
21.680000	3159.781366
21.690000	3393.354540
21.700000	3648.491527
21.710000	4007.311304
21.720000	4324.525670
21.730000	4603.289273
21.740000	4698.765069
21.750000	4800.796397
21.760000	4915.775377
21.770000	5125.115825
21.780000	5409.446574
21.790000	5757.727256
21.800000	6012.649877
21.810000	6167.350419
21.820000	6067.377664
21.830000	5973.709047
21.840000	5685.429196
21.850000	5476.963472
21.860000	5171.496100
21.870000	5074.795892
21.880000	4882.805042
21.890000	4809.298619
21.900000	4564.977994
21.910000	4369.108230
21.920000	3967.424746
21.930000	3760.287816
21.940000	3378.326958
21.950000	3216.801327
21.960000	2597.846438
21.970000	2316.923636
21.980000	1992.693441
21.990000	2605.008405
22.000000	3092.488688
22.010000	3656.446678
22.020000	3298.872765
22.030000	3245.873928
22.040000	784.315085
22.050000	-2155.069041
22.060000	-7813.829687
22.070000	-15492.806273
22.080000	-20817.279118
22.090000	-17931.233326
22.100000	22046.531507
22.110000	42852.282945
22.120000	49326.755733
22.130000	51846.424943
22.140000	48431.715951
22.150000	23987.398400
22.160000	-76209.722219
22.170000	-66873.925964
22.180000	-30685.874405
22.190000	-20742.180912
22.200000	-13741.619357
22.210000	-7179.698085
22.220000	-3046.575143
22.230000	1064.352532
22.240000	3001.104553
22.250000	4954.150232
22.260000	5223.917750
22.270000	5665.860763
22.280000	5271.344067
22.290000	5674.974883
22.300000	5763.029746
22.310000	6415.704081
22.320000	6531.408334
22.330000	6794.137581
22.340000	6482.724923
22.350000	6378.826700
22.360000	6018.077797
22.370000	5970.144978
22.380000	5795.110715
22.390000	5868.486294
22.400000	5641.719445
22.410000	5430.980175
22.420000	5023.650374
22.430000	4820.931495
22.440000	4506.712968
22.450000	4430.476311
22.460000	4265.681101
22.470000	4298.128778
22.480000	4278.268150
22.490000	4134.689963
22.500000	3914.262939
22.510000	3537.316560
22.520000	3223.155237
22.530000	2902.222833
22.540000	2613.749388
22.550000	2457.361376
22.560000	2248.292124
22.570000	2084.001391
22.580000	1853.318096
22.590000	1725.798627
22.600000	1603.993480
22.610000	1575.149143
22.620000	1473.015170
22.630000	1360.501501
22.640000	1184.754547
22.650000	1018.898703
22.660000	841.930752
22.670000	784.404034
22.680000	665.607086
22.690000	565.309673
22.700000	289.546291
22.710000	-257.503928
22.720000	-533.420506
22.730000	-547.161090
22.740000	-319.418872
22.750000	-300.333938
22.760000	-446.735339
22.770000	-469.507802
22.780000	-613.531821
22.790000	-664.437154
22.800000	-442.443658
22.810000	76.849558
22.820000	715.060216
22.830000	1026.370920
22.840000	1261.108462
22.850000	1300.173161
22.860000	1419.533830
22.870000	1487.477538
22.880000	1550.734325
22.890000	1563.141610
22.900000	1350.527868
22.910000	1094.724564
22.920000	817.151706
22.930000	602.749301
22.940000	294.374400
22.950000	-57.395255
22.960000	-412.508536
22.970000	-628.672623
22.980000	-726.923937
22.990000	-669.542719
23.000000	-539.762553
23.010000	-460.616702
23.020000	-349.801998
23.030000	-207.017602
23.040000	51.281948
23.050000	428.920404
23.060000	752.099022
23.070000	1029.577249
23.080000	1099.996061
23.090000	1150.735581
23.100000	1174.899588
23.110000	1205.205893
23.120000	1233.223028
23.130000	1340.452559
23.140000	1548.574581
23.150000	1665.968862
23.160000	1822.995684
23.170000	1921.037847
23.180000	2033.066022
23.190000	2066.493095
23.200000	2048.302094
23.210000	2151.516449
23.220000	2190.048490
23.230000	2193.959763
23.240000	2110.389719
23.250000	2065.045727
23.260000	2066.223604
23.270000	2100.215981
23.280000	2142.502086
23.290000	2151.810755
23.300000	2132.038033
23.310000	2078.511607
23.320000	2069.594510
23.330000	2176.314289
23.340000	2214.568393
23.350000	2272.311819
23.360000	2269.524678
23.370000	2364.069258
23.380000	2500.999123
23.390000	2584.145560
23.400000	2620.184200
23.410000	2535.759608
23.420000	2492.434770
23.430000	2547.837829
23.440000	2608.348913
23.450000	2685.279238
23.460000	2778.636313
23.470000	2876.421275
23.480000	3022.473299
23.490000	3061.408286
23.500000	3262.197212
23.510000	3391.733604
23.520000	3578.627786
23.530000	3627.879136
23.540000	3679.015371
23.550000	3764.096852
23.560000	3822.511567
23.570000	3865.203345
23.580000	3878.628496
23.590000	3930.550198
23.600000	3947.369905
23.610000	3954.510768
23.620000	3920.291868
23.630000	3900.043340
23.640000	3820.188399
23.650000	3760.655052
23.660000	3767.645376
23.670000	3873.209834
23.680000	3880.116721
23.690000	3949.053924
23.700000	3962.124623
23.710000	4098.678231
23.720000	4234.591561
23.730000	4329.487148
23.740000	4338.328991
23.750000	4179.808388
23.760000	4026.704878
23.770000	3891.291313
23.780000	3840.495325
23.790000	3814.017805
23.800000	3794.993271
23.810000	3744.266459
23.820000	3720.672224
23.830000	3691.169769
23.840000	3702.138082
23.850000	3667.606759
23.860000	3668.621576
23.870000	3582.705377
23.880000	3471.827298
23.890000	3347.208568
23.900000	3242.968170
23.910000	3158.817797
23.920000	3058.204906
23.930000	2969.796530
23.940000	2907.252349
23.950000	2872.255830
23.960000	2798.287445
23.970000	2669.691304
23.980000	2486.530333
23.990000	2346.888750
24.000000	2249.654967
24.010000	2283.481700
24.020000	2259.160142
24.030000	2291.381108
24.040000	2250.126367
24.050000	2162.172365
24.060000	2130.089993
24.070000	2121.710789
24.080000	2173.019377
24.090000	2087.049283
24.100000	1909.382796
24.110000	1745.314262
24.120000	1507.307019
24.130000	1305.540646
24.140000	1092.544528
24.150000	1009.358986
24.160000	1001.981773
24.170000	984.152059
24.180000	1067.019112
24.190000	998.332805
24.200000	998.735607
24.210000	882.438784
24.220000	903.696774
24.230000	907.116889
24.240000	869.713380
24.250000	816.279178
24.260000	775.421260
24.270000	849.987344
24.280000	926.203977
24.290000	1009.353468
24.300000	999.356092
24.310000	1007.620395
24.320000	1038.862915
24.330000	1210.505757
24.340000	1433.104909
24.350000	1567.218265
24.360000	1663.828839
24.370000	1810.985938
24.380000	2010.597297
24.390000	2236.619049
24.400000	2286.149956
24.410000	2330.544431
24.420000	2263.532164
24.430000	2277.543318
24.440000	2315.142219
24.450000	2366.915899
24.460000	2357.139600
24.470000	2345.223407
24.480000	2436.487809
24.490000	2527.509932
24.500000	2753.705287
24.510000	2919.428039
24.520000	3150.006113
24.530000	3278.740059
24.540000	3396.872251
24.550000	3441.145438
24.560000	3516.378554
24.570000	3601.711635
24.580000	3713.152908
24.590000	3830.673071
24.600000	3921.380227
24.610000	4053.394287
24.620000	4172.080094
24.630000	4286.761545
24.640000	4373.486249
24.650000	4446.358296
24.660000	4494.609649
24.670000	4551.856408
24.680000	4585.992532
24.690000	4603.226923
24.700000	4701.388036
24.710000	4779.472764
24.720000	4927.389749
24.730000	5107.443714
24.740000	5274.105891
24.750000	5431.614296
24.760000	5475.914512
24.770000	5471.297429
24.780000	5375.808401
24.790000	5238.935665
24.800000	5148.839285
24.810000	5133.432675
24.820000	5168.076844
24.830000	5242.313048
24.840000	5316.572233
24.850000	5385.618841
24.860000	5399.602845
24.870000	5439.601934
24.880000	5472.965360
24.890000	5558.807873
24.900000	5592.174554
24.910000	5609.358871
24.920000	5554.413947
24.930000	5470.458572
24.940000	5422.984432
24.950000	5443.059699
24.960000	5494.291901
24.970000	5517.847723
24.980000	5572.497137
24.990000	5729.571201
25.000000	5939.931942
25.010000	6114.404619
25.020000	6128.816617
25.030000	5992.810951
25.040000	5903.414012
25.050000	5881.925336
25.060000	6003.342199
25.070000	6137.318273
25.080000	6203.576312
25.090000	6176.689427
25.100000	5965.784027
25.110000	5734.906513
25.120000	5496.714093
25.130000	5289.324023
25.140000	5089.264472
25.150000	4897.256389
25.160000	4771.413131
25.170000	4625.224393
25.180000	4555.824552
25.190000	4464.738990
25.200000	4421.439885
25.210000	4354.267347
25.220000	4256.961628
25.230000	4163.959632
25.240000	3951.426158
25.250000	3673.175987
25.260000	3374.227959
25.270000	3206.706542
25.280000	3167.949895
25.290000	3255.240767
25.300000	3337.982957
25.310000	3382.361676
25.320000	3246.364873
25.330000	3029.116046
25.340000	2784.585720
25.350000	2668.103519
25.360000	2650.914090
25.370000	2705.699794
25.380000	2684.507690
25.390000	1880.014642
25.400000	1046.027663
25.410000	336.921370
25.420000	254.063934
25.430000	292.285130
25.440000	147.866713
25.450000	138.894901
25.460000	15.639758
25.470000	2.327880
25.480000	-35.392305
25.490000	-99.036240
25.500000	-144.135045
25.510000	-108.864700
25.520000	-17.969254
25.530000	54.977323
25.540000	-5.121272
25.550000	-148.272685
25.560000	-348.225653
25.570000	-502.542292
25.580000	-523.607959
25.590000	-454.081944
25.600000	-325.547104
25.610000	-302.916746
25.620000	-313.103194
25.630000	-311.776181
25.640000	-333.496625
25.650000	-211.712249
25.660000	-148.205731
25.670000	-38.452710
25.680000	-122.849549
25.690000	-243.762318
25.700000	-343.438404
25.710000	-420.906924
25.720000	-493.765636
25.730000	-546.990976
25.740000	-488.585496
25.750000	-430.012885
25.760000	-417.948101
25.770000	-489.069688
25.780000	-563.728539
25.790000	-635.072081
25.800000	-673.533887
25.810000	-623.765936
25.820000	-545.425685
25.830000	-553.056085
25.840000	-547.852016
25.850000	-594.925248
25.860000	-619.029941
25.870000	-575.022473
25.880000	-516.967348
25.890000	-412.711508
25.900000	-477.755177
25.910000	-571.935516
25.920000	-691.437595
25.930000	-816.310239
25.940000	-875.850583
25.950000	-926.245028
25.960000	-882.428757
25.970000	-913.104868
25.980000	-878.395692
25.990000	-875.527138
26.000000	-864.572031
26.010000	-905.818989
26.020000	-1000.856365
26.030000	-1003.649484
26.040000	-995.049502
26.050000	-971.542110
26.060000	-1037.841944
26.070000	-1143.652558
26.080000	-1246.307096
26.090000	-1321.139046
26.100000	-1368.843344
26.110000	-1492.583239
26.120000	-1583.147380
26.130000	-1670.769666
26.140000	-1694.902787
26.150000	-1736.052342
26.160000	-1741.342137
26.170000	-1789.087070
26.180000	-1755.292317
26.190000	-1734.463167
26.200000	-1673.586643
26.210000	-1569.065700
26.220000	-1567.057711
26.230000	-1559.409891
26.240000	-1711.728854
26.250000	-1874.678598
26.260000	-2043.929140
26.270000	-2292.298071
26.280000	-2493.061568
26.290000	-2716.279532
26.300000	-2879.270618
26.310000	-3001.044380
26.320000	-3173.525281
26.330000	-3206.554389
26.340000	-3344.835480
26.350000	-3459.240000
26.360000	-3704.803036
26.370000	-3937.990281
26.380000	-4074.492449
26.390000	-4247.571784
26.400000	-4439.675713
26.410000	-4744.708559
26.420000	-4966.318626
26.430000	-5164.814814
26.440000	-5344.078754
26.450000	-5650.926803
26.460000	-5900.883039
26.470000	-6232.220213
26.480000	-6586.115143
26.490000	-6939.588713
26.500000	-7214.178947
26.510000	-7344.317454
26.520000	-7545.012231
26.530000	-7890.331935
26.540000	-8122.948755
26.550000	-8219.008337
26.560000	-8048.287641
26.570000	-7864.774975
26.580000	-7703.400246
26.590000	-7468.899765
26.600000	-7134.757719
26.610000	-6832.187412
26.620000	-6589.235028
26.630000	-6578.281515
26.640000	-6505.515395
26.650000	-6634.663850
26.660000	-6512.590464
26.670000	-6252.371625
26.680000	-5329.691812
26.690000	-4398.098002
26.700000	-3359.853103
26.710000	-2882.054978
26.720000	-2365.339043
26.730000	-4296.965824
26.740000	-7655.336976
26.750000	-15703.768282
26.760000	-30806.002238
26.770000	-35578.002563
26.780000	-8879.451249
26.790000	25318.263353
26.800000	38042.569759
26.810000	43712.947273
26.820000	43292.077518
26.830000	38723.007640
26.840000	-25307.541892
26.850000	-96814.375280
26.860000	-60860.294132
26.870000	-40565.732986
26.880000	-31412.417073
26.890000	-25410.451709
26.900000	-19839.743123
26.910000	-16584.511771
26.920000	-13449.457891
26.930000	-12067.016927
26.940000	-10677.459484
26.950000	-10728.272915
26.960000	-10316.204884
26.970000	-10270.652690
26.980000	-9339.188848
26.990000	-8590.702616
27.000000	-7246.397115
27.010000	-6118.425895
27.020000	-4544.196425
27.030000	-3374.953065
27.040000	-2549.473374
27.050000	-2622.159301
27.060000	-2637.930346
27.070000	-2652.471983
27.080000	-2663.562925
27.090000	-3636.113286
27.100000	-4949.517408
27.110000	-6241.478328
27.120000	-6968.325616
27.130000	-7571.237791
27.140000	-8132.174202
27.150000	-8649.465392
27.160000	-8976.326165
27.170000	-9298.980309
27.180000	-9678.845368
27.190000	-10278.152774
27.200000	-10983.659179
27.210000	-12159.023478
27.220000	-14140.790685
27.230000	-16991.871828
27.240000	-20066.040650
27.250000	-23529.354198
27.260000	-27837.158284
27.270000	-32602.599819
27.280000	-36488.077509
27.290000	-39037.682940
27.300000	-40411.440411
27.310000	-41217.752087
27.320000	-41599.615210
27.330000	-41246.334029
27.340000	-39729.560910
27.350000	-37145.117903
27.360000	-34312.257125
27.370000	-31237.099736
27.380000	-27539.992562
27.390000	-23393.698215
27.400000	-19425.409277
27.410000	-15840.905992
27.420000	-12552.787592
27.430000	-9485.245771
27.440000	-6669.894330
27.450000	-4169.103209
27.460000	-2023.373934
27.470000	-259.355228
27.480000	1217.045784
27.490000	2268.324689
27.500000	3013.404848
27.510000	3455.923349
27.520000	3699.607861
27.530000	3764.862507
27.540000	3678.397835
27.550000	3494.781413
27.560000	3254.385633
27.570000	3109.578289
27.580000	2900.753804
27.590000	2585.935650
27.600000	2149.431734
27.610000	1726.612290
27.620000	1587.049426
27.630000	1602.099813
27.640000	1717.776881
27.650000	1697.657729
27.660000	1598.213671
27.670000	1505.869529
27.680000	1337.422907
27.690000	836.008461
