Time(s)	IR_denoised_median
0.000000	-44.748869
0.010000	-44.748869
0.020000	-44.748869
0.030000	-22.039633
0.040000	10.303768
0.050000	64.074361
0.060000	98.233415
0.070000	165.468340
0.080000	228.940172
0.090000	305.031938
0.100000	366.551126
0.110000	442.774954
0.120000	525.082747
0.130000	618.580862
0.140000	693.544321
0.150000	764.534454
0.160000	835.001852
0.170000	910.520772
0.180000	992.475183
0.190000	1054.458480
0.200000	1113.094823
0.210000	1166.373526
0.220000	1238.816248
0.230000	1302.172927
0.240000	1354.639984
0.250000	1377.224250
0.260000	1377.224250
0.270000	1377.224250
0.280000	1241.732136
0.290000	1052.594339
0.300000	894.408004
0.310000	756.735493
0.320000	667.220865
0.330000	639.871902
0.340000	626.896999
0.350000	626.896999
0.360000	626.896999
0.370000	648.338195
0.380000	699.623838
0.390000	713.357660
0.400000	717.219018
0.410000	717.219018
0.420000	717.219018
0.430000	690.123629
0.440000	690.004398
0.450000	690.004398
0.460000	690.004398
0.470000	699.147568
0.480000	746.399603
0.490000	787.169088
0.500000	819.883506
0.510000	866.292176
0.520000	912.306716
0.530000	940.443898
0.540000	986.915575
0.550000	1025.462419
0.560000	1068.669708
0.570000	1114.479502
0.580000	1142.412216
0.590000	1195.710758
0.600000	1236.972557
0.610000	1294.161049
0.620000	1341.424755
0.630000	1402.788146
0.640000	1472.836059
0.650000	1542.445160
0.660000	1557.495645
0.670000	1557.495645
0.680000	1557.495645
0.690000	1425.256266
0.700000	1244.838736
0.710000	1060.370749
0.720000	924.245336
0.730000	799.280079
0.740000	724.903286
0.750000	675.050513
0.760000	658.312329
0.770000	658.312329
0.780000	658.312329
0.790000	695.960646
0.800000	713.102168
0.810000	715.903687
0.820000	718.635474
0.830000	718.635474
0.840000	718.635474
0.850000	712.320808
0.860000	712.320808
0.870000	712.320808
0.880000	713.031652
0.890000	730.792186
0.900000	761.930178
0.910000	781.985705
0.920000	816.005877
0.930000	854.124504
0.940000	903.168565
0.950000	936.211699
0.960000	983.529421
0.970000	1013.168989
0.980000	1019.002161
0.990000	1048.313877
1.000000	1048.656807
1.010000	1054.934378
1.020000	1060.583259
1.030000	1058.331629
1.040000	1056.368118
1.050000	1056.368118
1.060000	1058.331629
1.070000	1058.331629
1.080000	1056.368118
1.090000	1052.715118
1.100000	944.584926
1.110000	739.171874
1.120000	524.491647
1.130000	314.353399
1.140000	165.555655
1.150000	104.490464
1.160000	49.361408
1.170000	49.361408
1.180000	49.361408
1.190000	67.418558
1.200000	128.811572
1.210000	151.147818
1.220000	151.147818
1.230000	151.147818
1.240000	145.836629
1.250000	145.222335
1.260000	122.698907
1.270000	97.002774
1.280000	91.749504
1.290000	91.749504
1.300000	91.749504
1.310000	100.235167
1.320000	119.526905
1.330000	133.216123
1.340000	150.410272
1.350000	162.183259
1.360000	198.435817
1.370000	217.990535
1.380000	253.699876
1.390000	275.660454
1.400000	286.086977
1.410000	311.431591
1.420000	321.352554
1.430000	349.412527
1.440000	375.504820
1.450000	404.495960
1.460000	404.495960
1.470000	404.495960
1.480000	383.715975
1.490000	246.814054
1.500000	42.995818
1.510000	-144.816340
1.520000	-288.843269
1.530000	-378.461532
1.540000	-412.676683
1.550000	-412.676683
1.560000	-412.676683
1.570000	-396.997394
1.580000	-354.858122
1.590000	-304.791643
1.600000	-271.424279
1.610000	-271.424279
1.620000	-271.424279
1.630000	-299.244261
1.640000	-305.216230
1.650000	-321.176658
1.660000	-321.176658
1.670000	-321.176658
1.680000	-304.725372
1.690000	-270.620623
1.700000	-244.139998
1.710000	-200.101126
1.720000	-168.677839
1.730000	-125.402893
1.740000	-55.213014
1.750000	6.184227
1.760000	44.338367
1.770000	105.967360
1.780000	145.664568
1.790000	175.937243
1.800000	230.075373
1.810000	322.883713
1.820000	401.327044
1.830000	443.943932
1.840000	448.347056
1.850000	448.347056
1.860000	448.347056
1.870000	286.660216
1.880000	101.100698
1.890000	-76.476555
1.900000	-222.141632
1.910000	-284.512315
1.920000	-326.672925
1.930000	-356.370843
1.940000	-356.370843
1.950000	-356.370843
1.960000	-316.449025
1.970000	-287.372156
1.980000	-244.502315
1.990000	-244.502315
2.000000	-244.502315
2.010000	-248.775946
2.020000	-262.459792
2.030000	-273.403188
2.040000	-273.403188
2.050000	-273.403188
2.060000	-266.238910
2.070000	-232.240097
2.080000	-189.136172
2.090000	-147.359403
2.100000	-93.946756
2.110000	-38.518468
2.120000	4.250897
2.130000	77.503234
2.140000	118.178676
2.150000	164.825678
2.160000	226.045721
2.170000	280.086117
2.180000	345.043428
2.190000	404.272196
2.200000	463.122452
2.210000	527.480493
2.220000	571.133900
2.230000	578.156506
2.240000	578.156506
2.250000	578.156506
2.260000	434.135599
2.270000	230.444278
2.280000	40.461077
2.290000	-120.407802
2.300000	-219.145889
2.310000	-280.399254
2.320000	-305.670471
2.330000	-316.426906
2.340000	-316.426906
2.350000	-316.426906
2.360000	-281.746510
2.370000	-243.255353
2.380000	-243.255353
2.390000	-243.255353
2.400000	-248.711726
2.410000	-280.999897
2.420000	-301.092157
2.430000	-301.092157
2.440000	-301.092157
2.450000	-294.820916
2.460000	-281.963430
2.470000	-255.469191
2.480000	-225.577799
2.490000	-189.064540
2.500000	-142.174922
2.510000	-96.686912
2.520000	-43.699761
2.530000	11.667548
2.540000	64.791951
2.550000	119.059045
2.560000	169.274989
2.570000	219.490673
2.580000	281.794694
2.590000	325.820133
2.600000	373.472255
2.610000	426.107286
2.620000	479.147493
2.630000	479.147493
2.640000	479.147493
2.650000	425.965406
2.660000	265.121532
2.670000	85.652373
2.680000	-67.386304
2.690000	-186.751712
2.700000	-256.858597
2.710000	-263.618489
2.720000	-263.618489
2.730000	-263.618489
2.740000	-245.832078
2.750000	-207.958333
2.760000	-152.345710
2.770000	-129.418785
2.780000	-129.418785
2.790000	-129.418785
2.800000	-141.930039
2.810000	-153.407898
2.820000	-158.671501
2.830000	-158.671501
2.840000	-158.671501
2.850000	-151.196223
2.860000	-134.923187
2.870000	-102.654902
2.880000	-76.244988
2.890000	-32.981659
2.900000	11.336807
2.910000	61.758052
2.920000	110.893505
2.930000	159.529122
2.940000	208.458978
2.950000	258.308326
2.960000	318.055836
2.970000	363.003320
2.980000	415.790840
2.990000	459.597900
3.000000	459.597900
3.010000	459.597900
3.020000	371.798561
3.030000	199.090227
3.040000	-8.875654
3.050000	-159.561320
3.060000	-272.851872
3.070000	-337.119718
3.080000	-367.896263
3.090000	-367.896263
3.100000	-367.896263
3.110000	-364.178997
3.120000	-327.874425
3.130000	-289.857364
3.140000	-264.363958
3.150000	-264.363958
3.160000	-264.363958
3.170000	-292.477180
3.180000	-304.001114
3.190000	-307.569320
3.200000	-307.569320
3.210000	-307.569320
3.220000	-282.895216
3.230000	-276.734534
3.240000	-233.839126
3.250000	-226.465076
3.260000	-171.352315
3.270000	-134.602406
3.280000	-134.602406
3.290000	-134.602406
3.300000	-514.898379
3.310000	-530.260419
3.320000	-530.260419
3.330000	-514.898379
3.340000	-457.257667
3.350000	-448.767348
3.360000	-386.870949
3.370000	-356.830201
3.380000	-308.109243
3.390000	-256.072159
3.400000	-200.302415
3.410000	-149.337040
3.420000	-111.493423
3.430000	-62.510991
3.440000	0.257550
3.450000	43.216752
3.460000	109.219628
3.470000	150.697171
3.480000	202.408746
3.490000	258.065661
3.500000	298.563368
3.510000	327.497092
3.520000	327.497092
3.530000	327.497092
3.540000	255.322013
3.550000	89.647440
3.560000	-117.122637
3.570000	-293.133200
3.580000	-407.680530
3.590000	-471.026694
3.600000	-505.271393
3.610000	-527.908109
3.620000	-535.806296
3.630000	-535.806296
3.640000	-535.806296
3.650000	-499.879249
3.660000	-499.879249
3.670000	-499.879249
3.680000	-489.846479
3.690000	-489.846479
3.700000	-437.502779
3.710000	-402.414665
3.720000	-367.913351
3.730000	-319.403007
3.740000	-259.372642
3.750000	-207.440261
3.760000	-178.821780
3.770000	-118.286035
3.780000	-99.627373
3.790000	-20.650585
3.800000	8.982944
3.810000	55.465585
3.820000	119.410801
3.830000	163.475096
3.840000	163.475096
3.850000	163.475096
3.860000	129.735828
3.870000	-8.956068
3.880000	-201.493494
3.890000	-365.977741
3.900000	-473.872268
3.910000	-541.124551
3.920000	-598.294202
3.930000	-609.090842
3.940000	-609.090842
3.950000	-609.090842
3.960000	-596.909080
3.970000	-553.280487
3.980000	-546.367941
3.990000	-543.562427
4.000000	-543.562427
4.010000	-546.367941
4.020000	-578.130814
4.030000	-578.130814
4.040000	-578.130814
4.050000	-544.449301
4.060000	-543.594160
4.070000	-495.345884
4.080000	-483.467167
4.090000	-416.765573
4.100000	182.718471
4.110000	249.572107
4.120000	269.159795
4.130000	336.834950
4.140000	365.095246
4.150000	437.564154
4.160000	457.531743
4.170000	544.884595
4.180000	544.884595
4.190000	544.884595
4.200000	466.694168
4.210000	309.798124
4.220000	98.971500
4.230000	-55.771694
4.240000	-163.080887
4.250000	-234.352887
4.260000	-279.132045
4.270000	-286.882815
4.280000	-286.882815
4.290000	-286.882815
4.300000	-269.655253
4.310000	-233.519737
4.320000	-229.103144
4.330000	-229.103144
4.340000	-229.103144
4.350000	-233.009567
4.360000	-263.175657
4.370000	-263.175657
4.380000	-263.175657
4.390000	-253.820074
4.400000	139.753010
4.410000	221.897177
4.420000	249.069588
4.430000	318.172080
4.440000	339.870532
4.450000	402.932018
4.460000	449.263971
4.470000	497.899634
4.480000	543.586540
4.490000	593.898292
4.500000	637.853940
4.510000	701.995779
4.520000	701.995779
4.530000	701.995779
4.540000	619.867045
4.550000	451.631817
4.560000	256.737976
4.570000	74.133738
4.580000	-46.365756
4.590000	-106.510530
4.600000	-139.560646
4.610000	-164.119209
4.620000	-226.837294
4.630000	-322.590455
4.640000	-338.349936
4.650000	-342.096574
4.660000	-355.874565
4.670000	-355.874565
4.680000	-388.382389
4.690000	-473.473330
4.700000	-525.577412
4.710000	-525.577412
4.720000	-525.577412
4.730000	-431.874925
4.740000	-417.894920
4.750000	-377.087365
4.760000	-259.372784
4.770000	-144.662106
4.780000	-109.847646
4.790000	-63.780614
4.800000	-31.647347
4.810000	-20.855619
4.820000	83.884610
4.830000	199.519257
4.840000	285.528027
4.850000	344.005803
4.860000	398.224217
4.870000	439.398900
4.880000	504.039389
4.890000	575.640948
4.900000	646.874297
4.910000	722.911842
4.920000	775.612188
4.930000	775.612188
4.940000	775.612188
4.950000	759.758192
4.960000	582.834222
4.970000	396.267414
4.980000	246.504668
4.990000	153.698566
5.000000	79.007166
5.010000	38.273938
5.020000	14.413178
5.030000	5.529966
5.040000	5.529966
5.050000	5.529966
5.060000	32.100684
5.070000	32.100684
5.080000	32.100684
5.090000	29.792341
5.100000	2.930455
5.110000	-12.279901
5.120000	-14.141930
5.130000	-14.141930
5.140000	-12.279901
5.150000	1.320702
5.160000	26.172302
5.170000	47.901681
5.180000	88.574378
5.190000	126.354891
5.200000	186.097430
5.210000	242.663462
5.220000	290.667335
5.230000	341.009294
5.240000	379.159853
5.250000	433.465270
5.260000	484.513506
5.270000	527.954844
5.280000	568.885248
5.290000	622.464120
5.300000	622.464120
5.310000	622.464120
5.320000	528.797652
5.330000	368.894476
5.340000	160.509602
5.350000	11.267911
5.360000	-93.121927
5.370000	-164.360274
5.380000	-164.360274
5.390000	-164.360274
5.400000	-152.998582
5.410000	-133.432135
5.420000	-122.861852
5.430000	-103.803102
5.440000	-70.767553
5.450000	-35.230245
5.460000	0.341799
5.470000	43.359952
5.480000	92.417038
5.490000	122.876354
5.500000	187.695298
5.510000	236.097645
5.520000	296.179886
5.530000	342.160549
5.540000	424.864366
5.550000	444.799977
5.560000	510.108392
5.570000	510.108392
5.580000	510.108392
5.590000	450.400371
5.600000	-236.776934
5.610000	-274.893644
5.620000	-275.313402
5.630000	-275.313402
5.640000	-277.526264
5.650000	-316.743184
5.660000	-321.258791
5.670000	-323.408598
5.680000	-323.408598
5.690000	-321.258791
5.700000	97.346820
5.710000	145.748137
5.720000	181.395823
5.730000	243.191657
5.740000	271.160397
5.750000	271.160397
5.760000	271.160397
5.770000	226.830422
5.780000	85.005499
5.790000	-92.238981
5.800000	-244.465831
5.810000	-350.429702
5.820000	-413.017235
5.830000	-447.668815
5.840000	-447.668815
5.850000	-447.668815
5.860000	-442.111409
5.870000	-394.076942
5.880000	-360.938559
5.890000	-360.938559
5.900000	-360.938559
5.910000	-373.818829
5.920000	-380.029649
5.930000	-413.823662
5.940000	-413.823662
5.950000	-413.823662
5.960000	-412.414844
5.970000	-398.353462
5.980000	-384.051548
5.990000	-353.658048
6.000000	-330.812266
6.010000	-281.820790
6.020000	-239.772103
6.030000	-190.870528
6.040000	-124.757214
6.050000	-101.128581
6.060000	-63.439026
6.070000	0.475437
6.080000	48.714574
6.090000	103.238691
6.100000	153.763387
6.110000	153.763387
6.120000	153.763387
6.130000	144.833886
6.140000	9.716583
6.150000	-147.405231
6.160000	-315.271783
6.170000	-435.531698
6.180000	-506.432360
6.190000	-543.723060
6.200000	-562.841269
6.210000	-562.841269
6.220000	-562.841269
6.230000	-525.965256
6.240000	-487.232781
6.250000	-463.177112
6.260000	-463.177112
6.270000	-463.177112
6.280000	-486.832643
6.290000	-490.338494
6.300000	-493.498272
6.310000	-493.498272
6.320000	-493.498272
6.330000	-471.837200
6.340000	-451.727777
6.350000	-436.200294
6.360000	-404.910549
6.370000	-361.647147
6.380000	-329.162893
6.390000	-281.979019
6.400000	-224.514847
6.410000	-181.383849
6.420000	-134.767752
6.430000	-77.836351
6.440000	-29.107767
6.450000	36.814278
6.460000	77.348032
6.470000	116.630680
6.480000	180.791833
6.490000	180.791833
6.500000	180.791833
6.510000	122.773707
6.520000	-42.178940
6.530000	-228.461279
6.540000	-389.733011
6.550000	-523.835071
6.560000	-597.218325
6.570000	-651.432582
6.580000	-684.601815
6.590000	-703.070108
6.600000	-703.070108
6.610000	-703.070108
6.620000	-681.378471
6.630000	-670.148108
6.640000	-670.148108
6.650000	-670.148108
6.660000	-690.249014
6.670000	-719.780319
6.680000	-740.726691
6.690000	-740.726691
6.700000	-740.726691
6.710000	-734.305217
6.720000	-711.550757
6.730000	-675.167911
6.740000	-659.042158
6.750000	-625.851719
6.760000	-560.611515
6.770000	-517.742672
6.780000	-487.019739
6.790000	-437.593310
6.800000	-387.578679
6.810000	-334.403255
6.820000	-283.174737
6.830000	-214.160892
6.840000	-171.963300
6.850000	-125.726978
6.860000	-59.809230
6.870000	-12.456546
6.880000	19.443078
6.890000	74.897232
6.900000	114.464792
6.910000	153.386184
6.920000	153.386184
6.930000	153.386184
6.940000	41.411282
6.950000	-129.763553
6.960000	-311.575828
6.970000	-461.277943
6.980000	-543.597700
6.990000	-601.020014
7.000000	-641.538839
7.010000	-657.733628
7.020000	-670.571704
7.030000	-670.571704
7.040000	-670.571704
7.050000	-642.325806
7.060000	-642.325806
7.070000	-642.325806
7.080000	-646.330206
7.090000	-656.921064
7.100000	-670.412948
7.110000	-689.654166
7.120000	-689.654166
7.130000	-689.654166
7.140000	-666.226467
7.150000	-646.634587
7.160000	-620.082690
7.170000	-583.648054
7.180000	-533.948886
7.190000	-502.769146
7.200000	-457.649476
7.210000	-393.977366
7.220000	-349.476787
7.230000	-301.028711
7.240000	-246.371412
7.250000	-195.122502
7.260000	-151.260154
7.270000	-101.177384
7.280000	-49.207346
7.290000	12.793039
7.300000	56.737210
7.310000	99.879466
7.320000	159.674004
7.330000	201.815637
7.340000	253.772584
7.350000	316.671796
7.360000	362.784458
7.370000	362.784458
7.380000	362.784458
7.390000	296.870869
7.400000	151.288085
7.410000	-35.998309
7.420000	-188.729427
7.430000	-278.003567
7.440000	-349.958851
7.450000	-386.838943
7.460000	-410.301935
7.470000	-410.301935
7.480000	-410.301935
7.490000	-393.475666
7.500000	-384.073899
7.510000	-384.073899
7.520000	-384.073899
7.530000	-385.532999
7.540000	-415.362950
7.550000	-431.959533
7.560000	-454.206130
7.570000	-454.206130
7.580000	-454.206130
7.590000	-434.229982
7.600000	-420.460502
7.610000	-380.038874
7.620000	-355.945468
7.630000	-325.669458
7.640000	-298.519148
7.650000	-247.200580
7.660000	-207.266255
7.670000	-149.554520
7.680000	-129.245318
7.690000	-59.518492
7.700000	413.509342
7.710000	478.317136
7.720000	478.317136
7.730000	478.317136
7.740000	417.190330
7.750000	283.577667
7.760000	115.610524
7.770000	9.248408
7.780000	-89.378567
7.790000	-127.786267
7.800000	-135.590432
7.810000	-135.590432
7.820000	-135.590432
7.830000	-127.592149
7.840000	-94.266865
7.850000	-49.244216
7.860000	-42.550381
7.870000	-42.550381
7.880000	-42.550381
7.890000	-66.183814
7.900000	-66.183814
7.910000	-66.183814
7.920000	-64.682263
7.930000	-46.373277
7.940000	-40.119274
7.950000	-16.951475
7.960000	21.365998
7.970000	54.426067
7.980000	79.908142
7.990000	134.919349
8.000000	154.176763
8.010000	210.800716
8.020000	250.102548
8.030000	299.917190
8.040000	360.962551
8.050000	404.962974
8.060000	456.978232
8.070000	503.913393
8.080000	555.065082
8.090000	588.788735
8.100000	630.290751
8.110000	689.632851
8.120000	724.382837
8.130000	768.698144
8.140000	830.413663
8.150000	830.413663
8.160000	830.413663
8.170000	735.651633
8.180000	606.693931
8.190000	446.565740
8.200000	308.069983
8.210000	222.433016
8.220000	168.434101
8.230000	168.314268
8.240000	156.994772
8.250000	156.994772
8.260000	156.994772
8.270000	185.444853
8.280000	220.593570
8.290000	242.197374
8.300000	242.197374
8.310000	242.197374
8.320000	225.594901
8.330000	211.893418
8.340000	202.128208
8.350000	202.128208
8.360000	202.128208
8.370000	209.629900
8.380000	239.717908
8.390000	283.127583
8.400000	795.899675
8.410000	851.844698
8.420000	899.874247
8.430000	950.373502
8.440000	1007.848953
8.450000	1058.869460
8.460000	1107.889337
8.470000	1141.332577
8.480000	1141.332577
8.490000	1141.332577
8.500000	542.057995
8.510000	537.309383
8.520000	537.309383
8.530000	537.309383
8.540000	537.309383
8.550000	526.101054
8.560000	515.837863
8.570000	478.521222
8.580000	478.521222
8.590000	478.521222
8.600000	483.730791
8.610000	506.174502
8.620000	532.135265
8.630000	564.598673
8.640000	610.568852
8.650000	649.966583
8.660000	667.032478
8.670000	736.601535
8.680000	764.048926
8.690000	816.699586
8.700000	1302.017915
8.710000	1344.026646
8.720000	1344.026646
8.730000	1344.026646
8.740000	1223.556560
8.750000	1080.089778
8.760000	909.540344
8.770000	789.395305
8.780000	694.259878
8.790000	667.909104
8.800000	639.964238
8.810000	639.964238
8.820000	639.964238
8.830000	674.629725
8.840000	692.203035
8.850000	693.651526
8.860000	693.651526
8.870000	693.651526
8.880000	651.706884
8.890000	638.776405
8.900000	595.730529
8.910000	570.212110
8.920000	558.630939
8.930000	548.638662
8.940000	545.632895
8.950000	544.960716
8.960000	472.555386
8.970000	387.630313
8.980000	328.439681
8.990000	296.654245
9.000000	296.654245
9.010000	296.654245
9.020000	303.172887
9.030000	327.727913
9.040000	408.752485
9.050000	541.699594
9.060000	697.280063
9.070000	851.702182
9.080000	1022.938024
9.090000	1154.515845
9.100000	1172.656427
9.110000	1172.656427
9.120000	1172.656427
9.130000	1166.424567
9.140000	1158.272737
9.150000	1079.899433
9.160000	892.512059
9.170000	703.830805
9.180000	544.424057
9.190000	424.720679
9.200000	340.308903
9.210000	315.703400
9.220000	310.650891
9.230000	309.840548
9.240000	309.840548
9.250000	310.650891
9.260000	353.451023
9.270000	401.998357
9.280000	401.998357
9.290000	401.998357
9.300000	392.136485
9.310000	343.206753
9.320000	322.028250
9.330000	298.175197
9.340000	298.175197
9.350000	298.175197
9.360000	302.042597
9.370000	334.155751
9.380000	352.925911
9.390000	377.327402
9.400000	411.778222
9.410000	467.526535
9.420000	498.481513
9.430000	533.940936
9.440000	567.093574
9.450000	615.429764
9.460000	668.636685
9.470000	701.885865
9.480000	760.379004
9.490000	807.122797
9.500000	840.224030
9.510000	840.224030
9.520000	840.224030
9.530000	749.075799
9.540000	592.193327
9.550000	419.901351
9.560000	272.597455
9.570000	163.656859
9.580000	163.656859
9.590000	163.656859
9.600000	224.800941
9.610000	284.859358
9.620000	322.733046
9.630000	375.169368
9.640000	419.503880
9.650000	472.589493
9.660000	514.174049
9.670000	514.174049
9.680000	514.174049
9.690000	482.753207
9.700000	330.123646
9.710000	137.514672
9.720000	-48.363262
9.730000	-184.735834
9.740000	-288.014239
9.750000	-360.950688
9.760000	-403.660190
9.770000	-432.551706
9.780000	-432.551706
9.790000	-432.551706
9.800000	-397.759701
9.810000	-388.363709
9.820000	-388.363709
9.830000	-388.363709
9.840000	-404.624796
9.850000	-439.999087
9.860000	-470.825924
9.870000	-490.894865
9.880000	-490.894865
9.890000	-490.894865
9.900000	-483.646434
9.910000	-464.012636
9.920000	-452.356245
9.930000	-415.160434
9.940000	-386.259163
9.950000	-358.203271
9.960000	-306.122959
9.970000	-286.478508
9.980000	-286.478508
9.990000	-286.478508
10.000000	-660.190758
10.010000	-785.426666
10.020000	-860.722719
10.030000	-913.012885
10.040000	-933.166663
10.050000	-950.945973
10.060000	-950.945973
10.070000	-950.945973
10.080000	-941.989506
10.090000	-941.989506
10.100000	-941.989506
10.110000	-957.441159
10.120000	-987.041262
10.130000	-1026.543911
10.140000	-1038.013994
10.150000	-1038.013994
10.160000	-1038.013994
10.170000	-1019.103056
10.180000	-1018.042208
10.190000	-981.042165
10.200000	-572.446192
10.210000	-515.905618
10.220000	-495.008609
10.230000	-451.493311
10.240000	-451.493311
10.250000	-451.493311
10.260000	-568.767926
10.270000	-726.349934
10.280000	-900.841361
10.290000	-1031.514429
10.300000	-1133.138444
10.310000	-1191.616067
10.320000	-1214.511578
10.330000	-1214.511578
10.340000	-1214.511578
10.350000	-1212.866223
10.360000	-1192.451170
10.370000	-1165.123386
10.380000	-1165.123386
10.390000	-1165.123386
10.400000	-1205.630563
10.410000	-1224.384690
10.420000	-1245.059447
10.430000	-1260.731585
10.440000	-1260.731585
10.450000	-1260.731585
10.460000	-1256.190429
10.470000	-1255.742169
10.480000	-1227.823878
10.490000	-1186.896811
10.500000	-1145.469608
10.510000	-1116.069136
10.520000	-1080.047326
10.530000	-1036.307251
10.540000	-996.678099
10.550000	-943.481834
10.560000	-909.464831
10.570000	-843.443308
10.580000	-811.591246
10.590000	-761.095262
10.600000	-729.984385
10.610000	-719.104471
10.620000	-719.104471
10.630000	-719.104471
10.640000	-859.119756
10.650000	-1011.361192
10.660000	-1176.908209
10.670000	-1255.355772
10.680000	-1255.355772
10.690000	-1255.355772
10.700000	-980.713095
10.710000	-912.521264
10.720000	-856.589493
10.730000	-785.725987
10.740000	-740.668135
10.750000	-688.744601
10.760000	-649.906660
10.770000	-572.581954
10.780000	-552.564952
10.790000	-498.921279
10.800000	-498.921279
10.810000	-498.921279
10.820000	-573.663274
10.830000	-727.353065
10.840000	-917.910378
10.850000	-1058.199147
10.860000	-1150.416353
10.870000	-1209.092407
10.880000	-1245.927646
10.890000	-1275.005083
10.900000	-1275.005083
10.910000	-1275.005083
10.920000	-1274.854604
10.930000	-1247.009622
10.940000	-1239.583393
10.950000	-1239.583393
10.960000	-1239.583393
10.970000	-1244.160562
10.980000	-1273.143365
10.990000	-1273.143365
11.000000	-1273.143365
11.010000	-1267.738738
11.020000	-1246.632985
11.030000	-1203.513002
11.040000	-1171.496391
11.050000	-1124.131952
11.060000	-1086.509302
11.070000	-1029.609875
11.080000	-971.659191
11.090000	-935.059925
11.100000	-935.059925
11.110000	-932.007331
11.120000	-932.007331
11.130000	-917.977316
11.140000	-906.417228
11.150000	-874.738347
11.160000	-874.738347
11.170000	-874.738347
11.180000	-867.399857
11.190000	-862.320261
11.200000	-593.984762
11.210000	-531.281471
11.220000	-488.524710
11.230000	-417.246322
11.240000	-367.335358
11.250000	-317.014434
11.260000	-271.219012
11.270000	-206.704322
11.280000	-171.296578
11.290000	-131.168186
11.300000	-90.476250
11.310000	-34.577723
11.320000	5.221035
11.330000	68.210269
11.340000	130.749577
11.350000	187.051867
11.360000	237.299554
11.370000	266.098783
11.380000	266.098783
11.390000	266.098783
11.400000	142.828816
11.410000	-6.611473
11.420000	-137.908109
11.430000	-230.378343
11.440000	-268.650872
11.450000	-280.275001
11.460000	-283.258837
11.470000	-283.258837
11.480000	-280.275001
11.490000	-250.119871
11.500000	-213.533992
11.510000	-197.705624
11.520000	-197.705624
11.530000	-197.705624
11.540000	-211.814479
11.550000	-221.477502
11.560000	-221.477502
11.570000	-221.477502
11.580000	-207.139054
11.590000	-182.959150
11.600000	-160.670757
11.610000	-130.732511
11.620000	-93.211569
11.630000	-54.505492
11.640000	-20.733362
11.650000	31.822218
11.660000	95.678383
11.670000	150.133341
11.680000	186.142352
11.690000	254.629868
11.700000	302.341366
11.710000	354.363231
11.720000	411.495827
11.730000	458.074002
11.740000	501.737408
11.750000	541.785454
11.760000	603.073243
11.770000	652.361882
11.780000	712.588371
11.790000	762.843347
11.800000	795.164986
11.810000	795.164986
11.820000	795.164986
11.830000	719.370428
11.840000	585.778673
11.850000	471.418758
11.860000	396.029457
11.870000	372.391218
11.880000	363.545045
11.890000	363.545045
11.900000	372.391218
11.910000	389.821952
11.920000	424.466136
11.930000	472.371142
11.940000	477.034622
11.950000	495.300708
11.960000	495.300708
11.970000	482.957997
11.980000	482.957997
11.990000	500.221060
12.000000	818.938055
12.010000	873.319844
12.020000	908.054405
12.030000	973.135033
12.040000	1015.924749
12.050000	1085.265186
12.060000	1117.522781
12.070000	1164.750048
12.080000	1208.965781
12.090000	1261.352675
12.100000	1304.367885
12.110000	1349.072195
12.120000	1349.072195
12.130000	1349.072195
12.140000	1308.899524
12.150000	1196.168248
12.160000	1017.781814
12.170000	890.935542
12.180000	796.329621
12.190000	746.831864
12.200000	701.089938
12.210000	701.089938
12.220000	701.089938
12.230000	702.801888
12.240000	712.557687
12.250000	761.815205
12.260000	761.815205
12.270000	761.815205
12.280000	767.015437
12.290000	781.246469
12.300000	1261.703815
12.310000	1325.832693
12.320000	1341.929849
12.330000	1396.848759
12.340000	1419.766908
12.350000	1419.766908
12.360000	1419.766908
12.370000	1341.247172
12.380000	1178.281311
12.390000	1023.600769
12.400000	860.196690
12.410000	756.233478
12.420000	696.929553
12.430000	670.920992
12.440000	647.655246
12.450000	639.772781
12.460000	639.772781
12.470000	639.772781
12.480000	665.150317
12.490000	665.150317
12.500000	665.150317
12.510000	640.270856
12.520000	604.349423
12.530000	571.999022
12.540000	557.618563
12.550000	532.119868
12.560000	532.119868
12.570000	532.119868
12.580000	542.871093
12.590000	555.491995
12.600000	578.582986
12.610000	592.854868
12.620000	621.393906
12.630000	647.218870
12.640000	693.285594
12.650000	695.623805
12.660000	723.462330
12.670000	748.659357
12.680000	748.659357
12.690000	723.462330
12.700000	65.940660
12.710000	-14.094282
12.720000	-15.222685
12.730000	-15.222685
12.740000	-84.823320
12.750000	-148.392958
12.760000	-177.459180
12.770000	-200.175330
12.780000	-200.175330
12.790000	-200.175330
12.800000	-130.755064
12.810000	-90.900166
12.820000	-18.586689
12.830000	11.045430
12.840000	82.066141
12.850000	157.706317
12.860000	210.792520
12.870000	243.495000
12.880000	321.741223
12.890000	368.939460
12.900000	449.123388
12.910000	513.120217
12.920000	572.720219
12.930000	628.316898
12.940000	695.405750
12.950000	695.405750
12.960000	695.405750
12.970000	639.994747
12.980000	496.547925
12.990000	346.525676
13.000000	219.220104
13.010000	105.999519
13.020000	48.076224
13.030000	24.349219
13.040000	0.944230
13.050000	0.944230
13.060000	0.944230
13.070000	14.460850
13.080000	47.742467
13.090000	47.742467
13.100000	47.742467
13.110000	44.507425
13.120000	18.966770
13.130000	-7.822298
13.140000	-15.870245
13.150000	-15.870245
13.160000	-15.870245
13.170000	-13.813729
13.180000	-3.887200
13.190000	18.612401
13.200000	37.699849
13.210000	66.163881
13.220000	125.356700
13.230000	164.563665
13.240000	199.241497
13.250000	230.971501
13.260000	275.210526
13.270000	335.392394
13.280000	367.094147
13.290000	433.153877
13.300000	433.153877
13.310000	433.153877
13.320000	395.279330
13.330000	249.115821
13.340000	77.108902
13.350000	-71.832057
13.360000	-178.096392
13.370000	-231.761001
13.380000	-275.400394
13.390000	-310.531758
13.400000	-310.531758
13.410000	-310.531758
13.420000	-287.783420
13.430000	-263.124159
13.440000	-240.765194
13.450000	-240.765194
13.460000	-240.765194
13.470000	-265.661605
13.480000	-283.594115
13.490000	-294.104755
13.500000	-294.104755
13.510000	-294.104755
13.520000	-283.358170
13.530000	-268.534030
13.540000	-228.265677
13.550000	-212.113436
13.560000	-172.862743
13.570000	-119.803424
13.580000	-78.459814
13.590000	-46.371995
13.600000	23.109011
13.610000	80.840836
13.620000	107.805048
13.630000	166.321516
13.640000	225.288916
13.650000	277.913350
13.660000	314.810031
13.670000	356.632018
13.680000	356.632018
13.690000	356.632018
13.700000	258.887271
13.710000	106.176820
13.720000	-76.592494
13.730000	-206.667823
13.740000	-308.322148
13.750000	-375.384825
13.760000	-418.052772
13.770000	-447.059356
13.780000	-464.716358
13.790000	-464.716358
13.800000	-464.716358
13.810000	-444.957807
13.820000	-444.957807
13.830000	-444.957807
13.840000	-489.433184
13.850000	-498.091966
13.860000	-531.446735
13.870000	-546.899224
13.880000	-546.899224
13.890000	-546.899224
13.900000	-267.295998
13.910000	-202.919423
13.920000	-179.946423
13.930000	-139.783738
13.940000	-94.747900
13.950000	-59.611083
13.960000	-59.611083
13.970000	-59.611083
13.980000	-107.283615
13.990000	-261.989673
14.000000	-457.999066
14.010000	-626.410709
14.020000	-730.759807
14.030000	-796.959255
14.040000	-825.406631
14.050000	-827.494136
14.060000	-827.494136
14.070000	-827.494136
14.080000	-813.637944
14.090000	-785.444315
14.100000	-785.444315
14.110000	-785.444315
14.120000	-844.474309
14.130000	-856.935508
14.140000	-888.419191
14.150000	-908.234099
14.160000	-908.234099
14.170000	-908.234099
14.180000	-897.703202
14.190000	-889.790979
14.200000	-861.959044
14.210000	-827.011290
14.220000	-784.132395
14.230000	-762.268137
14.240000	-699.009501
14.250000	-686.905124
14.260000	-621.299375
14.270000	-589.022305
14.280000	-589.022305
14.290000	-589.022305
14.300000	-1014.952831
14.310000	-1078.488022
14.320000	-1082.973135
14.330000	-1082.973135
14.340000	-1078.759354
14.350000	-1078.759354
14.360000	-1031.864848
14.370000	-1031.864848
14.380000	-1031.864848
14.390000	-1034.900554
14.400000	-1062.613294
14.410000	-1093.093506
14.420000	-1093.093506
14.430000	-1093.093506
14.440000	-1079.354824
14.450000	-1065.943042
14.460000	-1053.488909
14.470000	-1037.012046
14.480000	-989.512592
14.490000	-953.221003
14.500000	-917.340161
14.510000	-865.363524
14.520000	-808.191963
14.530000	-767.484255
14.540000	-710.843659
14.550000	-671.733934
14.560000	-628.291141
14.570000	-584.000669
14.580000	-532.659125
14.590000	-498.297235
14.600000	-448.819418
14.610000	-423.155783
14.620000	-423.155783
14.630000	-423.155783
14.640000	-557.762094
14.650000	-744.488105
14.660000	-929.498689
14.670000	-1070.797038
14.680000	-1148.239049
14.690000	-1223.273460
14.700000	-1387.003882
14.710000	-1387.101740
14.720000	-1387.101740
14.730000	-1387.101740
14.740000	-1369.440139
14.750000	-1362.090236
14.760000	-1310.120930
14.770000	-1278.249281
14.780000	-1246.758605
14.790000	-1183.985177
14.800000	-1134.544722
14.810000	-1087.506994
14.820000	-1023.244972
14.830000	-965.084334
14.840000	-920.839696
14.850000	-876.538427
14.860000	-816.365465
14.870000	-763.033955
14.880000	-698.714996
14.890000	-653.595972
14.900000	-610.869555
14.910000	-566.125628
14.920000	-498.913127
14.930000	-434.713992
14.940000	-389.863602
14.950000	-333.103133
14.960000	-333.103133
14.970000	-333.103133
14.980000	-382.782891
14.990000	-545.588073
15.000000	-736.777150
15.010000	-893.424228
15.020000	-1000.831608
15.030000	-1060.231324
15.040000	-1122.950290
15.050000	-1148.712899
15.060000	-1160.167300
15.070000	-1160.167300
15.080000	-1160.167300
15.090000	-1157.677122
15.100000	-1157.677122
15.110000	-1157.677122
15.120000	-1158.041376
15.130000	-1181.970450
15.140000	-1191.793579
15.150000	-1196.998352
15.160000	-1196.998352
15.170000	-1191.793579
15.180000	-1163.402128
15.190000	-1139.086755
15.200000	-1105.734737
15.210000	-1070.218987
15.220000	-1018.926522
15.230000	-986.398228
15.240000	-919.792357
15.250000	-881.808162
15.260000	-815.241509
15.270000	-767.417118
15.280000	-756.623045
15.290000	-756.623045
15.300000	-756.623045
15.310000	-764.862395
15.320000	-771.463235
15.330000	-771.463235
15.340000	-771.463235
15.350000	-748.611353
15.360000	-728.246964
15.370000	-712.841357
15.380000	-676.857501
15.390000	-648.120888
15.400000	-587.185457
15.410000	-548.559877
15.420000	-501.178997
15.430000	-437.964578
15.440000	-385.163104
15.450000	-342.193839
15.460000	-278.963597
15.470000	-227.490336
15.480000	-169.521860
15.490000	-120.775170
15.500000	-69.900012
15.510000	-26.009631
15.520000	42.942267
15.530000	72.599322
15.540000	146.299199
15.550000	190.888267
15.560000	253.096015
15.570000	253.096015
15.580000	253.096015
15.590000	155.392124
15.600000	-17.714077
15.610000	-17.714077
15.620000	-17.714077
15.630000	21.798619
15.640000	77.021344
15.650000	126.994742
15.660000	191.988642
15.670000	249.191980
15.680000	317.189875
15.690000	365.375142
15.700000	419.668199
15.710000	484.622246
15.720000	552.235459
15.730000	583.909523
15.740000	649.224836
15.750000	698.996381
15.760000	749.520622
15.770000	798.158567
15.780000	845.954631
15.790000	845.954631
15.800000	845.954631
15.810000	735.804761
15.820000	568.308358
15.830000	390.259111
15.840000	261.395969
15.850000	171.655111
15.860000	136.688314
15.870000	90.962970
15.880000	84.190558
15.890000	84.190558
15.900000	84.190558
15.910000	110.786158
15.920000	150.068629
15.930000	169.571085
15.940000	169.571085
15.950000	169.571085
15.960000	154.083220
15.970000	149.696103
15.980000	149.228919
15.990000	149.228919
16.000000	149.228919
16.010000	172.937230
16.020000	220.366020
16.030000	247.716574
16.040000	298.891183
16.050000	341.434098
16.060000	399.721058
16.070000	453.177497
16.080000	492.732575
16.090000	557.203178
16.100000	630.745424
16.110000	694.372391
16.120000	747.962953
16.130000	806.737302
16.140000	858.258775
16.150000	907.304432
16.160000	965.729659
16.170000	1019.958010
16.180000	1078.417952
16.190000	1122.695498
16.200000	1195.432232
16.210000	1262.380751
16.220000	1313.673063
16.230000	1369.308264
16.240000	1430.021843
16.250000	1442.528483
16.260000	1442.528483
16.270000	1442.528483
16.280000	1305.396541
16.290000	1140.705909
16.300000	941.452040
16.310000	816.366235
16.320000	750.332969
16.330000	691.090678
16.340000	656.573387
16.350000	650.047014
16.360000	650.047014
16.370000	650.047014
16.380000	673.072686
16.390000	691.290017
16.400000	708.269102
16.410000	724.430222
16.420000	762.272586
16.430000	802.882222
16.440000	852.449433
16.450000	917.507627
16.460000	970.706175
16.470000	1027.423845
16.480000	1090.101321
16.490000	1144.468586
16.500000	1197.730344
16.510000	1238.638005
16.520000	1302.663510
16.530000	1316.685440
16.540000	1363.200814
16.550000	1402.574587
16.560000	1447.058215
16.570000	1476.552888
16.580000	1522.234865
16.590000	1522.234865
16.600000	1522.234865
16.610000	1493.475218
16.620000	1379.642409
16.630000	1197.443238
16.640000	1053.114135
16.650000	908.194878
16.660000	828.052410
16.670000	708.662988
16.680000	624.663432
16.690000	494.885532
16.700000	-74.422445
16.710000	-101.380055
16.720000	-101.380055
16.730000	-74.422445
16.740000	-70.640472
16.750000	-30.640158
16.760000	79.643066
16.770000	120.218523
16.780000	184.753548
16.790000	234.900112
16.800000	321.294241
16.810000	441.622390
16.820000	569.956504
16.830000	646.438214
16.840000	727.124178
16.850000	818.304692
16.860000	921.466297
16.870000	1014.293730
16.880000	1104.077952
16.890000	1163.375869
16.900000	1191.819281
16.910000	1191.819281
16.920000	1191.819281
16.930000	1072.399765
16.940000	907.849219
16.950000	764.457607
16.960000	671.969060
16.970000	609.567087
16.980000	609.567087
16.990000	609.567087
17.000000	937.708649
17.010000	1028.895023
17.020000	1078.565163
17.030000	1182.736281
17.040000	1237.063338
17.050000	1310.244975
17.060000	1358.444764
17.070000	1358.444764
17.080000	1358.444764
17.090000	1246.294405
17.100000	1061.611403
17.110000	868.469618
17.120000	697.688710
17.130000	593.876072
17.140000	538.786880
17.150000	521.496236
17.160000	513.029191
17.170000	513.029191
17.180000	513.029191
17.190000	543.230225
17.200000	580.401995
17.210000	580.401995
17.220000	580.401995
17.230000	570.533031
17.240000	548.842943
17.250000	510.732697
17.260000	510.732697
17.270000	510.732697
17.280000	510.677481
17.290000	500.846083
17.300000	258.288252
17.310000	258.288252
17.320000	258.288252
17.330000	278.297200
17.340000	343.213799
17.350000	372.790514
17.360000	417.694156
17.370000	445.250216
17.380000	498.578024
17.390000	540.685268
17.400000	585.797991
17.410000	632.272193
17.420000	679.215518
17.430000	700.986669
17.440000	757.327866
17.450000	757.327866
17.460000	757.327866
17.470000	624.105114
17.480000	449.051860
17.490000	290.918473
