Time(s)	GREEN_denoised_wiener
0.000000	-154.063368
0.010000	-296.598668
0.020000	-438.486902
0.030000	-609.830448
0.040000	-777.068239
0.050000	-916.124163
0.060000	-1018.395297
0.070000	-1083.811872
0.080000	-1120.783529
0.090000	-1137.203368
0.100000	-1138.537617
0.110000	-1128.295989
0.120000	-1111.001622
0.130000	-1095.107163
0.140000	-1087.168799
0.150000	-1089.950249
0.160000	-1100.028586
0.170000	-1110.159709
0.180000	-1115.940305
0.190000	-1114.417869
0.200000	-1104.903536
0.210000	-1088.727443
0.220000	-1063.569843
0.230000	-1030.092198
0.240000	-988.281844
0.250000	-942.851354
0.260000	-895.367167
0.270000	-846.323396
0.280000	-794.497465
0.290000	-740.517398
0.300000	-688.020089
0.310000	-638.423212
0.320000	-591.255938
0.330000	-542.705429
0.340000	-493.557165
0.350000	-444.373609
0.360000	-392.570149
0.370000	-336.765984
0.380000	-282.991530
0.390000	-252.588938
0.400000	-276.494934
0.410000	-371.763246
0.420000	-525.974016
0.430000	-704.600607
0.440000	-870.169247
0.450000	-1002.877884
0.460000	-1096.125914
0.470000	-1153.575654
0.480000	-1184.824975
0.490000	-1195.990399
0.500000	-1190.242924
0.510000	-1171.802102
0.520000	-1149.401106
0.530000	-1133.346380
0.540000	-1129.943631
0.550000	-1136.261022
0.560000	-1146.541193
0.570000	-1155.239434
0.580000	-1160.211664
0.590000	-1159.615953
0.600000	-1152.281623
0.610000	-1136.054443
0.620000	-1113.429378
0.630000	-1083.883349
0.640000	-1048.981913
0.650000	-1009.442636
0.660000	-967.605273
0.670000	-925.066570
0.680000	-882.626780
0.690000	-837.748644
0.700000	-790.055161
0.710000	-741.170786
0.720000	-693.888278
0.730000	-648.320715
0.740000	-604.790731
0.750000	-562.202450
0.760000	-516.755064
0.770000	-467.494915
0.780000	-424.151915
0.790000	-414.239663
0.800000	-464.617331
0.810000	-583.002455
0.820000	-746.402606
0.830000	-917.797842
0.840000	-1064.270517
0.850000	-1172.050763
0.860000	-1240.579892
0.870000	-1277.732255
0.880000	-1293.634418
0.890000	-1292.135685
0.900000	-1275.089514
0.910000	-1247.621018
0.920000	-1219.630836
0.930000	-1201.514336
0.940000	-1193.216923
0.950000	-1192.809473
0.960000	-1197.206963
0.970000	-1201.172648
0.980000	-1197.599291
0.990000	-1184.624457
1.000000	-1162.070608
1.010000	-1131.823082
1.020000	-1094.947604
1.030000	-1053.766531
1.040000	-1012.571484
1.050000	-969.434467
1.060000	-920.932915
1.070000	-866.852953
1.080000	-808.707569
1.090000	-751.690097
1.100000	-695.876782
1.110000	-640.600540
1.120000	-586.792447
1.130000	-534.584233
1.140000	-484.785465
1.150000	-433.630894
1.160000	-378.523932
1.170000	-321.432368
1.180000	-278.376640
1.190000	-277.676631
1.200000	-340.619067
1.210000	-465.266171
1.220000	-624.200601
1.230000	-781.240751
1.240000	-909.216017
1.250000	-994.662123
1.260000	-1041.354609
1.270000	-1057.839095
1.280000	-1053.237281
1.290000	-1030.742275
1.300000	-995.868806
1.310000	-959.068137
1.320000	-929.238498
1.330000	-914.801757
1.340000	-914.323479
1.350000	-921.932174
1.360000	-928.140797
1.370000	-926.479756
1.380000	-916.383147
1.390000	-897.102253
1.400000	-869.705832
1.410000	-836.135746
1.420000	-798.437315
1.430000	-756.237687
1.440000	-709.912517
1.450000	-661.084618
1.460000	-610.794244
1.470000	-558.334768
1.480000	-504.755365
1.490000	-450.658144
1.500000	-398.462477
1.510000	-347.380254
1.520000	-297.245382
1.530000	-246.840099
1.540000	-191.760027
1.550000	-133.055283
1.560000	-74.021063
1.570000	-32.717778
1.580000	-33.038071
1.590000	-95.778252
1.600000	-217.728825
1.610000	-370.174883
1.620000	-519.144544
1.630000	-637.997580
1.640000	-716.344018
1.650000	-754.588903
1.660000	-764.313013
1.670000	-754.912901
1.680000	-730.004647
1.690000	-694.311626
1.700000	-655.776643
1.710000	-623.451411
1.720000	-603.612187
1.730000	-596.646011
1.740000	-598.172109
1.750000	-601.237499
1.760000	-598.802219
1.770000	-589.581692
1.780000	-570.497434
1.790000	-539.999914
1.800000	-500.272525
1.810000	-454.156020
1.820000	-407.792549
1.830000	-361.364742
1.840000	-314.713732
1.850000	-267.307647
1.860000	-218.703476
1.870000	-170.658019
1.880000	-121.752363
1.890000	-75.422694
1.900000	-30.188483
1.910000	13.740816
1.920000	57.645881
1.930000	104.508955
1.940000	155.408536
1.950000	209.873255
1.960000	251.728711
1.970000	254.142495
1.980000	193.993520
1.990000	73.750017
2.000000	-77.065807
2.010000	-220.684692
2.020000	-333.896447
2.030000	-410.898313
2.040000	-456.152823
2.050000	-477.184324
2.060000	-480.135822
2.070000	-467.858143
2.080000	-443.516298
2.090000	-414.272650
2.100000	-389.298425
2.110000	-376.078415
2.120000	-372.449697
2.130000	-373.939895
2.140000	-373.656127
2.150000	-368.205877
2.160000	-356.262863
2.170000	-334.527476
2.180000	-305.279032
2.190000	-267.901637
2.200000	-226.033801
2.210000	-180.661828
2.220000	-134.185497
2.230000	-87.143013
2.240000	-39.060250
2.250000	11.319051
2.260000	64.671447
2.270000	118.380385
2.280000	171.014988
2.290000	221.718824
2.300000	272.642586
2.310000	324.328915
2.320000	375.207386
2.330000	427.225274
2.340000	481.379782
2.350000	537.729524
2.360000	589.143159
2.370000	612.801672
2.380000	586.519516
2.390000	499.182387
2.400000	366.915762
2.410000	222.220060
2.420000	95.251125
2.430000	2.833579
2.440000	-55.180763
2.450000	-87.964753
2.460000	-106.337334
2.470000	-114.798989
2.480000	-112.532320
2.490000	-98.017413
2.500000	-77.467760
2.510000	-59.628431
2.520000	-50.113333
2.530000	-47.939824
2.540000	-48.132861
2.550000	-47.306930
2.560000	-41.201090
2.570000	-27.396626
2.580000	-4.656520
2.590000	24.118600
2.600000	58.845649
2.610000	98.247315
2.620000	141.967360
2.630000	187.320219
2.640000	233.712310
2.650000	280.677874
2.660000	326.739120
2.670000	373.328398
2.680000	420.380260
2.690000	469.268220
2.700000	515.958793
2.710000	562.176327
2.720000	607.818338
2.730000	655.377815
2.740000	704.623539
2.750000	753.527721
2.760000	807.402463
2.770000	859.598546
2.780000	897.117922
2.790000	894.255304
2.800000	835.148108
2.810000	723.921507
2.820000	584.186542
2.830000	450.238626
2.840000	343.812217
2.850000	273.140571
2.860000	232.688818
2.870000	213.990034
2.880000	206.515486
2.890000	206.146324
2.900000	213.644942
2.910000	227.920395
2.920000	243.719324
2.930000	252.308086
2.940000	253.774600
2.950000	248.653821
2.960000	244.472713
2.970000	244.946199
2.980000	252.792012
2.990000	267.520505
3.000000	287.398777
3.010000	313.058995
3.020000	342.623142
3.030000	373.219388
3.040000	402.807894
3.050000	434.351758
3.060000	469.280134
3.070000	509.109530
3.080000	549.695448
3.090000	589.834126
3.100000	629.405939
3.110000	667.181323
3.120000	704.749937
3.130000	740.478873
3.140000	776.730885
3.150000	813.729961
3.160000	850.668507
3.170000	888.278207
3.180000	926.229564
3.190000	964.453600
3.200000	989.380046
3.210000	978.898780
3.220000	910.155122
3.230000	787.378379
3.240000	639.959389
3.250000	500.493574
3.260000	389.022679
3.270000	310.193359
3.280000	260.691010
3.290000	232.507191
3.300000	217.653030
3.310000	215.133898
3.320000	220.900350
3.330000	229.383478
3.340000	232.434322
3.350000	227.274904
3.360000	215.273462
3.370000	200.133210
3.380000	184.737502
3.390000	172.620471
3.400000	167.495885
3.410000	172.733986
3.420000	186.533943
3.430000	205.470261
3.440000	227.202213
3.450000	250.503506
3.460000	277.172709
3.470000	305.821924
3.480000	337.443673
3.490000	371.095629
3.500000	406.677552
3.510000	442.325090
3.520000	477.208204
3.530000	512.186452
3.540000	545.358525
3.550000	576.680155
3.560000	607.807410
3.570000	640.133680
3.580000	673.546013
3.590000	705.206885
3.600000	738.595767
3.610000	775.235150
3.620000	812.594787
3.630000	830.174413
3.640000	801.872063
3.650000	709.763059
3.660000	561.847408
3.670000	388.372947
3.680000	222.457374
3.690000	84.574778
3.700000	-18.343259
3.710000	-92.967561
3.720000	-146.184700
3.730000	-183.880776
3.740000	-207.721581
3.750000	-217.495938
3.760000	-221.656098
3.770000	-225.476284
3.780000	-235.300868
3.790000	-251.146631
3.800000	-271.649291
3.810000	-292.182197
3.820000	-308.038403
3.830000	-315.260792
3.840000	-312.809891
3.850000	-302.722255
3.860000	-286.287135
3.870000	-265.560354
3.880000	-239.463687
3.890000	-210.115197
3.900000	-178.010463
3.910000	-145.717125
3.920000	-112.589854
3.930000	-79.698582
3.940000	-47.208288
3.950000	-15.388565
3.960000	17.136182
3.970000	50.208920
3.980000	82.769808
3.990000	83.347803
4.000000	7.994045
4.010000	-138.755305
4.020000	-314.720195
4.030000	-459.851246
4.040000	-564.615136
4.050000	-635.366152
4.060000	-683.231886
4.070000	-717.919221
4.080000	-738.862517
4.090000	-746.851468
4.100000	-747.214425
4.110000	-747.832888
4.120000	-753.600297
4.130000	-765.846701
4.140000	-781.683434
4.150000	-795.896308
4.160000	-802.473220
4.170000	-800.000710
4.180000	-789.645574
4.190000	-774.485821
4.200000	-754.518232
4.210000	-731.016509
4.220000	-703.093656
4.230000	-671.928195
4.240000	-637.374055
4.250000	-599.549170
4.260000	-559.365145
4.270000	-518.881753
4.280000	-479.061614
4.290000	-440.922815
4.300000	-403.126535
4.310000	-365.675750
4.320000	-327.897714
4.330000	-290.139524
4.340000	-253.712835
4.350000	-216.635464
4.360000	-179.910618
4.370000	-142.834426
4.380000	-102.476579
4.390000	-58.748734
4.400000	-11.416258
4.410000	28.598951
4.420000	38.571034
4.430000	-6.099030
4.440000	-117.447603
4.450000	-277.421378
4.460000	-451.126909
4.470000	-603.449951
4.480000	-714.889171
4.490000	-783.901161
4.500000	-819.720918
4.510000	-834.734137
4.520000	-836.579300
4.530000	-827.926361
4.540000	-809.471706
4.550000	-789.512116
4.560000	-777.740474
4.570000	-778.455450
4.580000	-788.694891
4.590000	-802.429143
4.600000	-814.022360
4.610000	-820.114236
4.620000	-821.065040
4.630000	-815.499393
4.640000	-802.146004
4.650000	-781.928403
4.660000	-756.265978
4.670000	-725.725872
4.680000	-690.421986
4.690000	-653.903196
4.700000	-615.269331
4.710000	-574.118579
4.720000	-528.482192
4.730000	-483.055208
4.740000	-438.720647
4.750000	-397.029521
4.760000	-357.990498
4.770000	-318.697907
4.780000	-280.640939
4.790000	-242.058994
4.800000	-204.668998
4.810000	-164.104543
4.820000	-121.078613
4.830000	-81.197572
4.840000	-65.230347
4.850000	-101.010242
4.860000	-199.702973
4.870000	-346.451208
4.880000	-505.818610
4.890000	-646.603098
4.900000	-748.663683
4.910000	-808.833755
4.920000	-837.578093
4.930000	-846.432334
4.940000	-843.514507
4.950000	-828.706086
4.960000	-806.160183
4.970000	-780.344627
4.980000	-760.181741
4.990000	-750.669086
5.000000	-749.880695
5.010000	-753.683604
5.020000	-755.602372
5.030000	-751.734044
5.040000	-738.687337
5.050000	-716.488778
5.060000	-686.136229
5.070000	-649.607140
5.080000	-609.948673
5.090000	-569.416949
5.100000	-527.446655
5.110000	-482.249684
5.120000	-433.975904
5.130000	-386.451450
5.140000	-339.853721
5.150000	-293.676245
5.160000	-246.420033
5.170000	-199.600188
5.180000	-154.342458
5.190000	-110.544248
5.200000	-67.620022
5.210000	-22.504271
5.220000	23.401062
5.230000	69.515908
5.240000	116.403592
5.250000	164.514442
5.260000	208.368859
5.270000	224.442799
5.280000	188.645644
5.290000	91.391090
5.300000	-50.691782
5.310000	-202.963678
5.320000	-337.065296
5.330000	-433.026638
5.340000	-490.845113
5.350000	-515.454261
5.360000	-522.337984
5.370000	-518.876674
5.380000	-508.503363
5.390000	-491.974715
5.400000	-470.686435
5.410000	-453.107748
5.420000	-441.534404
5.430000	-437.921314
5.440000	-438.380744
5.450000	-438.079649
5.460000	-431.906628
5.470000	-417.926623
5.480000	-394.780279
5.490000	-363.793427
5.500000	-324.661506
5.510000	-282.353032
5.520000	-237.207933
5.530000	-189.924458
5.540000	-140.095084
5.550000	-90.514699
5.560000	-40.649366
5.570000	8.882703
5.580000	58.791219
5.590000	106.930562
5.600000	155.235057
5.610000	203.632034
5.620000	253.341985
5.630000	302.986318
5.640000	351.777563
5.650000	401.007081
5.660000	450.537058
5.670000	500.356438
5.680000	551.294176
5.690000	606.039955
5.700000	660.695978
5.710000	703.698920
5.720000	709.723541
5.730000	665.053714
5.740000	566.778438
5.750000	439.816312
5.760000	313.176310
5.770000	210.897368
5.780000	143.202042
5.790000	106.606953
5.800000	91.210014
5.810000	87.985842
5.820000	93.567452
5.830000	108.376088
5.840000	127.912688
5.850000	144.091488
5.860000	154.274917
5.870000	157.814738
5.880000	158.652496
5.890000	158.200808
5.900000	160.373733
5.910000	167.920822
5.920000	183.766279
5.930000	206.968064
5.940000	238.168038
5.950000	274.678040
5.960000	316.582976
5.970000	361.721088
5.980000	408.004371
5.990000	455.443163
6.000000	502.762507
6.010000	551.179358
6.020000	597.850436
6.030000	643.934489
6.040000	689.276361
6.050000	735.703663
6.060000	784.041787
6.070000	833.477572
6.080000	883.484214
6.090000	932.926332
6.100000	981.271788
6.110000	1028.052388
6.120000	1076.413364
6.130000	1127.851613
6.140000	1181.559920
6.150000	1228.974446
6.160000	1251.357042
6.170000	1232.115274
6.180000	1162.521449
6.190000	1060.007210
6.200000	951.056881
6.210000	857.900515
6.220000	793.246102
6.230000	756.437272
6.240000	742.102739
6.250000	741.311489
6.260000	748.315557
6.270000	764.218825
6.280000	783.524734
6.290000	803.147455
6.300000	815.737055
6.310000	820.442299
6.320000	818.303105
6.330000	811.422096
6.340000	807.232658
6.350000	807.401739
6.360000	817.856412
6.370000	833.700969
6.380000	854.508561
6.390000	877.677147
6.400000	903.184180
6.410000	930.334655
6.420000	959.880402
6.430000	992.007352
6.440000	1026.926879
6.450000	1063.359574
6.460000	1099.990306
6.470000	1137.400811
6.480000	1173.396662
6.490000	1209.803718
6.500000	1245.813146
6.510000	1282.228480
6.520000	1317.239931
6.530000	1352.012270
6.540000	1390.358220
6.550000	1431.467624
6.560000	1471.820013
6.570000	1495.907681
6.580000	1485.291385
6.590000	1423.704664
6.600000	1317.843436
6.610000	1192.903380
6.620000	1073.745457
6.630000	978.434278
6.640000	912.296627
6.650000	874.298452
6.660000	853.170370
6.670000	844.197914
6.680000	844.399419
6.690000	850.781146
6.700000	856.969571
6.710000	857.383518
6.720000	850.567927
6.730000	836.005237
6.740000	817.528232
6.750000	799.979623
6.760000	788.840068
6.770000	785.960364
6.780000	789.825526
6.790000	797.954522
6.800000	809.832320
6.810000	825.298784
6.820000	844.856586
6.830000	867.989082
6.840000	892.892665
6.850000	918.697132
6.860000	943.942145
6.870000	968.757734
6.880000	994.008317
6.890000	1019.162327
6.900000	1045.761153
6.910000	1074.244670
6.920000	1104.192198
6.930000	1134.672644
6.940000	1162.965146
6.950000	1189.789999
6.960000	1217.087815
6.970000	1249.928750
6.980000	1286.537572
6.990000	1319.731621
7.000000	1327.625662
7.010000	1287.209852
7.020000	1184.750736
7.030000	1027.423399
7.040000	844.614417
7.050000	666.315913
7.060000	517.140320
7.070000	402.164795
7.080000	318.654477
7.090000	255.332943
7.100000	204.855172
7.110000	163.854102
7.120000	130.067330
7.130000	103.723541
7.140000	78.268638
7.150000	50.275688
7.160000	15.474756
7.170000	-22.142675
7.180000	-57.643403
7.190000	-87.558919
7.200000	-111.430680
7.210000	-127.298886
7.220000	-133.212822
7.230000	-129.707512
7.240000	-118.995061
7.250000	-105.116978
7.260000	-89.098488
7.270000	-70.184685
7.280000	-46.529036
7.290000	-20.260418
7.300000	7.044504
7.310000	34.668460
7.320000	63.958977
7.330000	91.251846
7.340000	118.891239
7.350000	146.495377
7.360000	175.830041
7.370000	203.725670
7.380000	229.776428
7.390000	259.638951
7.400000	293.039202
7.410000	327.545320
7.420000	346.260934
7.430000	323.425698
7.440000	239.497767
7.450000	94.691357
7.460000	-82.523779
7.470000	-259.033217
7.480000	-408.233201
7.490000	-519.137685
7.500000	-597.325456
7.510000	-649.917393
7.520000	-686.763208
7.530000	-711.017041
7.540000	-725.873057
7.550000	-734.121217
7.560000	-739.992818
7.570000	-751.909834
7.580000	-770.096633
7.590000	-793.368119
7.600000	-817.532693
7.610000	-837.498056
7.620000	-848.978716
7.630000	-850.309887
7.640000	-841.771719
7.650000	-825.468637
7.660000	-802.570999
7.670000	-777.645821
7.680000	-752.371705
7.690000	-726.493970
7.700000	-700.517687
7.710000	-672.345068
7.720000	-644.018707
7.730000	-615.200192
7.740000	-588.204476
7.750000	-563.060054
7.760000	-538.397644
7.770000	-514.268606
7.780000	-488.596636
7.790000	-461.160798
7.800000	-429.802390
7.810000	-398.415235
7.820000	-371.020983
7.830000	-364.718275
7.840000	-406.613278
7.850000	-509.327941
7.860000	-662.154762
7.870000	-825.872746
7.880000	-972.072912
7.890000	-1078.782378
7.900000	-1147.068336
7.910000	-1187.398659
7.920000	-1211.414641
7.930000	-1224.679392
7.940000	-1224.419343
7.950000	-1216.665743
7.960000	-1205.099157
7.970000	-1200.018634
7.980000	-1204.775033
7.990000	-1216.035089
8.000000	-1230.466271
8.010000	-1240.054139
8.020000	-1244.193401
8.030000	-1238.411524
8.040000	-1223.951925
8.050000	-1203.455173
8.060000	-1176.384206
8.070000	-1146.526566
8.080000	-1113.821826
8.090000	-1080.286273
8.100000	-1044.265335
8.110000	-1006.735866
8.120000	-968.390736
8.130000	-928.530982
8.140000	-886.532356
8.150000	-844.683440
8.160000	-804.688369
8.170000	-766.179524
8.180000	-726.855030
8.190000	-686.363565
8.200000	-645.373728
8.210000	-602.557991
8.220000	-556.574882
8.230000	-510.446853
8.240000	-477.152449
8.250000	-483.389078
8.260000	-549.728822
8.270000	-677.293452
8.280000	-838.241154
8.290000	-994.518559
8.300000	-1120.469579
8.310000	-1204.798410
8.320000	-1256.101195
8.330000	-1285.099232
8.340000	-1304.419752
8.350000	-1316.386694
8.360000	-1320.077554
8.370000	-1316.026198
8.380000	-1306.755401
8.390000	-1300.027876
8.400000	-1296.427838
8.410000	-1296.042344
8.420000	-1294.769431
8.430000	-1289.740694
8.440000	-1278.459031
8.450000	-1260.123840
8.460000	-1234.496786
8.470000	-1203.191818
8.480000	-1166.878152
8.490000	-1126.272585
8.500000	-1084.277956
8.510000	-1040.690357
8.520000	-997.027792
8.530000	-950.106943
8.540000	-901.802997
8.550000	-851.193731
8.560000	-801.935068
8.570000	-754.616120
8.580000	-709.743997
8.590000	-665.709502
8.600000	-619.559092
8.610000	-572.156272
8.620000	-523.046512
8.630000	-473.951335
8.640000	-422.197212
8.650000	-369.099071
8.660000	-321.370821
8.670000	-303.637104
8.680000	-336.540955
8.690000	-425.139480
8.700000	-545.638685
8.710000	-664.287695
8.720000	-754.094512
8.730000	-807.495149
8.740000	-833.601693
8.750000	-843.713832
8.760000	-847.442453
8.770000	-843.573996
8.780000	-833.628252
8.790000	-814.759348
8.800000	-790.835982
8.810000	-766.951190
8.820000	-746.040547
8.830000	-729.474455
8.840000	-714.235071
8.850000	-698.669766
8.860000	-677.086410
8.870000	-647.877149
8.880000	-611.276603
8.890000	-567.417646
8.900000	-519.474807
8.910000	-468.952807
8.920000	-419.009726
8.930000	-366.803249
8.940000	-312.885312
8.950000	-258.987856
8.960000	-206.089332
8.970000	-153.497956
8.980000	-99.620531
8.990000	-44.675596
9.000000	11.186319
9.010000	66.147143
9.020000	122.342750
9.030000	177.964863
9.040000	232.843254
9.050000	287.457703
9.060000	344.022282
9.070000	404.290129
9.080000	466.198771
9.090000	528.800643
9.100000	583.362654
9.110000	613.298782
9.120000	602.203303
9.130000	545.171857
9.140000	454.769016
9.150000	357.761422
9.160000	279.007369
9.170000	230.995289
9.180000	212.887790
9.190000	214.215092
9.200000	228.792762
9.210000	250.782348
9.220000	278.054812
9.230000	307.694717
9.240000	334.658673
9.250000	359.303289
9.260000	379.604412
9.270000	396.268154
9.280000	410.567545
9.290000	425.921790
9.300000	445.880950
9.310000	469.914499
9.320000	498.882152
9.330000	532.254400
9.340000	568.899735
9.350000	606.943984
9.360000	645.605729
9.370000	685.991179
9.380000	727.660247
9.390000	770.392089
9.400000	813.734245
9.410000	855.809535
9.420000	896.500521
9.430000	935.581116
9.440000	975.963500
9.450000	1016.697151
9.460000	1058.787219
9.470000	1100.828901
9.480000	1142.636917
9.490000	1183.983452
9.500000	1225.846456
9.510000	1271.501114
9.520000	1318.062812
9.530000	1363.712362
9.540000	1397.277723
9.550000	1403.269570
9.560000	1367.520984
9.570000	1293.901260
9.580000	1202.500623
9.590000	1117.569744
9.600000	1054.815697
9.610000	1017.229061
9.620000	1001.472670
9.630000	998.231415
9.640000	1003.169615
9.650000	1014.935093
9.660000	1030.889650
9.670000	1049.000542
9.680000	1061.286936
9.690000	1066.444725
9.700000	1065.049916
9.710000	1061.593651
9.720000	1061.175344
9.730000	1065.761532
9.740000	1077.662717
9.750000	1095.948279
9.760000	1121.182057
9.770000	1148.147098
9.780000	1176.743482
9.790000	1206.372650
9.800000	1238.338301
9.810000	1271.285798
9.820000	1302.958925
9.830000	1334.570131
9.840000	1365.937413
9.850000	1398.888373
9.860000	1433.272210
9.870000	1468.567348
9.880000	1502.296724
9.890000	1534.615302
9.900000	1566.017235
9.910000	1599.030549
9.920000	1632.422423
9.930000	1666.144009
9.940000	1702.194811
9.950000	1740.947845
9.960000	1779.987641
9.970000	1802.072307
9.980000	1788.470967
9.990000	1723.900717
10.000000	1613.705305
10.010000	1479.467960
10.020000	1347.981374
10.030000	1237.372007
10.040000	1151.244672
10.050000	1087.286748
10.060000	1036.182171
10.070000	993.909284
10.080000	956.813745
10.090000	926.238414
10.100000	899.794401
10.110000	873.589205
10.120000	845.472085
10.130000	814.969961
10.140000	784.181965
10.150000	752.702071
10.160000	725.263961
10.170000	704.786956
10.180000	692.030873
10.190000	686.224901
10.200000	684.816568
10.210000	689.364222
10.220000	698.951955
10.230000	712.860303
10.240000	729.774991
10.250000	747.041711
10.260000	764.627288
10.270000	783.581201
10.280000	804.834077
10.290000	825.798889
10.300000	843.727984
10.310000	858.043124
10.320000	869.980488
10.330000	879.971780
10.340000	889.923353
10.350000	900.583242
10.360000	913.219971
10.370000	928.210908
10.380000	946.536555
10.390000	968.855654
10.400000	988.517340
10.410000	988.154885
10.420000	943.830294
10.430000	842.500553
10.440000	692.885825
10.450000	521.243475
10.460000	357.968084
10.470000	222.638330
10.480000	117.684488
10.490000	35.018474
10.500000	-35.256965
10.510000	-96.904487
10.520000	-149.507293
10.530000	-190.141317
10.540000	-222.764344
10.550000	-252.703461
10.560000	-287.349013
10.570000	-325.898784
10.580000	-366.587113
10.590000	-405.745351
10.600000	-436.473196
10.610000	-458.935237
10.620000	-472.013392
10.630000	-478.126188
10.640000	-477.539408
10.650000	-472.648433
10.660000	-464.052977
10.670000	-451.828762
10.680000	-435.892669
10.690000	-417.005000
10.700000	-398.065526
10.710000	-379.167846
10.720000	-360.901085
10.730000	-341.653009
10.740000	-321.068814
10.750000	-299.803346
10.760000	-279.568863
10.770000	-259.275750
10.780000	-238.734825
10.790000	-216.742485
10.800000	-193.568962
10.810000	-169.874757
10.820000	-142.724693
10.830000	-113.016030
10.840000	-82.882632
10.850000	-71.870943
10.860000	-104.052482
10.870000	-197.041268
10.880000	-342.484495
10.890000	-511.154743
10.900000	-671.912069
10.910000	-804.298700
10.920000	-904.052260
10.930000	-975.802202
10.940000	-1026.868615
10.950000	-1063.973147
10.960000	-1091.347522
10.970000	-1110.138642
10.980000	-1124.504683
10.990000	-1138.975426
11.000000	-1158.333084
11.010000	-1182.135345
11.020000	-1208.161015
11.030000	-1230.289229
11.040000	-1246.672275
11.050000	-1254.779737
11.060000	-1255.531746
11.070000	-1249.942800
11.080000	-1237.726828
11.090000	-1221.787351
11.100000	-1200.582630
11.110000	-1175.312558
11.120000	-1145.106060
11.130000	-1112.186427
11.140000	-1078.301855
11.150000	-1044.732848
11.160000	-1010.164518
11.170000	-974.958023
11.180000	-940.036354
11.190000	-905.187850
11.200000	-871.586565
11.210000	-837.417499
11.220000	-805.156717
11.230000	-772.308431
11.240000	-740.413005
11.250000	-707.197380
11.260000	-670.010179
11.270000	-629.437243
11.280000	-586.617656
11.290000	-556.056021
11.300000	-558.919055
11.310000	-616.350441
11.320000	-731.179268
11.330000	-880.249348
11.340000	-1031.424075
11.350000	-1158.507228
11.360000	-1248.715106
11.370000	-1304.817265
11.380000	-1336.367588
11.390000	-1353.137422
11.400000	-1359.347712
11.410000	-1355.791072
11.420000	-1348.351410
11.430000	-1343.455809
11.440000	-1347.364241
11.450000	-1359.778783
11.460000	-1376.041325
11.470000	-1388.436226
11.480000	-1390.397730
11.490000	-1383.124445
11.500000	-1369.100397
11.510000	-1350.822034
11.520000	-1326.467133
11.530000	-1293.192670
11.540000	-1250.850367
11.550000	-1203.249844
11.560000	-1151.568602
11.570000	-1098.653721
11.580000	-1043.284328
11.590000	-990.750686
11.600000	-941.662269
11.610000	-895.185286
11.620000	-849.378621
11.630000	-802.294500
11.640000	-755.779871
11.650000	-708.736604
11.660000	-663.197197
11.670000	-616.506472
11.680000	-567.291841
11.690000	-514.283569
11.700000	-458.733505
11.710000	-412.429511
11.720000	-395.537897
11.730000	-428.582623
11.740000	-512.628165
11.750000	-624.675431
11.760000	-735.038988
11.770000	-820.792183
11.780000	-873.494769
11.790000	-895.610506
11.800000	-895.972781
11.810000	-883.767642
11.820000	-861.770800
11.830000	-830.589534
11.840000	-795.919932
11.850000	-764.417617
11.860000	-743.407541
11.870000	-732.895312
11.880000	-725.878688
11.890000	-714.038576
11.900000	-688.684397
11.910000	-653.217023
11.920000	-609.821795
11.930000	-560.061838
11.940000	-502.619066
11.950000	-437.912253
11.960000	-368.422537
11.970000	-295.760512
11.980000	-222.562091
11.990000	-150.271796
12.000000	-79.030725
12.010000	-4.102036
12.020000	73.820348
12.030000	151.395384
12.040000	220.994883
12.050000	283.251038
12.060000	341.178481
12.070000	400.784401
12.080000	461.012473
12.090000	521.322612
12.100000	581.852055
12.110000	646.541963
12.120000	714.683181
12.130000	775.404676
12.140000	806.153781
12.150000	785.943529
12.160000	714.352983
12.170000	610.876134
12.180000	504.250226
12.190000	414.123356
12.200000	351.797720
12.210000	315.675244
12.220000	299.004743
12.230000	294.900694
12.240000	300.563837
12.250000	316.810503
12.260000	341.456026
12.270000	373.398198
12.280000	408.682201
12.290000	439.316866
12.300000	463.267030
12.310000	482.589301
12.320000	503.873736
12.330000	528.858062
12.340000	558.488146
12.350000	591.464089
12.360000	628.117356
12.370000	668.747229
12.380000	711.752090
12.390000	757.379733
12.400000	803.056897
12.410000	850.034093
12.420000	897.701475
12.430000	949.377646
12.440000	1005.349648
12.450000	1062.724563
12.460000	1118.342690
12.470000	1170.755282
12.480000	1217.345119
12.490000	1243.098032
12.500000	1244.391728
12.510000	1235.837224
12.520000	1231.784111
12.530000	1239.904691
12.540000	1244.793171
12.550000	1241.681544
12.560000	1237.180417
12.570000	1225.772111
12.580000	1198.906443
12.590000	1137.514305
12.600000	1040.696293
12.610000	924.985025
12.620000	810.175806
12.630000	718.476452
12.640000	654.621450
12.650000	613.622001
12.660000	587.406151
12.670000	563.101919
12.680000	538.902153
12.690000	515.937503
12.700000	501.094913
12.710000	495.103803
12.720000	497.632396
12.730000	513.298007
12.740000	535.152428
12.750000	560.518256
12.760000	586.352435
12.770000	618.109486
12.780000	657.556613
12.790000	703.373185
12.800000	754.776536
12.810000	802.962433
12.820000	842.352874
12.830000	873.248685
12.840000	905.302387
12.850000	937.854061
12.860000	967.926270
12.870000	993.810273
12.880000	1021.919756
12.890000	1053.432669
12.900000	1086.919908
12.910000	1121.069137
12.920000	1160.617011
12.930000	1203.366808
12.940000	1249.667923
12.950000	1299.008828
12.960000	1349.394697
12.970000	1400.669047
12.980000	1447.119234
12.990000	1491.699290
13.000000	1520.476800
13.010000	1517.402978
13.020000	1470.524710
13.030000	1385.500627
13.040000	1281.622139
13.050000	1179.948350
13.060000	1095.046759
13.070000	1033.051056
13.080000	993.130182
13.090000	971.824254
13.100000	967.228696
13.110000	974.265988
13.120000	988.004622
13.130000	1004.052637
13.140000	1017.789767
13.150000	1027.189331
13.160000	1029.248222
13.170000	1025.681370
13.180000	1018.716863
13.190000	1012.520558
13.200000	1012.196283
13.210000	1018.355313
13.220000	1036.697283
13.230000	1067.515849
13.240000	1112.542545
13.250000	1163.990233
13.260000	1220.745801
13.270000	1282.138493
13.280000	1349.961475
13.290000	1426.961339
13.300000	1508.160878
13.310000	1582.772802
13.320000	1636.020189
13.330000	1667.962161
13.340000	1690.248086
13.350000	1715.156262
13.360000	1745.786707
13.370000	1777.665066
13.380000	1808.332600
13.390000	1841.859758
13.400000	1879.204106
13.410000	1913.700540
13.420000	1931.054537
13.430000	1918.879280
13.440000	1867.578177
13.450000	1783.099078
13.460000	1680.123641
13.470000	1576.324385
13.480000	1484.987133
13.490000	1416.203769
13.500000	1368.481082
13.510000	1331.721214
13.520000	1297.306871
13.530000	1266.927476
13.540000	1246.136506
13.550000	1227.758061
13.560000	1209.972851
13.570000	1186.567944
13.580000	1161.828757
13.590000	1131.678275
13.600000	1101.366376
13.610000	1076.444870
13.620000	1060.887763
13.630000	1053.518078
13.640000	1050.722537
13.650000	1052.253253
13.660000	1058.544548
13.670000	1067.967425
13.680000	1081.357283
13.690000	1094.651384
13.700000	1109.835819
13.710000	1123.636021
13.720000	1141.318874
13.730000	1159.577426
13.740000	1182.802640
13.750000	1203.130653
13.760000	1220.619549
13.770000	1217.278255
13.780000	1200.816886
13.790000	1172.049301
13.800000	1151.376278
13.810000	1103.307631
13.820000	824.782077
13.830000	160.670114
13.840000	-822.230901
13.850000	-1716.394036
13.860000	-2353.597777
13.870000	-3212.933526
13.880000	-4611.136586
13.890000	-7299.290290
13.900000	-9379.565583
13.910000	-10953.623463
13.920000	-12315.699600
13.930000	-13734.569222
13.940000	-15417.767974
13.950000	-16700.068931
13.960000	-17494.894074
13.970000	-17797.464640
13.980000	-17736.158565
13.990000	-17035.789237
14.000000	-15681.089963
14.010000	-13238.108537
14.020000	-10540.498313
14.030000	-8292.552693
14.040000	-6329.998473
14.050000	-4637.010475
14.060000	-3197.647382
14.070000	-1927.413119
14.080000	-774.044731
14.090000	206.247598
14.100000	967.766502
14.110000	1430.114013
14.120000	1630.201562
14.130000	1517.041250
14.140000	1091.080746
14.150000	479.286099
14.160000	-196.082283
14.170000	-972.269180
14.180000	-1912.010108
14.190000	-2434.083314
14.200000	-2015.395509
14.210000	136.193750
14.220000	4637.743378
14.230000	8583.759653
14.240000	9252.981168
14.250000	9785.309289
14.260000	10127.937260
14.270000	9610.871410
14.280000	8032.174896
14.290000	2970.629021
14.300000	-125.528864
14.310000	-1165.373903
14.320000	-2069.045418
14.330000	-3241.617027
14.340000	-6161.701612
14.350000	-8928.441621
14.360000	-10637.257844
14.370000	-12050.052994
14.380000	-13472.591088
14.390000	-14799.444699
14.400000	-15656.498330
14.410000	-15867.340072
14.420000	-15358.241612
14.430000	-14221.381425
14.440000	-12264.986181
14.450000	-9997.980329
14.460000	-7894.173221
14.470000	-6031.637041
14.480000	-4406.360781
14.490000	-2779.821086
14.500000	-1116.866968
14.510000	460.052524
14.520000	1761.764743
14.530000	2781.499328
14.540000	3527.681276
14.550000	4019.334413
14.560000	4321.055576
14.570000	4417.951728
14.580000	4430.470088
14.590000	4357.571768
14.600000	4295.489372
14.610000	4096.527303
14.620000	3743.540509
14.630000	3063.061238
14.640000	2028.959538
14.650000	549.679365
14.660000	-1815.902608
14.670000	-3165.467219
14.680000	2822.780216
14.690000	11205.573351
14.700000	14512.412599
14.710000	13439.882046
14.720000	10789.066052
14.730000	7731.230327
14.740000	4459.448753
14.750000	3173.962790
14.760000	1916.830384
14.770000	148.061089
14.780000	-5346.146274
14.790000	-9079.176214
14.800000	-10429.868029
14.810000	-11157.875056
14.820000	-10933.203193
14.830000	-9982.272685
14.840000	-8241.991911
14.850000	-6168.298207
14.860000	-4031.522918
14.870000	-2066.045457
14.880000	-513.233275
14.890000	806.930597
14.900000	2026.346153
14.910000	3017.437558
14.920000	3837.019474
14.930000	4278.590359
14.940000	4435.553315
14.950000	3734.282318
14.960000	2261.343366
14.970000	-626.267082
14.980000	6022.194384
14.990000	14805.743333
15.000000	16149.449341
15.010000	16216.568909
15.020000	15285.427792
15.030000	14519.926492
15.040000	13956.689345
15.050000	13330.835765
15.060000	12698.212049
15.070000	11926.274895
15.080000	11142.830724
15.090000	10309.973322
15.100000	9555.953667
15.110000	8827.220382
15.120000	8194.800069
15.130000	7590.466206
15.140000	7060.007404
15.150000	6554.833759
15.160000	6119.518015
15.170000	5709.336522
15.180000	5344.587379
15.190000	4984.050146
15.200000	4647.871410
15.210000	4309.347467
15.220000	3995.013599
15.230000	3686.900683
15.240000	3413.327220
15.250000	3165.061209
15.260000	2966.108700
15.270000	2790.126113
15.280000	2627.979528
15.290000	2462.878131
15.300000	2331.705298
15.310000	2243.594146
15.320000	2192.762999
15.330000	2132.235912
15.340000	2066.333132
15.350000	2004.261947
15.360000	1972.654594
15.370000	2004.341085
15.380000	2081.539058
15.390000	2192.471315
15.400000	2303.397034
15.410000	2413.057154
15.420000	2515.608027
15.430000	2578.267144
15.440000	2608.627236
15.450000	2580.413940
15.460000	2453.972004
15.470000	2199.950483
15.480000	1845.499187
15.490000	1452.943308
15.500000	1083.716016
15.510000	773.556740
15.520000	529.878626
15.530000	334.789984
15.540000	160.368727
15.550000	0.771296
15.560000	-139.091820
15.570000	-264.255840
15.580000	-377.862580
15.590000	-489.951614
15.600000	-602.261176
15.610000	-715.964081
15.620000	-828.969996
15.630000	-932.277689
15.640000	-1021.345452
15.650000	-1096.927824
15.660000	-1156.033519
15.670000	-1203.590190
15.680000	-1238.696967
15.690000	-1263.252534
15.700000	-1275.008874
15.710000	-1273.580727
15.720000	-1264.331515
15.730000	-1254.911015
15.740000	-1240.282653
15.750000	-1209.556087
15.760000	-1159.252523
15.770000	-1102.245284
15.780000	-1058.909709
15.790000	-1023.864607
15.800000	-987.891372
15.810000	-941.485639
15.820000	-889.582659
15.830000	-832.765479
15.840000	-761.584612
15.850000	-680.756567
15.860000	-614.646987
15.870000	-588.089505
15.880000	-617.360528
15.890000	-686.007989
15.900000	-765.049187
15.910000	-855.352088
15.920000	-946.384251
15.930000	-1027.039746
15.940000	-1082.053773
15.950000	-1121.811140
15.960000	-1175.455504
15.970000	-1226.806127
15.980000	-1265.889751
15.990000	-1284.154530
16.000000	-1295.068026
16.010000	-1313.858683
16.020000	-1336.210892
16.030000	-1353.904396
16.040000	-1361.714943
16.050000	-1383.049034
16.060000	-1413.831123
16.070000	-1449.213140
16.080000	-1479.623225
16.090000	-1512.780932
16.100000	-1547.414112
16.110000	-1573.682616
16.120000	-1587.244795
16.130000	-1591.296959
16.140000	-1592.109792
16.150000	-1593.932191
16.160000	-1598.327754
16.170000	-1601.246231
16.180000	-1604.590169
16.190000	-1603.904780
16.200000	-1595.884900
16.210000	-1579.599522
16.220000	-1561.897843
16.230000	-1551.329605
16.240000	-1545.578762
16.250000	-1534.737129
16.260000	-1519.320403
16.270000	-1507.865897
16.280000	-1525.808111
16.290000	-1585.993518
16.300000	-1693.307805
16.310000	-1835.775764
16.320000	-1985.130762
16.330000	-2117.605438
16.340000	-2215.672980
16.350000	-2283.530604
16.360000	-2331.267565
16.370000	-2366.819718
16.380000	-2390.544864
16.390000	-2394.122172
16.400000	-2382.562924
16.410000	-2368.149027
16.420000	-2358.606508
16.430000	-2351.853906
16.440000	-2344.351290
16.450000	-2336.942923
16.460000	-2328.797111
16.470000	-2316.731325
16.480000	-2297.950021
16.490000	-2273.904252
16.500000	-2243.803123
16.510000	-2208.788979
16.520000	-2165.350059
16.530000	-2114.392569
16.540000	-2060.614236
16.550000	-2006.697538
16.560000	-1953.914859
16.570000	-1897.693497
16.580000	-1836.932107
16.590000	-1774.741484
16.600000	-1714.991923
16.610000	-1659.825216
16.620000	-1604.072152
16.630000	-1545.290254
16.640000	-1483.198780
16.650000	-1419.467747
16.660000	-1357.370202
16.670000	-1294.336200
16.680000	-1228.584072
16.690000	-1167.937918
16.700000	-1133.875583
16.710000	-1146.576126
16.720000	-1204.814941
16.730000	-1288.201565
16.740000	-1372.115780
16.750000	-1436.545980
16.760000	-1477.500152
16.770000	-1494.272158
16.780000	-1493.610931
16.790000	-1481.034072
16.800000	-1460.088595
16.810000	-1433.164941
16.820000	-1400.599239
16.830000	-1368.349691
16.840000	-1341.144753
16.850000	-1320.229586
16.860000	-1304.388008
16.870000	-1289.806631
16.880000	-1272.668646
16.890000	-1249.755811
16.900000	-1219.992081
16.910000	-1182.408615
16.920000	-1138.024047
16.930000	-1089.435227
16.940000	-1038.757222
16.950000	-988.164254
16.960000	-935.179589
16.970000	-879.601200
16.980000	-820.300784
16.990000	-759.080595
17.000000	-697.455278
17.010000	-635.590057
17.020000	-574.311708
17.030000	-512.794775
17.040000	-451.872157
17.050000	-389.022746
17.060000	-326.143538
17.070000	-260.937656
17.080000	-194.789813
17.090000	-139.244911
17.100000	-113.487833
17.110000	-131.234227
17.120000	-185.492381
17.130000	-257.554417
17.140000	-326.186029
17.150000	-377.924976
17.160000	-406.595024
17.170000	-415.015224
17.180000	-407.703312
17.190000	-391.806963
17.200000	-369.826075
17.210000	-340.615569
17.220000	-306.317712
17.230000	-274.130871
17.240000	-247.825708
17.250000	-227.996183
17.260000	-210.345298
17.270000	-193.226761
17.280000	-173.886119
17.290000	-149.815245
17.300000	-120.455812
17.310000	-85.761605
17.320000	-46.049258
17.330000	-2.733355
17.340000	44.339613
17.350000	94.270395
17.360000	146.708766
17.370000	200.250408
17.380000	254.393270
17.390000	307.206417
17.400000	360.401412
17.410000	412.801839
17.420000	465.730807
17.430000	517.370062
17.440000	568.382150
17.450000	618.584800
17.460000	670.022142
17.470000	723.111298
17.480000	779.983429
17.490000	828.248187
17.500000	850.581790
17.510000	827.363067
17.520000	764.902682
17.530000	678.821828
17.540000	594.234952
17.550000	521.224933
17.560000	470.889292
17.570000	440.576541
17.580000	430.538185
17.590000	469.994604
17.600000	520.655519
17.610000	574.483261
17.620000	597.021429
17.630000	618.805189
17.640000	647.312406
17.650000	675.074755
17.660000	709.633584
17.670000	743.625976
17.680000	780.641045
17.690000	815.476195
17.700000	852.665330
17.710000	888.627807
17.720000	925.696464
17.730000	960.755314
17.740000	997.069567
17.750000	1033.528823
17.760000	1071.775155
17.770000	1111.622466
17.780000	1149.129141
17.790000	1186.391625
17.800000	1225.475517
17.810000	1257.122361
17.820000	1259.446756
17.830000	1215.192208
17.840000	1131.478191
17.850000	1024.948301
17.860000	919.188948
17.870000	828.004605
17.880000	760.881742
17.890000	715.021211
17.900000	682.889052
17.910000	660.040625
17.920000	645.901448
17.930000	641.392063
17.940000	641.559084
17.950000	638.396610
17.960000	627.555040
17.970000	611.080446
17.980000	590.879109
17.990000	570.096286
18.000000	553.202184
18.010000	542.434792
18.020000	541.190665
18.030000	545.749397
18.040000	555.182546
18.050000	568.058436
18.060000	583.170942
18.070000	600.700586
18.080000	620.487779
18.090000	642.673005
18.100000	667.801905
18.110000	692.631254
18.120000	719.126631
18.130000	745.910000
18.140000	773.118580
18.150000	800.851747
18.160000	827.101218
18.170000	853.466582
18.180000	877.736598
18.190000	903.761298
18.200000	932.025988
18.210000	961.715708
18.220000	992.647054
18.230000	1025.001062
18.240000	1053.583293
18.250000	1058.910431
18.260000	1019.176397
18.270000	932.203600
18.280000	812.812715
18.290000	687.525397
18.300000	573.753795
18.310000	484.163894
18.320000	419.658920
18.330000	375.449722
18.340000	345.222766
18.350000	325.405927
18.360000	317.463229
18.370000	314.000523
18.380000	309.705397
18.390000	297.252174
18.400000	276.295919
18.410000	250.176387
18.420000	221.212671
18.430000	197.779523
18.440000	182.442348
18.450000	176.708555
18.460000	179.326501
18.470000	187.963256
18.480000	202.879667
18.490000	222.207247
18.500000	244.428853
18.510000	266.776104
18.520000	287.308527
18.530000	304.674703
18.540000	321.861483
18.550000	341.232865
18.560000	363.069898
18.570000	382.437785
18.580000	398.617542
18.590000	412.641733
18.600000	425.492496
18.610000	438.841583
18.620000	453.358596
18.630000	472.041616
18.640000	492.871257
18.650000	517.913094
18.660000	547.037995
18.670000	568.746658
18.680000	557.826926
18.690000	496.259706
18.700000	388.670981
18.710000	256.144081
18.720000	122.515251
18.730000	4.000038
18.740000	-89.665907
18.750000	-158.177682
18.760000	-207.204725
18.770000	-241.694815
18.780000	-261.404154
18.790000	-270.565921
18.800000	-275.618122
18.810000	-287.457896
18.820000	-308.818426
18.830000	-338.347544
18.840000	-372.688919
18.850000	-407.242934
18.860000	-436.566379
18.870000	-459.158564
18.880000	-474.455950
18.890000	-482.418623
18.900000	-480.347993
18.910000	-471.705492
18.920000	-460.585111
18.930000	-449.999504
18.940000	-437.484071
18.950000	-421.305848
18.960000	-403.069289
18.970000	-382.952130
18.980000	-363.337849
18.990000	-343.600858
19.000000	-323.618593
19.010000	-301.589197
19.020000	-278.919125
19.030000	-255.250417
19.040000	-231.567822
19.050000	-205.914783
19.060000	-179.235790
19.070000	-150.585339
19.080000	-117.243674
19.090000	-84.957347
19.100000	-75.306654
19.110000	-112.347835
19.120000	-205.006497
19.130000	-337.014285
19.140000	-483.360892
19.150000	-619.026008
19.160000	-730.091147
19.170000	-812.744255
19.180000	-871.523163
19.190000	-912.144623
19.200000	-940.634964
19.210000	-958.879264
19.220000	-967.087854
19.230000	-971.308997
19.240000	-977.887310
19.250000	-995.089785
19.260000	-1021.338853
19.270000	-1051.874302
19.280000	-1079.462743
19.290000	-1099.679002
19.300000	-1112.611493
19.310000	-1121.170569
19.320000	-1122.757539
19.330000	-1117.348270
19.340000	-1103.913185
19.350000	-1087.555133
19.360000	-1069.737770
19.370000	-1049.099783
19.380000	-1026.580824
19.390000	-1001.986730
19.400000	-977.776500
19.410000	-952.541640
19.420000	-925.318561
19.430000	-895.442438
19.440000	-863.542475
19.450000	-831.692063
19.460000	-799.437529
19.470000	-765.617705
19.480000	-729.678756
19.490000	-692.558489
19.500000	-654.261665
19.510000	-612.169508
19.520000	-573.549025
19.530000	-558.827157
19.540000	-591.187626
19.550000	-675.444535
19.560000	-795.445333
19.570000	-922.704572
19.580000	-1037.068958
19.590000	-1125.326536
19.600000	-1188.407445
19.610000	-1226.956889
19.620000	-1248.440313
19.630000	-1258.257018
19.640000	-1258.138354
19.650000	-1249.899079
19.660000	-1240.525414
19.670000	-1238.553318
19.680000	-1244.899233
19.690000	-1257.540261
19.700000	-1272.274260
19.710000	-1286.204389
19.720000	-1294.985309
19.730000	-1295.545075
19.740000	-1287.041928
19.750000	-1270.897798
19.760000	-1249.774140
19.770000	-1224.250018
19.780000	-1192.504662
19.790000	-1156.951781
19.800000	-1118.568822
19.810000	-1079.995355
19.820000	-1040.293391
19.830000	-999.377822
19.840000	-957.020425
19.850000	-911.090892
19.860000	-863.427149
19.870000	-814.802785
19.880000	-766.837562
19.890000	-720.513905
19.900000	-672.904487
19.910000	-626.239377
19.920000	-578.292290
19.930000	-529.304337
19.940000	-478.342503
19.950000	-443.419889
19.960000	-444.395924
19.970000	-492.843732
19.980000	-575.712341
19.990000	-670.237765
20.000000	-758.037230
20.010000	-823.970043
20.020000	-866.060512
20.030000	-885.038211
20.040000	-890.101737
20.050000	-882.746115
20.060000	-865.138578
20.070000	-840.450085
20.080000	-814.508891
20.090000	-791.809423
20.100000	-774.531399
20.110000	-763.824001
20.120000	-756.533002
20.130000	-748.492887
20.140000	-734.855986
20.150000	-715.497496
20.160000	-688.162027
20.170000	-654.501233
20.180000	-615.788242
20.190000	-575.164126
20.200000	-533.060516
20.210000	-488.810305
20.220000	-443.322891
20.230000	-395.101779
20.240000	-345.912254
20.250000	-294.368753
20.260000	-243.831596
20.270000	-193.607657
20.280000	-144.403965
20.290000	-95.491249
20.300000	-45.622996
20.310000	6.644838
20.320000	58.833557
20.330000	111.476107
20.340000	168.988236
20.350000	226.971181
20.360000	267.126638
20.370000	270.486866
20.380000	236.003924
20.390000	179.405507
20.400000	116.572391
20.410000	62.680183
20.420000	25.144727
20.430000	5.965709
20.440000	2.731214
20.450000	8.933461
20.460000	23.359596
20.470000	43.926718
20.480000	71.357454
20.490000	99.597006
20.500000	124.389773
20.510000	141.631103
20.520000	153.469870
20.530000	161.026851
20.540000	168.924599
20.550000	181.119655
20.560000	200.743150
20.570000	227.904117
20.580000	260.255447
20.590000	297.729198
20.600000	339.467132
20.610000	383.921140
20.620000	428.378236
20.630000	473.492139
20.640000	518.990463
20.650000	565.770540
20.660000	612.969228
20.670000	661.425505
20.680000	710.650080
20.690000	759.117198
20.700000	807.376711
20.710000	855.180611
20.720000	903.146793
20.730000	951.952416
20.740000	999.618291
20.750000	1051.119177
20.760000	1103.778438
20.770000	1147.977001
20.780000	1164.957409
20.790000	1148.914776
20.800000	1107.885886
20.810000	1057.585567
20.820000	1010.183652
20.830000	974.961207
20.840000	956.180836
20.850000	949.694026
20.860000	950.890772
20.870000	957.815221
20.880000	974.665757
20.890000	998.298116
20.900000	1019.138667
20.910000	1032.510419
20.920000	1042.351567
20.930000	1053.107472
20.940000	1065.270658
20.950000	1076.079653
20.960000	1087.587380
20.970000	1100.766946
20.980000	1120.633613
20.990000	1146.156365
21.000000	1173.725145
21.010000	1201.269372
21.020000	1229.878351
21.030000	1261.772107
21.040000	1297.079390
21.050000	1334.324292
21.060000	1373.003897
21.070000	1411.594734
21.080000	1450.989690
21.090000	1490.582621
21.100000	1529.697091
21.110000	1568.962793
21.120000	1608.458563
21.130000	1648.733383
21.140000	1689.273109
21.150000	1728.223144
21.160000	1765.147919
21.170000	1801.441131
21.180000	1837.075520
21.190000	1867.704096
21.200000	1878.698529
21.210000	1861.039572
21.220000	1814.402637
21.230000	1752.136590
21.240000	1689.502742
21.250000	1636.276030
21.260000	1596.979315
21.270000	1571.460248
21.280000	1556.839397
21.290000	1550.034946
21.300000	1551.099152
21.310000	1560.334748
21.320000	1575.743678
21.330000	1591.013791
21.340000	1601.450393
21.350000	1604.757147
21.360000	1601.221899
21.370000	1595.236093
21.380000	1592.053376
21.390000	1594.098144
21.400000	1601.602972
21.410000	1611.341420
21.420000	1624.555475
21.430000	1639.299808
21.440000	1656.238901
21.450000	1675.981679
21.460000	1696.304720
21.470000	1718.730535
21.480000	1740.749343
21.490000	1764.882927
21.500000	1789.572301
21.510000	1814.762142
21.520000	1840.116987
21.530000	1863.358312
21.540000	1884.389741
21.550000	1900.335360
21.560000	1911.726793
21.570000	1918.699339
21.580000	1926.799797
21.590000	1942.118960
21.600000	1960.899612
21.610000	1967.559661
21.620000	1947.054150
21.630000	1895.751299
21.640000	1824.300498
21.650000	1743.328447
21.660000	1665.604610
21.670000	1597.940739
21.680000	1544.619568
21.690000	1502.917853
21.700000	1469.683677
21.710000	1444.285140
21.720000	1427.801984
21.730000	1417.357290
21.740000	1407.294613
21.750000	1389.805037
21.760000	1365.859074
21.770000	1337.302439
21.780000	1309.814173
21.790000	1297.536044
21.800000	1298.437319
21.810000	1309.813097
21.820000	1319.412372
21.830000	1329.841900
21.840000	1342.761908
21.850000	1355.234625
21.860000	1368.164675
21.870000	1383.004315
21.880000	1399.270361
21.890000	1416.147428
21.900000	1431.746859
21.910000	1450.013071
21.920000	1467.910103
21.930000	1472.556989
21.940000	1444.426463
21.950000	1371.492262
21.960000	1262.703891
21.970000	1133.815709
21.980000	1005.029038
21.990000	888.150952
22.000000	787.701696
22.010000	702.838323
22.020000	629.732338
22.030000	565.560627
22.040000	510.803544
22.050000	464.309254
22.060000	423.902053
22.070000	382.406905
22.080000	336.038599
22.090000	286.213536
22.100000	233.533567
22.110000	183.393289
22.120000	136.708820
22.130000	95.935816
22.140000	59.898605
22.150000	29.507870
22.160000	6.446934
22.170000	-10.906777
22.180000	-21.642777
22.190000	-29.312720
22.200000	-35.038899
22.210000	-39.029945
22.220000	-41.415974
22.230000	-42.395904
22.240000	-45.785569
22.250000	-49.061078
22.260000	-50.808884
22.270000	-49.711227
22.280000	-48.495394
22.290000	-46.671999
22.300000	-42.498628
22.310000	-36.292636
22.320000	-27.487682
22.330000	-16.906039
22.340000	0.549865
22.350000	17.455801
22.360000	18.240632
22.370000	-21.866067
22.380000	-111.683939
22.390000	-241.463455
22.400000	-389.235507
22.410000	-531.718502
22.420000	-657.147341
22.430000	-758.649655
22.440000	-841.088103
22.450000	-907.907639
22.460000	-965.702261
22.470000	-1014.145378
22.480000	-1051.645720
22.490000	-1083.736131
22.500000	-1117.928728
22.510000	-1161.661451
22.520000	-1209.177585
22.530000	-1257.597409
22.540000	-1303.428133
22.550000	-1343.204111
22.560000	-1374.018173
22.570000	-1395.489661
22.580000	-1410.623360
22.590000	-1420.442881
22.600000	-1424.565050
22.610000	-1423.740161
22.620000	-1418.848617
22.630000	-1411.715451
22.640000	-1404.475671
22.650000	-1396.359276
22.660000	-1385.109022
22.670000	-1371.355276
22.680000	-1357.425130
22.690000	-1344.693934
22.700000	-1330.074755
22.710000	-1314.055344
22.720000	-1297.405240
22.730000	-1279.760870
22.740000	-1261.418566
22.750000	-1239.138171
22.760000	-1213.123292
22.770000	-1185.870824
22.780000	-1173.214136
22.790000	-1196.301325
22.800000	-1266.628811
22.810000	-1379.371084
22.820000	-1511.009972
22.830000	-1638.126005
22.840000	-1742.758072
22.850000	-1820.604103
22.860000	-1876.216523
22.870000	-1915.104553
22.880000	-1943.363322
22.890000	-1957.933602
22.900000	-1962.883763
22.910000	-1963.453580
22.920000	-1970.440817
22.930000	-1985.637123
22.940000	-2006.340772
22.950000	-2028.505814
22.960000	-2050.269147
22.970000	-2068.393394
22.980000	-2078.550750
22.990000	-2080.314792
23.000000	-2073.188797
23.010000	-2060.603802
23.020000	-2042.173356
23.030000	-2019.254761
23.040000	-1992.179073
23.050000	-1961.597378
23.060000	-1930.214665
23.070000	-1897.622455
23.080000	-1865.279832
23.090000	-1831.663874
23.100000	-1797.041187
23.110000	-1760.393100
23.120000	-1721.830367
23.130000	-1682.483223
23.140000	-1640.302274
23.150000	-1595.938909
23.160000	-1547.458565
23.170000	-1497.766039
23.180000	-1451.644824
23.190000	-1425.984540
23.200000	-1435.516578
23.210000	-1484.198164
23.220000	-1558.030348
23.230000	-1636.752534
23.240000	-1704.246706
23.250000	-1753.690233
23.260000	-1783.501837
23.270000	-1798.001755
23.280000	-1799.442128
23.290000	-1789.669550
23.300000	-1767.731987
23.310000	-1739.045281
23.320000	-1709.379781
23.330000	-1683.775805
23.340000	-1665.044742
23.350000	-1648.843113
23.360000	-1634.409114
23.370000	-1614.582215
23.380000	-1591.822394
23.390000	-1563.663377
23.400000	-1531.267661
23.410000	-1492.423712
23.420000	-1451.084711
23.430000	-1408.531292
23.440000	-1365.253900
23.450000	-1320.990831
23.460000	-1274.106380
23.470000	-1226.480122
23.480000	-1176.636098
23.490000	-1125.662592
23.500000	-1073.849433
23.510000	-1022.867667
23.520000	-972.743388
23.530000	-922.421230
23.540000	-870.988842
23.550000	-818.996222
23.560000	-767.920557
23.570000	-716.914843
23.580000	-663.196593
23.590000	-608.862788
23.600000	-563.174511
23.610000	-541.843601
23.620000	-551.809760
23.630000	-587.805247
23.640000	-634.431146
23.650000	-677.116059
23.660000	-707.415845
23.670000	-724.460414
23.680000	-728.749969
23.690000	-723.490776
23.700000	-710.424887
23.710000	-691.198597
23.720000	-667.777973
23.730000	-639.576259
23.740000	-611.823446
23.750000	-585.952791
23.760000	-563.544839
23.770000	-543.329890
23.780000	-522.603564
23.790000	-500.385870
23.800000	-473.663719
23.810000	-443.125229
23.820000	-408.727944
23.830000	-371.539909
23.840000	-332.129256
23.850000	-291.961702
23.860000	-250.529316
23.870000	-205.716098
23.880000	-159.276541
23.890000	-111.469099
23.900000	-64.030051
23.910000	-14.545774
23.920000	35.203671
23.930000	83.042371
23.940000	130.447156
23.950000	176.624500
23.960000	224.702119
23.970000	272.526653
23.980000	321.635570
23.990000	372.427849
24.000000	424.903913
24.010000	478.330164
24.020000	526.159904
24.030000	557.892378
24.040000	564.758550
24.050000	548.154212
24.060000	518.387177
24.070000	487.092326
24.080000	461.343037
24.090000	446.365586
24.100000	441.289493
24.110000	444.310739
24.120000	453.243138
24.130000	467.602587
24.140000	488.209496
24.150000	512.227293
24.160000	537.186869
24.170000	559.526104
24.180000	578.181977
24.190000	594.509522
24.200000	609.855452
24.210000	628.178925
24.220000	648.527999
24.230000	671.532313
24.240000	695.875250
24.250000	723.575315
24.260000	754.230039
24.270000	787.633442
24.280000	820.925851
24.290000	854.047957
24.300000	889.310586
24.310000	926.137334
24.320000	965.382412
24.330000	1002.562245
24.340000	1041.160009
24.350000	1079.657663
24.360000	1119.296443
24.370000	1161.104096
24.380000	1202.107157
24.390000	1244.249633
24.400000	1284.924623
24.410000	1326.762452
24.420000	1367.749203
24.430000	1410.307624
24.440000	1456.259256
24.450000	1498.849981
24.460000	1528.449085
24.470000	1535.747829
24.480000	1521.020093
24.490000	1492.355580
24.500000	1460.620733
24.510000	1434.980890
24.520000	1416.220802
24.530000	1405.295990
24.540000	1401.171589
24.550000	1402.967889
24.560000	1410.146534
24.570000	1421.996039
24.580000	1438.145972
24.590000	1451.696631
24.600000	1460.849942
24.610000	1465.759909
24.620000	1468.249279
24.630000	1468.843859
24.640000	1470.011628
24.650000	1473.283011
24.660000	1481.134443
24.670000	1490.732194
24.680000	1502.624567
24.690000	1514.865945
24.700000	1529.149490
24.710000	1545.687142
24.720000	1562.693811
24.730000	1579.202160
24.740000	1595.934363
24.750000	1615.413722
24.760000	1636.188924
24.770000	1658.321016
24.780000	1679.461756
24.790000	1701.264153
24.800000	1722.417924
24.810000	1743.905007
24.820000	1766.063679
24.830000	1788.568649
24.840000	1810.732966
24.850000	1833.929042
24.860000	1859.760538
24.870000	1878.616160
24.880000	1879.140718
24.890000	1852.667918
24.900000	1803.246251
24.910000	1737.416787
24.920000	1665.385269
24.930000	1597.856924
24.940000	1540.533575
24.950000	1493.303913
24.960000	1453.029498
24.970000	1419.113585
24.980000	1392.551923
24.990000	1373.609796
25.000000	1357.415193
25.010000	1339.795951
25.020000	1317.301524
25.030000	1292.352361
25.040000	1264.199656
25.050000	1235.605285
25.060000	1210.119850
25.070000	1190.208140
25.080000	1175.384532
25.090000	1164.160500
25.100000	1155.335257
25.110000	1150.137775
25.120000	1147.297004
25.130000	1148.139711
25.140000	1151.936930
25.150000	1157.824729
25.160000	1164.926559
25.170000	1173.194703
25.180000	1181.930015
25.190000	1190.246044
25.200000	1198.952933
25.210000	1208.644507
25.220000	1219.655765
25.230000	1231.721513
25.240000	1245.373872
25.250000	1258.470476
25.260000	1270.441811
25.270000	1281.232567
25.280000	1297.205288
25.290000	1315.312912
25.300000	1323.287048
25.310000	1304.725015
25.320000	1252.069044
25.330000	1169.177239
25.340000	1066.544180
25.350000	956.976864
25.360000	854.362800
25.370000	767.101390
25.380000	695.832868
25.390000	637.220533
25.400000	587.306213
25.410000	544.684442
25.420000	509.119959
25.430000	476.808500
25.440000	442.599386
25.450000	401.936325
25.460000	354.090882
25.470000	304.749409
25.480000	256.240210
25.490000	211.564143
25.500000	171.048074
25.510000	136.046990
25.520000	105.848290
25.530000	80.195194
25.540000	58.310589
25.550000	40.676440
25.560000	28.102778
25.570000	19.480809
25.580000	14.224200
25.590000	8.269498
25.600000	2.686328
25.610000	-3.956003
25.620000	-13.527336
25.630000	-27.188070
25.640000	-43.409391
25.650000	-62.100459
25.660000	-85.976120
25.670000	-114.013479
25.680000	-140.875826
25.690000	-152.247257
25.700000	-147.826706
25.710000	-128.497562
25.720000	-101.475509
25.730000	-72.424728
25.740000	-53.824745
25.750000	-66.390150
25.760000	-118.155380
25.770000	-204.002929
25.780000	-306.135258
25.790000	-407.301868
25.800000	-495.147156
25.810000	-565.308588
25.820000	-619.194646
25.830000	-665.020991
25.840000	-704.244468
25.850000	-736.750544
25.860000	-762.984529
25.870000	-789.519525
25.880000	-821.075989
25.890000	-859.638033
25.900000	-902.512193
25.910000	-946.112222
25.920000	-985.971317
25.930000	-1016.943751
25.940000	-1038.469433
25.950000	-1051.472942
25.960000	-1057.329552
25.970000	-1059.034522
25.980000	-1054.537588
25.990000	-1046.304107
26.000000	-1035.437974
26.010000	-1021.265381
26.020000	-1004.706452
26.030000	-983.916577
26.040000	-960.682882
26.050000	-936.599007
26.060000	-913.692720
26.070000	-892.309478
26.080000	-873.069745
26.090000	-853.377978
26.100000	-832.151550
26.110000	-806.141574
26.120000	-777.282384
26.130000	-747.607314
26.140000	-728.474440
26.150000	-738.462230
26.160000	-788.682396
26.170000	-877.986939
26.180000	-988.214142
26.190000	-1101.550172
26.200000	-1203.793754
26.210000	-1285.163859
26.220000	-1346.106800
26.230000	-1390.492648
26.240000	-1423.462717
26.250000	-1446.183573
26.260000	-1460.527289
26.270000	-1470.587640
26.280000	-1484.644042
26.290000	-1504.347825
26.300000	-1530.800570
26.310000	-1558.798928
26.320000	-1585.338315
26.330000	-1608.628814
26.340000	-1626.584283
26.350000	-1638.839374
26.360000	-1643.535669
26.370000	-1644.776055
26.380000	-1639.844956
26.390000	-1630.435011
26.400000	-1616.526573
26.410000	-1601.814722
26.420000	-1585.573441
26.430000	-1566.236351
26.440000	-1543.668623
26.450000	-1519.707925
26.460000	-1494.804658
26.470000	-1468.221026
26.480000	-1439.319209
26.490000	-1405.774509
26.500000	-1369.557337
26.510000	-1334.043723
26.520000	-1313.871682
26.530000	-1321.686154
26.540000	-1362.878190
26.550000	-1430.005479
26.560000	-1508.243280
26.570000	-1582.035023
26.580000	-1641.001514
26.590000	-1680.793408
26.600000	-1702.486940
26.610000	-1710.941139
26.620000	-1707.341222
26.630000	-1695.809195
26.640000	-1677.232180
26.650000	-1658.739917
26.660000	-1646.833546
26.670000	-1641.364446
26.680000	-1640.475550
26.690000	-1639.359452
26.700000	-1636.505095
26.710000	-1630.065251
26.720000	-1617.577888
26.730000	-1601.161777
26.740000	-1579.686433
26.750000	-1554.977622
26.760000	-1526.165285
26.770000	-1494.175948
26.780000	-1459.353242
26.790000	-1421.082164
26.800000	-1379.587169
26.810000	-1337.371433
26.820000	-1294.190131
26.830000	-1252.377483
26.840000	-1209.823692
26.850000	-1165.428875
26.860000	-1120.506204
26.870000	-1072.177495
26.880000	-1022.911884
26.890000	-975.301335
26.900000	-942.387543
26.910000	-933.455857
26.920000	-949.882193
26.930000	-982.956435
26.940000	-1020.741440
26.950000	-1052.500134
26.960000	-1072.654374
26.970000	-1079.426806
26.980000	-1074.950260
26.990000	-1061.392126
27.000000	-1037.942854
27.010000	-1007.070992
27.020000	-971.974980
27.030000	-939.463614
27.040000	-911.029317
27.050000	-886.889179
27.060000	-866.116587
27.070000	-846.680740
27.080000	-825.904058
27.090000	-802.511074
27.100000	-774.724678
27.110000	-743.716969
27.120000	-709.576044
27.130000	-671.620731
27.140000	-631.132367
27.150000	-588.220422
27.160000	-546.731011
27.170000	-504.501910
27.180000	-462.369090
27.190000	-418.473429
27.200000	-373.377486
27.210000	-327.474374
27.220000	-280.413286
27.230000	-232.171892
27.240000	-183.479710
27.250000	-134.228551
27.260000	-82.903261
27.270000	-33.995584
27.280000	3.300181
27.290000	20.880742
27.300000	20.504860
27.310000	8.744891
27.320000	-5.308491
27.330000	-15.423306
27.340000	-18.153535
27.350000	-12.287895
27.360000	-1.033851
27.370000	17.171267
27.380000	41.055818
27.390000	70.277871
27.400000	101.783380
27.410000	130.691920
27.420000	158.173805
27.430000	182.076874
27.440000	203.553789
27.450000	223.441892
27.460000	243.918832
27.470000	266.787706
27.480000	293.264534
27.490000	321.106737
27.500000	351.268841
27.510000	382.403042
27.520000	415.262957
27.530000	449.012788
27.540000	482.574649
27.550000	518.952418
27.560000	555.189069
27.570000	592.556522
27.580000	629.448867
27.590000	667.155612
27.600000	703.018606
27.610000	741.762842
27.620000	783.229866
27.630000	823.347995
27.640000	852.414729
27.650000	864.265660
27.660000	864.622087
27.670000	852.822694
27.680000	839.517791
27.690000	827.682966
27.700000	823.079161
27.710000	823.847353
27.720000	828.299737
27.730000	839.015881
27.740000	854.501889
27.750000	875.182785
27.760000	896.684302
27.770000	918.019431
27.780000	936.857121
27.790000	953.190211
27.800000	967.358957
27.810000	980.357825
27.820000	993.857993
27.830000	1008.184043
27.840000	1023.686358
27.850000	1041.007273
27.860000	1059.841941
27.870000	1079.827099
27.880000	1100.661382
27.890000	1123.648613
27.900000	1150.479417
27.910000	1178.121596
27.920000	1204.966038
27.930000	1230.930348
27.940000	1257.789557
27.950000	1286.067676
27.960000	1312.267586
27.970000	1339.555725
27.980000	1367.735656
27.990000	1401.723946
28.000000	1433.835417
28.010000	1454.887856
28.020000	1458.275547
28.030000	1444.070216
28.040000	1420.738985
28.050000	1390.569316
28.060000	1360.883420
28.070000	1335.392446
28.080000	1315.355171
28.090000	1299.542892
28.100000	1287.496605
28.110000	1279.696900
28.120000	1276.639133
28.130000	1276.178105
28.140000	1276.116020
28.150000	1274.661645
28.160000	1269.258731
28.170000	1261.491178
28.180000	1252.735517
28.190000	1243.987659
28.200000	1237.884813
28.210000	1233.475620
28.220000	1231.038814
28.230000	1229.628193
28.240000	1228.862320
28.250000	1231.457197
28.260000	1236.343314
28.270000	1243.958178
28.280000	1252.485902
28.290000	1261.129680
28.300000	1271.970714
28.310000	1283.291658
28.320000	1295.796332
28.330000	1306.444080
28.340000	1318.974535
28.350000	1332.250293
28.360000	1345.821694
28.370000	1361.730291
28.380000	1377.991270
28.390000	1386.861138
28.400000	1375.479976
28.410000	1341.353478
28.420000	1288.318926
28.430000	1226.194924
28.440000	1163.821013
28.450000	1106.692819
28.460000	1055.642392
28.470000	1008.848653
28.480000	968.473054
28.490000	934.329497
28.500000	906.970306
28.510000	884.467858
28.520000	862.458290
28.530000	840.280232
28.540000	814.936787
28.550000	788.436359
28.560000	760.739402
28.570000	733.593538
28.580000	708.871567
28.590000	686.073128
28.600000	667.339636
28.610000	651.538758
28.620000	640.142935
28.630000	631.323102
28.640000	626.616297
28.650000	624.760273
28.660000	624.750577
28.670000	626.860855
28.680000	630.207934
28.690000	635.959675
28.700000	642.316090
28.710000	648.386283
28.720000	655.756009
28.730000	664.800862
28.740000	675.853436
28.750000	688.537445
28.760000	704.279420
28.770000	719.918017
28.780000	724.005547
28.790000	705.622583
28.800000	658.733936
28.810000	589.348711
28.820000	507.795632
28.830000	427.069896
28.840000	354.495775
28.850000	292.765331
28.860000	240.504671
28.870000	196.113011
28.880000	159.503537
28.890000	130.779968
28.900000	109.820146
28.910000	90.749096
28.920000	69.124935
28.930000	41.371115
28.940000	9.762582
28.950000	-21.685694
28.960000	-49.618921
28.970000	-71.428954
28.980000	-87.025467
28.990000	-95.856134
29.000000	-98.453912
29.010000	-96.639496
29.020000	-91.901150
29.030000	-84.773672
29.040000	-73.362207
29.050000	-55.594913
29.060000	-31.517019
29.070000	-2.107049
29.080000	30.302392
29.090000	65.698071
29.100000	101.425044
29.110000	140.161277
29.120000	181.515646
29.130000	224.599103
29.140000	268.247756
29.150000	313.351105
29.160000	355.941331
29.170000	383.387055
29.180000	383.944690
29.190000	354.085845
29.200000	303.624568
29.210000	241.421484
29.220000	180.287689
29.230000	128.717251
29.240000	91.244843
29.250000	67.972002
29.260000	53.490946
29.270000	46.876066
29.280000	47.708361
29.290000	52.741870
29.300000	55.552805
29.310000	49.241711
29.320000	33.383292
29.330000	12.055097
29.340000	-11.153467
29.350000	-32.497410
29.360000	-51.064744
29.370000	-64.747118
29.380000	-73.348843
29.390000	-79.037970
29.400000	-83.667143
29.410000	-90.033564
29.420000	-97.344814
29.430000	-105.734680
29.440000	-116.395448
29.450000	-130.472803
29.460000	-144.805134
29.470000	-157.251690
29.480000	-168.260299
29.490000	-179.071534
29.500000	-185.071907
29.510000	-187.614026
29.520000	-189.260173
29.530000	-191.193137
29.540000	-192.483449
29.550000	-201.171432
29.560000	-236.111377
29.570000	-306.164297
29.580000	-407.413291
29.590000	-527.510151
29.600000	-654.425958
29.610000	-777.235973
29.620000	-884.146897
29.630000	-970.024461
29.640000	-1035.929610
29.650000	-1083.860658
29.660000	-1119.434430
29.670000	-1147.741273
29.680000	-1178.665305
29.690000	-1214.313766
29.700000	-1252.263984
29.710000	-1287.259055
29.720000	-1317.920892
29.730000	-1345.593047
29.740000	-1370.289019
29.750000	-1396.654939
29.760000	-1423.356189
29.770000	-1448.430864
29.780000	-1469.805755
29.790000	-1489.601277
29.800000	-1510.306229
29.810000	-1523.124174
29.820000	-1527.880771
29.830000	-1528.375272
29.840000	-1529.843434
29.850000	-1530.658575
29.860000	-1528.856428
29.870000	-1525.334524
29.880000	-1524.931884
29.890000	-1528.050097
29.900000	-1530.045459
29.910000	-1524.813790
29.920000	-1509.887969
29.930000	-1487.643198
29.940000	-1463.123684
29.950000	-1450.216220
29.960000	-1468.093353
29.970000	-1527.151338
29.980000	-1618.396056
29.990000	-1722.778546
30.000000	-1823.424509
30.010000	-1913.152213
30.020000	-1986.845190
30.030000	-2044.259190
30.040000	-2086.656630
30.050000	-2116.756804
30.060000	-2134.179529
30.070000	-2143.989334
30.080000	-2154.765351
30.090000	-2171.933102
30.100000	-2192.380909
30.110000	-2210.590045
30.120000	-2224.726294
30.130000	-2234.303640
30.140000	-2238.456815
30.150000	-2237.740528
30.160000	-2232.238637
30.170000	-2221.896149
30.180000	-2207.073887
30.190000	-2188.103802
30.200000	-2164.960078
30.210000	-2137.696728
30.220000	-2107.567737
30.230000	-2077.010850
30.240000	-2046.220269
30.250000	-2014.038704
30.260000	-1980.593505
30.270000	-1945.782824
30.280000	-1911.689342
30.290000	-1878.237311
30.300000	-1843.496062
30.310000	-1805.741346
30.320000	-1773.044992
30.330000	-1762.317942
30.340000	-1783.288782
30.350000	-1830.901475
30.360000	-1889.885006
30.370000	-1948.207329
30.380000	-1997.537746
30.390000	-2034.572919
30.400000	-2059.244865
30.410000	-2074.324689
30.420000	-2082.997712
30.430000	-2084.777157
30.440000	-2081.132899
30.450000	-2071.935035
30.460000	-2061.990940
30.470000	-2052.124073
30.480000	-2043.892566
30.490000	-2036.012992
30.500000	-2026.499385
30.510000	-2012.940624
30.520000	-1994.483110
30.530000	-1971.242948
30.540000	-1944.842388
30.550000	-1915.579092
30.560000	-1884.239830
30.570000	-1850.281086
30.580000	-1813.339944
30.590000	-1773.017821
30.600000	-1728.472995
30.610000	-1680.793313
30.620000	-1631.640373
30.630000	-1581.932129
30.640000	-1530.499993
30.650000	-1477.772567
30.660000	-1423.053009
30.670000	-1367.313318
30.680000	-1309.963363
30.690000	-1262.581678
30.700000	-1233.558363
30.710000	-1226.863843
30.720000	-1234.144658
30.730000	-1244.830924
30.740000	-1252.098094
30.750000	-1251.828135
30.760000	-1242.747876
30.770000	-1228.192363
30.780000	-1210.080616
30.790000	-1188.236830
30.800000	-1160.760416
30.810000	-1128.640160
30.820000	-1096.132574
30.830000	-1065.386869
30.840000	-1035.845574
30.850000	-1007.148163
30.860000	-979.239217
30.870000	-950.584289
30.880000	-920.646913
30.890000	-887.694183
30.900000	-853.406775
30.910000	-817.473795
30.920000	-779.841591
30.930000	-739.925252
30.940000	-698.285238
30.950000	-654.378405
30.960000	-608.401352
30.970000	-561.169394
30.980000	-513.853610
30.990000	-466.290914
31.000000	-416.634463
31.010000	-366.420632
31.020000	-316.076859
31.030000	-265.211706
31.040000	-214.852437
31.050000	-164.660657
31.060000	-116.628386
31.070000	-68.089794
31.080000	-19.070380
31.090000	24.139537
31.100000	53.827056
31.110000	65.722656
31.120000	64.427513
31.130000	55.655149
31.140000	44.707487
31.150000	35.933332
31.160000	31.998806
31.170000	33.890527
31.180000	39.299023
31.190000	48.540545
31.200000	62.286819
31.210000	80.542993
31.220000	100.288225
31.230000	116.563028
31.240000	129.995545
31.250000	142.277543
31.260000	156.064727
31.270000	170.676430
31.280000	186.163777
31.290000	203.439862
31.300000	223.626562
31.310000	248.235177
31.320000	275.445327
31.330000	303.396494
31.340000	331.635048
31.350000	361.263488
31.360000	392.524789
31.370000	425.165808
31.380000	458.450865
31.390000	492.108032
31.400000	525.749553
31.410000	560.093856
31.420000	594.084890
31.430000	627.791918
31.440000	661.464156
31.450000	696.203374
31.460000	729.545629
31.470000	760.999856
31.480000	795.021233
31.490000	832.835617
31.500000	868.860547
31.510000	891.705425
31.520000	896.435177
31.530000	887.653264
31.540000	871.065576
31.550000	852.989760
31.560000	834.402513
31.570000	819.724481
31.580000	810.788660
31.590000	807.511135
31.600000	808.562796
31.610000	814.027283
31.620000	824.063617
31.630000	836.597970
31.640000	845.949393
31.650000	849.238731
31.660000	849.247273
31.670000	848.275569
31.680000	849.612766
31.690000	851.698148
31.700000	856.053278
31.710000	860.511300
31.720000	867.240547
31.730000	875.385140
31.740000	887.841251
31.750000	902.315318
31.760000	918.853099
31.770000	937.317165
31.780000	957.604660
31.790000	980.060636
31.800000	1002.757810
31.810000	1027.222184
31.820000	1052.647237
31.830000	1079.463899
31.840000	1105.607320
31.850000	1132.459998
31.860000	1159.307292
31.870000	1187.875841
31.880000	1217.414213
31.890000	1245.702116
31.900000	1265.589428
31.910000	1267.604543
31.920000	1249.200212
31.930000	1213.272484
31.940000	1169.581082
31.950000	1125.352032
31.960000	1085.374480
31.970000	1051.175824
31.980000	1022.583722
31.990000	1000.757755
32.000000	983.204708
32.010000	972.108265
32.020000	966.239335
32.030000	962.878304
32.040000	957.693763
32.050000	947.409401
32.060000	934.923903
32.070000	921.027377
32.080000	906.246569
32.090000	895.083428
32.100000	886.648821
32.110000	881.237686
32.120000	876.472577
32.130000	874.500434
32.140000	877.392737
32.150000	882.848323
32.160000	890.415661
32.170000	898.290712
32.180000	908.882229
32.190000	920.153481
32.200000	933.457878
32.210000	947.442429
32.220000	961.803856
32.230000	978.171291
32.240000	994.240796
32.250000	1012.348480
32.260000	1030.769307
32.270000	1049.299711
32.280000	1069.071816
32.290000	1089.349933
32.300000	1105.802355
32.310000	1104.478756
32.320000	1076.986951
32.330000	1022.400640
32.340000	950.975240
32.350000	873.096282
32.360000	797.064949
32.370000	727.556182
32.380000	668.594157
32.390000	620.113198
32.400000	578.890099
32.410000	541.111052
32.420000	509.312994
32.430000	482.542543
32.440000	457.172143
32.450000	429.083325
32.460000	397.484773
32.470000	363.741405
32.480000	326.234282
32.490000	286.520310
32.500000	246.430339
32.510000	204.068467
32.520000	160.748387
32.530000	122.075274
32.540000	98.527036
32.550000	96.184239
32.560000	109.388028
32.570000	135.081956
32.580000	164.013958
32.590000	194.115039
32.600000	221.417324
32.610000	249.284591
32.620000	279.934221
32.630000	312.562870
32.640000	347.237540
32.650000	378.944903
32.660000	407.672643
32.670000	431.774165
32.680000	455.241953
32.690000	482.724280
32.700000	507.900517
32.710000	517.107269
32.720000	492.333840
32.730000	432.323294
32.740000	347.921074
32.750000	254.004711
32.760000	164.627342
32.770000	85.785609
32.780000	20.447207
32.790000	-33.324740
32.800000	-75.271033
32.810000	-106.315501
32.820000	-129.538719
32.830000	-148.517508
32.840000	-169.022003
32.850000	-194.255062
32.860000	-225.375296
32.870000	-260.526314
32.880000	-297.602905
32.890000	-334.672728
32.900000	-367.699106
32.910000	-395.033088
32.920000	-415.336565
32.930000	-431.277868
32.940000	-441.836984
32.950000	-448.402027
32.960000	-449.201162
32.970000	-446.074880
32.980000	-441.438690
32.990000	-434.276408
33.000000	-425.552752
33.010000	-415.680505
33.020000	-406.541255
33.030000	-396.277724
33.040000	-384.403231
33.050000	-371.079412
33.060000	-355.799035
33.070000	-341.425666
33.080000	-339.085815
33.090000	-363.984374
33.100000	-421.212370
33.110000	-503.710230
33.120000	-600.194141
33.130000	-697.631061
33.140000	-788.390154
33.150000	-866.421926
33.160000	-931.133128
33.170000	-983.749374
33.180000	-1023.735793
33.190000	-1050.942006
33.200000	-1066.873395
33.210000	-1080.685627
33.220000	-1097.529556
33.230000	-1117.611469
33.240000	-1138.039243
33.250000	-1159.074236
33.260000	-1184.085285
33.270000	-1208.375550
33.280000	-1232.004631
33.290000	-1253.198267
33.300000	-1271.787685
33.310000	-1284.538046
33.320000	-1286.424147
33.330000	-1285.772324
33.340000	-1285.235684
33.350000	-1287.195999
33.360000	-1285.881111
33.370000	-1279.820578
33.380000	-1271.726579
33.390000	-1260.623033
33.400000	-1247.097125
33.410000	-1227.935273
33.420000	-1208.009532
33.430000	-1199.118947
33.440000	-1218.120991
33.450000	-1272.127085
33.460000	-1355.715324
33.470000	-1455.630398
33.480000	-1558.157803
33.490000	-1651.320599
33.500000	-1728.797297
33.510000	-1789.873707
33.520000	-1838.295894
33.530000	-1875.266014
33.540000	-1898.965037
33.550000	-1913.185226
33.560000	-1923.148902
33.570000	-1934.615997
33.580000	-1948.829723
33.590000	-1963.211565
33.600000	-1976.689227
33.610000	-1987.646093
33.620000	-1995.390958
33.630000	-2000.255666
33.640000	-1999.255018
33.650000	-1992.711624
33.660000	-1982.292583
33.670000	-1970.004158
33.680000	-1955.157547
33.690000	-1936.462317
33.700000	-1913.858965
33.710000	-1890.093708
33.720000	-1863.379230
33.730000	-1833.559973
33.740000	-1800.395403
33.750000	-1765.526618
33.760000	-1727.898442
33.770000	-1693.673073
33.780000	-1674.241534
33.790000	-1679.306274
33.800000	-1706.709115
33.810000	-1746.407224
33.820000	-1789.668695
33.830000	-1824.987938
33.840000	-1847.800363
33.850000	-1855.726640
33.860000	-1853.769909
33.870000	-1841.266318
33.880000	-1816.886430
33.890000	-1782.963775
33.900000	-1745.492963
33.910000	-1709.804926
33.920000	-1677.567166
33.930000	-1649.787535
33.940000	-1624.441839
33.950000	-1601.917751
33.960000	-1577.107908
33.970000	-1549.866913
33.980000	-1518.574062
33.990000	-1486.298570
34.000000	-1454.169971
34.010000	-1421.860096
34.020000	-1386.224131
34.030000	-1347.228261
34.040000	-1302.401788
34.050000	-1256.411642
34.060000	-1203.010495
34.070000	-1143.408604
34.080000	-1075.735904
34.090000	-1010.897874
34.100000	-948.553023
34.110000	-886.169104
34.120000	-815.140142
34.130000	-754.969585
34.140000	-720.832778
34.150000	-733.234126
34.160000	-769.521653
34.170000	-810.287694
34.180000	-831.309426
34.190000	-840.874678
34.200000	-841.858451
34.210000	-849.269766
34.220000	-843.753187
34.230000	-835.183882
34.240000	-805.675727
34.250000	-788.006504
34.260000	-772.248961
34.270000	-785.363722
34.280000	-792.083181
34.290000	-634.815484
34.300000	-444.806512
34.310000	-250.412389
34.320000	-201.623595
34.330000	-158.304048
34.340000	-97.185204
34.350000	-46.091509
34.360000	2.262217
34.370000	19.938290
34.380000	31.769985
34.390000	27.789318
34.400000	27.610552
34.410000	18.805291
34.420000	22.129955
34.430000	30.333435
34.440000	51.949879
34.450000	73.058474
34.460000	100.085661
34.470000	126.007948
34.480000	158.190408
34.490000	191.186414
34.500000	228.585555
34.510000	262.934865
34.520000	294.269649
34.530000	318.942982
34.540000	343.920733
34.550000	369.873041
34.560000	399.852321
34.570000	431.062387
34.580000	465.406888
34.590000	500.518125
34.600000	537.918311
34.610000	576.915332
34.620000	616.377455
34.630000	655.597340
34.640000	696.127810
34.650000	740.902844
34.660000	786.481722
34.670000	830.166142
34.680000	874.139482
34.690000	917.044838
34.700000	963.774203
34.710000	1005.847942
34.720000	1042.058028
34.730000	1065.599465
34.740000	1079.333512
34.750000	1087.320705
34.760000	1091.905345
34.770000	1099.689333
34.780000	1111.097198
34.790000	1130.039142
34.800000	1153.910711
34.810000	1180.029560
34.820000	1200.017334
34.830000	1212.014562
34.840000	1220.786750
34.850000	1230.309902
34.860000	1245.539263
34.870000	1264.233779
34.880000	1287.951734
34.890000	1312.124898
34.900000	1336.026695
34.910000	1361.676694
34.920000	1390.086545
34.930000	1421.214433
34.940000	1451.459961
34.950000	1480.753038
34.960000	1510.830665
34.970000	1542.281959
34.980000	1572.854836
34.990000	1603.147773
35.000000	1636.215934
35.010000	1670.665989
35.020000	1705.577381
35.030000	1740.184767
35.040000	1778.954409
35.050000	1820.356019
35.060000	1850.968777
35.070000	1862.545858
35.080000	1855.679496
35.090000	1838.763552
35.100000	1821.400973
35.110000	1805.301334
35.120000	1791.797504
35.130000	1783.853994
35.140000	1784.539011
35.150000	1792.740817
35.160000	1803.616857
35.170000	1812.976948
35.180000	1823.060798
35.190000	1835.226667
35.200000	1848.849529
35.210000	1862.826195
35.220000	1876.658586
35.230000	1888.775636
35.240000	1900.830207
35.250000	1912.073025
35.260000	1923.027363
35.270000	1935.396512
35.280000	1947.572417
35.290000	1963.760415
35.300000	1982.794614
35.310000	2003.149326
35.320000	2024.714115
35.330000	2047.566244
35.340000	2074.669766
35.350000	2103.329893
35.360000	2130.988771
35.370000	2159.803493
35.380000	2188.663146
35.390000	2218.982375
35.400000	2250.030625
35.410000	2281.863049
35.420000	2312.760155
35.430000	2337.100540
35.440000	2346.516940
35.450000	2334.043926
35.460000	2298.659328
35.470000	2250.053233
35.480000	2197.838539
35.490000	2152.101398
35.500000	2116.036892
35.510000	2089.178070
35.520000	2064.924111
35.530000	2044.315244
35.540000	2030.523825
35.550000	2022.481186
35.560000	2013.816489
35.570000	1997.352845
35.580000	1979.521532
35.590000	1962.922709
35.600000	1953.611839
35.610000	1948.844547
35.620000	1947.081957
35.630000	1945.807208
35.640000	1941.927666
35.650000	1936.157817
35.660000	1925.474242
35.670000	1909.560623
35.680000	1892.411034
35.690000	1875.000451
35.700000	1861.736159
35.710000	1863.503894
35.720000	1882.750831
35.730000	1912.360683
35.740000	1937.791599
35.750000	1952.285543
35.760000	1956.232213
35.770000	1956.608887
35.780000	1958.715442
35.790000	1959.957923
35.800000	1945.211767
35.810000	1907.376639
35.820000	1831.400676
35.830000	1694.154362
35.840000	1496.703992
35.850000	1285.103680
35.860000	1112.407972
35.870000	1005.027984
35.880000	965.761980
35.890000	637.210649
