Time(s)	GREEN_denoised_wiener
0.000000	-259.709519
0.010000	-264.836524
0.020000	-265.172479
0.030000	-276.883549
0.040000	-294.208344
0.050000	-313.944866
0.060000	-333.920863
0.070000	-351.679121
0.080000	-365.308495
0.090000	-375.427160
0.100000	-382.702990
0.110000	-386.177345
0.120000	-387.444328
0.130000	-386.930703
0.140000	-387.866289
0.150000	-388.677003
0.160000	-389.966910
0.170000	-390.089670
0.180000	-389.746397
0.190000	-388.839097
0.200000	-386.863587
0.210000	-382.926133
0.220000	-375.651328
0.230000	-368.364479
0.240000	-359.430364
0.250000	-350.483245
0.260000	-339.537415
0.270000	-326.946241
0.280000	-312.647644
0.290000	-297.415696
0.300000	-280.758401
0.310000	-263.225190
0.320000	-245.874238
0.330000	-229.036206
0.340000	-212.993297
0.350000	-195.844414
0.360000	-180.461821
0.370000	-163.973028
0.380000	-148.279470
0.390000	-135.103660
0.400000	-122.422501
0.410000	-107.902267
0.420000	-92.911020
0.430000	-85.387400
0.440000	-88.053515
0.450000	-96.186880
0.460000	-105.866161
0.470000	-114.992470
0.480000	-123.017325
0.490000	-129.465677
0.500000	-135.841159
0.510000	-144.274327
0.520000	-153.990554
0.530000	-161.742879
0.540000	-164.473644
0.550000	-164.893598
0.560000	-166.291127
0.570000	-169.369838
0.580000	-171.765952
0.590000	-173.852507
0.600000	-176.240152
0.610000	-178.664639
0.620000	-179.375278
0.630000	-177.477271
0.640000	-173.512305
0.650000	-168.956899
0.660000	-165.647887
0.670000	-163.428420
0.680000	-161.111143
0.690000	-154.221216
0.700000	-145.591242
0.710000	-136.004958
0.720000	-127.404225
0.730000	-118.442501
0.740000	-108.548635
0.750000	-98.880552
0.760000	-86.009334
0.770000	-71.995697
0.780000	-56.458469
0.790000	-42.782788
0.800000	-27.216061
0.810000	-8.237195
0.820000	11.019248
0.830000	27.648257
0.840000	44.610103
0.850000	67.213137
0.860000	90.846901
0.870000	106.773407
0.880000	110.101199
0.890000	105.032462
0.900000	93.021964
0.910000	76.969705
0.920000	59.616717
0.930000	43.915490
0.940000	28.875472
0.950000	12.533640
0.960000	-3.179842
0.970000	-15.503820
0.980000	-23.898948
0.990000	-32.210811
1.000000	-40.598546
1.010000	-49.241605
1.020000	-56.282761
1.030000	-62.603260
1.040000	-68.622177
1.050000	-73.283798
1.060000	-77.289145
1.070000	-80.283960
1.080000	-82.947938
1.090000	-84.602504
1.100000	-84.261124
1.110000	-82.580593
1.120000	-79.560663
1.130000	-74.544830
1.140000	-67.516368
1.150000	-59.165207
1.160000	-53.468423
1.170000	-51.431201
1.180000	-50.063075
1.190000	-44.679234
1.200000	-36.326617
1.210000	-26.247407
1.220000	-16.244426
1.230000	-4.123784
1.240000	10.179617
1.250000	24.006933
1.260000	36.289481
1.270000	48.827196
1.280000	67.759810
1.290000	89.970793
1.300000	109.571493
1.310000	121.131492
1.320000	124.747745
1.330000	119.305128
1.340000	105.278171
1.350000	86.504682
1.360000	66.825493
1.370000	48.383334
1.380000	31.719050
1.390000	18.616240
1.400000	9.961189
1.410000	5.196433
1.420000	1.214448
1.430000	-3.534101
1.440000	-9.510773
1.450000	-16.243331
1.460000	-23.885437
1.470000	-32.265854
1.480000	-39.903817
1.490000	-45.937184
1.500000	-50.237782
1.510000	-52.254048
1.520000	-52.220396
1.530000	-51.553778
1.540000	-51.849579
1.550000	-52.827560
1.560000	-50.447430
1.570000	-44.758029
1.580000	-36.692960
1.590000	-30.342207
1.600000	-22.563456
1.610000	-13.246000
1.620000	-3.414819
1.630000	6.541083
1.640000	15.086676
1.650000	27.369400
1.660000	40.923684
1.670000	58.234614
1.680000	74.096410
1.690000	86.799814
1.700000	100.308642
1.710000	116.717345
1.720000	135.872372
1.730000	149.303246
1.740000	152.805906
1.750000	144.921644
1.760000	126.771687
1.770000	102.239660
1.780000	73.759052
1.790000	43.248698
1.800000	13.775539
1.810000	-11.716431
1.820000	-31.852580
1.830000	-47.995843
1.840000	-59.782520
1.850000	-68.252138
1.860000	-74.685952
1.870000	-80.815630
1.880000	-88.896582
1.890000	-97.675041
1.900000	-108.419493
1.910000	-118.829803
1.920000	-127.917623
1.930000	-136.293700
1.940000	-142.380949
1.950000	-147.737208
1.960000	-149.803762
1.970000	-149.494171
1.980000	-147.529757
1.990000	-146.559931
2.000000	-147.888681
2.010000	-148.249551
2.020000	-144.216701
2.030000	-136.921007
2.040000	-129.853644
2.050000	-122.550492
2.060000	-113.790518
2.070000	-104.153382
2.080000	-96.033954
2.090000	-88.381500
2.100000	-78.908465
2.110000	-68.586156
2.120000	-57.080091
2.130000	-46.765401
2.140000	-33.199918
2.150000	-16.256536
2.160000	1.372694
2.170000	15.281358
2.180000	22.650292
2.190000	23.193724
2.200000	12.952202
2.210000	-9.184794
2.220000	-39.698328
2.230000	-73.189749
2.240000	-104.982219
2.250000	-132.164043
2.260000	-158.582274
2.270000	-182.420160
2.280000	-202.146937
2.290000	-216.640998
2.300000	-229.019949
2.310000	-242.157644
2.320000	-255.513164
2.330000	-267.968727
2.340000	-281.978646
2.350000	-295.730312
2.360000	-309.745863
2.370000	-321.779380
2.380000	-331.814049
2.390000	-339.789604
2.400000	-345.175308
2.410000	-347.761497
2.420000	-346.829044
2.430000	-344.033539
2.440000	-339.772701
2.450000	-335.267633
2.460000	-327.664703
2.470000	-317.470235
2.480000	-305.850871
2.490000	-293.964907
2.500000	-282.327102
2.510000	-270.749212
2.520000	-258.760521
2.530000	-245.824366
2.540000	-231.484923
2.550000	-217.529502
2.560000	-203.493353
2.570000	-190.529020
2.580000	-176.448940
2.590000	-157.814488
2.600000	-134.369041
2.610000	-111.404023
2.620000	-96.249957
2.630000	-92.270930
2.640000	-102.417723
2.650000	-124.411174
2.660000	-152.864371
2.670000	-181.168530
2.680000	-206.608563
2.690000	-228.217250
2.700000	-246.309218
2.710000	-260.215925
2.720000	-269.629897
2.730000	-275.169215
2.740000	-277.903598
2.750000	-280.077218
2.760000	-282.792019
2.770000	-287.604028
2.780000	-294.961323
2.790000	-302.740734
2.800000	-309.415588
2.810000	-314.830891
2.820000	-317.816441
2.830000	-319.208962
2.840000	-317.158672
2.850000	-314.548475
2.860000	-311.107037
2.870000	-305.165296
2.880000	-295.671256
2.890000	-282.732475
2.900000	-270.861092
2.910000	-257.226012
2.920000	-243.676650
2.930000	-228.990318
2.940000	-214.778870
2.950000	-197.686191
2.960000	-177.501276
2.970000	-155.998732
2.980000	-135.168485
2.990000	-114.581839
3.000000	-95.450404
3.010000	-75.765971
3.020000	-52.004357
3.030000	-25.907089
3.040000	-0.504032
3.050000	17.666980
3.060000	27.402774
3.070000	26.630831
3.080000	17.714271
3.090000	5.995714
3.100000	-5.587649
3.110000	-17.254543
3.120000	-26.488188
3.130000	-33.785536
3.140000	-36.318381
3.150000	-35.600235
3.160000	-31.415264
3.170000	-24.354916
3.180000	-17.122038
3.190000	-10.374398
3.200000	-5.099795
3.210000	-0.993400
3.220000	3.991168
3.230000	9.445134
3.240000	15.481518
3.250000	22.950654
3.260000	31.701086
3.270000	41.521652
3.280000	52.654548
3.290000	64.824220
3.300000	79.679962
3.310000	96.854920
3.320000	114.769388
3.330000	132.287857
3.340000	149.262882
3.350000	166.792573
3.360000	186.493161
3.370000	207.024869
3.380000	227.794858
3.390000	250.332693
3.400000	272.155567
3.410000	296.392962
3.420000	320.905832
3.430000	344.861172
3.440000	367.728273
3.450000	393.413238
3.460000	422.613894
3.470000	451.023871
3.480000	474.238539
3.490000	491.383809
3.500000	504.611416
3.510000	509.800081
3.520000	510.746575
3.530000	508.282378
3.540000	506.297939
3.550000	505.497357
3.560000	504.585537
3.570000	505.797379
3.580000	509.610611
3.590000	517.175166
3.600000	526.035314
3.610000	535.968897
3.620000	547.204671
3.630000	559.839285
3.640000	571.778633
3.650000	582.458093
3.660000	594.438991
3.670000	607.814858
3.680000	620.170782
3.690000	629.919132
3.700000	639.325306
3.710000	649.766693
3.720000	660.887700
3.730000	671.692025
3.740000	685.207573
3.750000	701.021225
3.760000	716.936088
3.770000	731.098458
3.780000	742.748243
3.790000	755.936418
3.800000	769.293227
3.810000	784.530758
3.820000	799.575924
3.830000	815.548834
3.840000	834.275711
3.850000	854.640828
3.860000	873.050866
3.870000	890.494414
3.880000	911.919402
3.890000	937.083076
3.900000	960.857337
3.910000	979.090718
3.920000	994.564087
3.930000	1003.831166
3.940000	1005.693716
3.950000	1002.331053
3.960000	999.583680
3.970000	996.897100
3.980000	993.557034
3.990000	988.546242
4.000000	984.959033
4.010000	984.943556
4.020000	989.107653
4.030000	997.423383
4.040000	1005.662396
4.050000	1011.994184
4.060000	1014.635044
4.070000	1014.991572
4.080000	1014.358585
4.090000	1014.742151
4.100000	1017.832527
4.110000	1023.238303
4.120000	1027.716612
4.130000	1028.821296
4.140000	1028.029463
4.150000	1032.170311
4.160000	1044.416919
4.170000	1062.255004
4.180000	1081.216955
4.190000	1100.099915
4.200000	1119.105397
4.210000	1135.019954
4.220000	1144.411031
4.230000	1148.370158
4.240000	1152.480011
4.250000	1161.803209
4.260000	1177.288558
4.270000	1190.628284
4.280000	1197.859729
4.290000	1207.237507
4.300000	1226.513341
4.310000	1247.887727
4.320000	1259.907171
4.330000	1262.318836
4.340000	1263.742026
4.350000	1263.808440
4.360000	1257.981796
4.370000	1247.062238
4.380000	1234.645279
4.390000	1224.064510
4.400000	1214.713618
4.410000	1205.480881
4.420000	1198.873854
4.430000	1195.975088
4.440000	1193.771044
4.450000	1190.554199
4.460000	1185.083937
4.470000	1180.893941
4.480000	1175.126551
4.490000	1168.991882
4.500000	1163.916528
4.510000	1160.166470
4.520000	1158.119709
4.530000	1157.084070
4.540000	1157.070485
4.550000	1159.417352
4.560000	1163.761656
4.570000	1171.834478
4.580000	1178.846028
4.590000	1187.349225
4.600000	1197.668067
4.610000	1209.605995
4.620000	1219.891435
4.630000	1226.943497
4.640000	1235.541333
4.650000	1245.342292
4.660000	1260.277954
4.670000	1274.121119
4.680000	1287.775037
4.690000	1301.639041
4.700000	1318.351676
4.710000	1331.872783
4.720000	1337.671694
4.730000	1337.863582
4.740000	1332.725027
4.750000	1320.921205
4.760000	1302.519672
4.770000	1284.066952
4.780000	1268.039662
4.790000	1252.603569
4.800000	1235.627725
4.810000	1220.222974
4.820000	1208.614576
4.830000	1202.575177
4.840000	1198.653936
4.850000	1197.003606
4.860000	1196.087783
4.870000	1193.829135
4.880000	1187.919030
4.890000	1178.726161
4.900000	1168.819901
4.910000	1162.691474
4.920000	1159.100794
4.930000	1158.055390
4.940000	1157.437096
4.950000	1157.820683
4.960000	1158.162325
4.970000	1156.977522
4.980000	1158.629083
4.990000	1162.846474
5.000000	1169.487059
5.010000	1175.765055
5.020000	1181.408176
5.030000	1186.072352
5.040000	1186.375863
5.050000	1185.786032
5.060000	1192.409851
5.070000	1207.533850
5.080000	1223.805619
5.090000	1229.320635
5.100000	1223.282657
5.110000	1201.481418
5.120000	1166.828571
5.130000	1127.371556
5.140000	1090.420300
5.150000	1056.289573
5.160000	1021.046700
5.170000	986.602549
5.180000	954.048991
5.190000	924.960882
5.200000	904.103295
5.210000	888.674229
5.220000	875.197416
5.230000	859.760583
5.240000	844.347799
5.250000	828.212026
5.260000	812.876193
5.270000	799.700645
5.280000	788.102715
5.290000	777.558727
5.300000	767.698120
5.310000	758.117675
5.320000	749.329486
5.330000	739.369084
5.340000	730.671341
5.350000	723.980062
5.360000	718.371968
5.370000	715.293363
5.380000	710.752601
5.390000	707.987251
5.400000	706.817029
5.410000	707.040042
5.420000	705.899176
5.430000	699.780990
5.440000	687.009589
5.450000	667.214229
5.460000	637.801693
5.470000	594.329271
5.480000	535.376372
5.490000	460.194242
5.500000	386.443376
5.510000	316.203402
5.520000	241.810360
5.530000	158.045284
5.540000	84.351933
5.550000	23.078225
5.560000	-26.695868
5.570000	-62.360132
5.580000	-81.837922
5.590000	-88.470996
5.600000	-88.981156
5.610000	-89.573273
5.620000	-91.103469
5.630000	-96.007930
5.640000	-99.869267
5.650000	-102.450646
5.660000	-103.632900
5.670000	-104.561949
5.680000	-107.064448
5.690000	-111.670001
5.700000	-118.161856
5.710000	-124.107476
5.720000	-128.265641
5.730000	-135.565933
5.740000	-146.696073
5.750000	-162.363671
5.760000	-187.812450
5.770000	-223.823565
5.780000	-264.586060
5.790000	-295.268278
5.800000	-314.741156
5.810000	-319.718507
5.820000	-311.922367
5.830000	-306.552362
5.840000	-324.800895
5.850000	-374.384011
5.860000	-445.322457
5.870000	-514.819537
5.880000	-570.832811
5.890000	-618.733359
5.900000	-665.400967
5.910000	-714.955490
5.920000	-765.641082
5.930000	-809.182032
5.940000	-839.911566
5.950000	-858.449927
5.960000	-874.231218
5.970000	-899.083560
5.980000	-932.209555
5.990000	-964.388278
6.000000	-993.235075
6.010000	-1022.739760
6.020000	-1056.623288
6.030000	-1089.764555
6.040000	-1114.703506
6.050000	-1144.210835
6.060000	-1190.954142
6.070000	-1270.595910
6.080000	-1361.176559
6.090000	-1448.858624
6.100000	-1532.397966
6.110000	-1599.462565
6.120000	-1659.650009
6.130000	-1719.737524
6.140000	-1777.542805
6.150000	-1815.184544
6.160000	-1825.166149
6.170000	-1815.861355
6.180000	-1800.177817
6.190000	-1779.884137
6.200000	-1753.223718
6.210000	-1722.629681
6.220000	-1700.341803
6.230000	-1698.754883
6.240000	-1715.800034
6.250000	-1741.906648
6.260000	-1767.974008
6.270000	-1789.118389
6.280000	-1801.867514
6.290000	-1805.386949
6.300000	-1806.498866
6.310000	-1811.371092
6.320000	-1816.488221
6.330000	-1819.075742
6.340000	-1820.207145
6.350000	-1821.167158
6.360000	-1827.658230
6.370000	-1839.295710
6.380000	-1857.836201
6.390000	-1881.135026
6.400000	-1909.743516
6.410000	-1940.018543
6.420000	-1963.694295
6.430000	-1975.299656
6.440000	-1974.382526
6.450000	-1961.975581
6.460000	-1938.125840
6.470000	-1903.043455
6.480000	-1860.604423
6.490000	-1818.848318
6.500000	-1782.800619
6.510000	-1751.362582
6.520000	-1715.702117
6.530000	-1673.621918
6.540000	-1626.340139
6.550000	-1575.610152
6.560000	-1523.707300
6.570000	-1474.330265
6.580000	-1429.464645
6.590000	-1389.106717
6.600000	-1351.612860
6.610000	-1324.303389
6.620000	-1308.473678
6.630000	-1301.886387
6.640000	-1298.052383
6.650000	-1296.214887
6.660000	-1296.363079
6.670000	-1296.267415
6.680000	-1291.731999
6.690000	-1281.725753
6.700000	-1270.846986
6.710000	-1259.235930
6.720000	-1244.686415
6.730000	-1223.472951
6.740000	-1199.945830
6.750000	-1178.106934
6.760000	-1159.931035
6.770000	-1142.458822
6.780000	-1123.650314
6.790000	-1098.200040
6.800000	-1067.452900
6.810000	-1034.344071
6.820000	-1003.659078
6.830000	-974.537828
6.840000	-945.261512
6.850000	-912.459040
6.860000	-874.935287
6.870000	-835.456527
6.880000	-797.342670
6.890000	-762.515617
6.900000	-729.807024
6.910000	-698.307553
6.920000	-667.003231
6.930000	-636.168503
6.940000	-606.265425
6.950000	-582.775371
6.960000	-562.235173
6.970000	-539.108649
6.980000	-506.600214
6.990000	-468.870752
7.000000	-430.698991
7.010000	-394.692233
7.020000	-360.521682
7.030000	-327.912473
7.040000	-298.080374
7.050000	-269.858036
7.060000	-243.040202
7.070000	-219.206953
7.080000	-200.399703
7.090000	-186.281030
7.100000	-172.145519
7.110000	-158.434172
7.120000	-146.625733
7.130000	-137.984888
7.140000	-129.492290
7.150000	-117.264622
7.160000	-102.771554
7.170000	-86.272314
7.180000	-68.784126
7.190000	-49.673308
7.200000	-30.533931
7.210000	-14.141940
7.220000	1.331244
7.230000	15.652824
7.240000	29.133693
7.250000	43.052753
7.260000	60.209550
7.270000	80.714583
7.280000	101.880399
7.290000	120.979036
7.300000	134.819433
7.310000	146.530360
7.320000	159.361700
7.330000	173.676709
7.340000	190.508815
7.350000	211.427590
7.360000	238.928249
7.370000	266.423352
7.380000	284.610101
7.390000	290.038444
7.400000	284.910777
7.410000	278.609935
7.420000	274.464879
7.430000	273.779289
7.440000	271.605274
7.450000	267.230443
7.460000	258.344816
7.470000	249.971974
7.480000	242.341458
7.490000	237.655888
7.500000	230.921994
7.510000	224.296457
7.520000	219.438206
7.530000	217.205228
7.540000	218.224206
7.550000	219.708401
7.560000	220.953055
7.570000	220.145680
7.580000	218.293481
7.590000	215.851959
7.600000	215.577422
7.610000	216.819423
7.620000	220.803736
7.630000	226.050018
7.640000	231.969740
7.650000	237.215777
7.660000	243.080245
7.670000	248.980310
7.680000	255.464451
7.690000	262.346755
7.700000	274.466387
7.710000	288.628393
7.720000	300.402188
7.730000	308.856897
7.740000	320.295100
7.750000	335.674624
7.760000	346.766675
7.770000	348.772319
7.780000	341.521496
7.790000	329.152363
7.800000	313.540599
7.810000	294.798038
7.820000	275.169347
7.830000	257.047884
7.840000	240.395151
7.850000	222.226677
7.860000	205.574489
7.870000	193.342096
7.880000	185.348968
7.890000	176.380598
7.900000	165.739394
7.910000	155.697429
7.920000	144.388589
7.930000	132.625045
7.940000	121.308083
7.950000	112.492510
7.960000	104.153011
7.970000	97.639175
7.980000	91.927978
7.990000	87.392853
8.000000	82.300290
8.010000	77.757422
8.020000	74.274006
8.030000	71.388989
8.040000	70.522506
8.050000	69.279649
8.060000	65.039909
8.070000	56.777497
8.080000	47.838749
8.090000	40.876152
8.100000	38.907924
8.110000	41.568127
8.120000	47.577154
8.130000	53.857680
8.140000	58.518775
8.150000	66.769148
8.160000	78.046911
8.170000	90.278777
8.180000	94.491691
8.190000	86.403501
8.200000	63.877856
8.210000	30.145069
8.220000	-10.129989
8.230000	-49.837986
8.240000	-86.882992
8.250000	-120.222042
8.260000	-152.711537
8.270000	-184.998247
8.280000	-214.930665
8.290000	-242.177774
8.300000	-267.551304
8.310000	-294.763687
8.320000	-322.891009
8.330000	-351.415897
8.340000	-379.628743
8.350000	-409.808247
8.360000	-438.415805
8.370000	-463.269666
8.380000	-483.271220
8.390000	-503.814327
8.400000	-524.175270
8.410000	-543.423886
8.420000	-556.466707
8.430000	-565.117924
8.440000	-570.488404
8.450000	-575.215025
8.460000	-579.903400
8.470000	-582.704268
8.480000	-583.722653
8.490000	-582.256850
8.500000	-578.275963
8.510000	-572.543820
8.520000	-566.229247
8.530000	-561.231643
8.540000	-554.567946
8.550000	-545.323951
8.560000	-535.981416
8.570000	-528.814435
8.580000	-520.778994
8.590000	-504.357978
8.600000	-484.342347
8.610000	-473.655786
8.620000	-483.298967
8.630000	-512.987764
8.640000	-556.303851
8.650000	-604.712321
8.660000	-653.049662
8.670000	-697.171279
8.680000	-736.202658
8.690000	-771.033217
8.700000	-803.757024
8.710000	-830.276129
8.720000	-851.055151
8.730000	-869.257597
8.740000	-890.758441
8.750000	-913.615209
8.760000	-934.522166
8.770000	-955.050284
8.780000	-974.008924
8.790000	-991.887137
8.800000	-1005.549431
8.810000	-1018.138135
8.820000	-1027.806330
8.830000	-1034.122972
8.840000	-1035.790649
8.850000	-1034.178105
8.860000	-1030.838281
8.870000	-1026.293042
8.880000	-1020.279549
8.890000	-1014.141331
8.900000	-1005.773428
8.910000	-994.054206
8.920000	-979.667280
8.930000	-962.359313
8.940000	-945.298452
8.950000	-928.383139
8.960000	-913.997257
8.970000	-901.459118
8.980000	-887.081471
8.990000	-871.273100
9.000000	-855.561929
9.010000	-838.137492
9.020000	-816.432959
9.030000	-787.058674
9.040000	-759.063596
9.050000	-741.037092
9.060000	-740.415950
9.070000	-759.392368
9.080000	-792.805747
9.090000	-830.792066
9.100000	-865.257445
9.110000	-890.922894
9.120000	-909.785548
9.130000	-924.110563
9.140000	-934.698743
9.150000	-940.013933
9.160000	-940.004468
9.170000	-937.312815
9.180000	-935.032533
9.190000	-934.327145
9.200000	-934.442388
9.210000	-936.065462
9.220000	-936.228532
9.230000	-934.530114
9.240000	-929.397028
9.250000	-921.385799
9.260000	-912.287039
9.270000	-901.285388
9.280000	-887.895280
9.290000	-871.902637
9.300000	-854.223124
9.310000	-836.905745
9.320000	-819.259094
9.330000	-800.624163
9.340000	-780.008934
9.350000	-758.061429
9.360000	-734.470035
9.370000	-711.218445
9.380000	-688.305340
9.390000	-666.757479
9.400000	-643.173881
9.410000	-617.015969
9.420000	-593.101586
9.430000	-570.970605
9.440000	-547.064276
9.450000	-515.294637
9.460000	-477.758632
9.470000	-442.677517
9.480000	-416.155373
9.490000	-403.098141
9.500000	-403.579375
9.510000	-413.881716
9.520000	-425.028455
9.530000	-432.382892
9.540000	-434.524872
9.550000	-433.932765
9.560000	-433.058689
9.570000	-426.832262
9.580000	-416.312437
9.590000	-402.099739
9.600000	-388.612048
9.610000	-375.388664
9.620000	-361.611660
9.630000	-349.051812
9.640000	-337.305208
9.650000	-325.747057
9.660000	-312.026176
9.670000	-299.155318
9.680000	-284.763428
9.690000	-269.602681
9.700000	-252.525436
9.710000	-234.084136
9.720000	-215.317649
9.730000	-194.252298
9.740000	-172.815000
9.750000	-150.440817
9.760000	-127.341126
9.770000	-103.655220
9.780000	-80.228044
9.790000	-56.557549
9.800000	-31.805102
9.810000	-7.155939
9.820000	16.261390
9.830000	38.893957
9.840000	63.645819
9.850000	87.572874
9.860000	108.678497
9.870000	132.585596
9.880000	162.350899
9.890000	202.583248
9.900000	245.303287
9.910000	285.571034
9.920000	316.566188
9.930000	332.878928
9.940000	340.176302
9.950000	342.165448
9.960000	344.777084
9.970000	348.087665
9.980000	352.029792
9.990000	355.660344
10.000000	359.272639
10.010000	367.231487
10.020000	379.491193
10.030000	393.784886
10.040000	406.026975
10.050000	417.007765
10.060000	427.887054
10.070000	438.885206
10.080000	449.068295
10.090000	457.420608
10.100000	465.582201
10.110000	474.613638
10.120000	484.753582
10.130000	494.796276
10.140000	505.925607
10.150000	518.638278
10.160000	533.091787
10.170000	547.804695
10.180000	562.256682
10.190000	577.304795
10.200000	593.083314
10.210000	608.465638
10.220000	623.578072
10.230000	637.622436
10.240000	652.746557
10.250000	668.103779
10.260000	683.249380
10.270000	699.256320
10.280000	716.417546
10.290000	732.068676
10.300000	746.595809
10.310000	763.224327
10.320000	788.786580
10.330000	822.027466
10.340000	857.970597
10.350000	889.495273
10.360000	910.160789
10.370000	919.317041
10.380000	920.032996
10.390000	920.491723
10.400000	917.546683
10.410000	914.690965
10.420000	908.715338
10.430000	904.586419
10.440000	904.884903
10.450000	908.479510
10.460000	913.727927
10.470000	918.713734
10.480000	924.588282
10.490000	930.952952
10.500000	936.455609
10.510000	940.871860
10.520000	945.002673
10.530000	947.462004
10.540000	949.902310
10.550000	952.726590
10.560000	956.814767
10.570000	960.328853
10.580000	965.416943
10.590000	971.602966
10.600000	979.033501
10.610000	985.216113
10.620000	989.668798
10.630000	994.850817
10.640000	1000.978338
10.650000	1008.834401
10.660000	1018.299632
10.670000	1028.831292
10.680000	1038.632185
10.690000	1047.179948
10.700000	1056.988225
10.710000	1068.538384
10.720000	1079.685954
10.730000	1087.577307
10.740000	1098.424544
10.750000	1114.287640
10.760000	1137.847834
10.770000	1166.332828
10.780000	1195.951659
10.790000	1220.722156
10.800000	1232.065328
10.810000	1231.489642
10.820000	1224.206423
10.830000	1216.276848
10.840000	1207.681657
10.850000	1197.078038
10.860000	1185.514518
10.870000	1176.904922
10.880000	1171.689086
10.890000	1169.748270
10.900000	1169.210246
10.910000	1169.613637
10.920000	1169.413301
10.930000	1166.161451
10.940000	1161.980548
10.950000	1157.055623
10.960000	1152.568913
10.970000	1148.297674
10.980000	1142.839125
10.990000	1136.897277
11.000000	1131.127641
11.010000	1127.853226
11.020000	1128.097677
11.030000	1131.490418
11.040000	1137.418761
11.050000	1143.808610
11.060000	1147.421624
11.070000	1150.159183
11.080000	1150.433113
11.090000	1151.541327
11.100000	1153.119293
11.110000	1156.613119
11.120000	1160.147612
11.130000	1165.379116
11.140000	1170.517540
11.150000	1172.826820
11.160000	1176.590945
11.170000	1185.623977
11.180000	1203.347222
11.190000	1223.411452
11.200000	1243.130574
11.210000	1255.203116
11.220000	1251.929543
11.230000	1231.360454
11.240000	1202.441479
11.250000	1169.855616
11.260000	1137.634306
11.270000	1107.359871
11.280000	1079.840625
11.290000	1057.216528
11.300000	1038.052320
11.310000	1023.094150
11.320000	1009.602522
11.330000	995.655196
11.340000	980.837804
11.350000	963.560371
11.360000	943.757710
11.370000	922.482125
11.380000	901.693353
11.390000	880.743023
11.400000	859.977760
11.410000	842.022593
11.420000	824.259893
11.430000	809.328432
11.440000	795.875930
11.450000	785.654024
11.460000	777.494868
11.470000	768.652555
11.480000	761.137156
11.490000	753.986218
11.500000	750.133111
11.510000	748.986166
11.520000	749.470034
11.530000	749.324814
11.540000	747.150926
11.550000	745.348485
11.560000	745.838064
11.570000	745.365144
11.580000	745.545414
11.590000	750.060609
11.600000	761.589432
11.610000	776.076622
11.620000	783.956975
11.630000	778.104269
11.640000	751.328884
11.650000	705.494256
11.660000	649.397194
11.670000	591.219292
11.680000	535.109952
11.690000	482.272145
11.700000	433.831530
11.710000	388.988030
11.720000	352.569794
11.730000	323.020511
11.740000	297.972864
11.750000	270.039134
11.760000	237.724947
11.770000	202.732260
11.780000	165.137851
11.790000	128.432939
11.800000	93.875687
11.810000	62.463524
11.820000	31.266247
11.830000	1.167650
11.840000	-26.011333
11.850000	-47.797591
11.860000	-65.637950
11.870000	-78.093623
11.880000	-88.951415
11.890000	-97.717506
11.900000	-106.612386
11.910000	-113.336134
11.920000	-118.288378
11.930000	-122.297322
11.940000	-124.969503
11.950000	-126.936923
11.960000	-125.317014
11.970000	-119.592833
11.980000	-112.349963
11.990000	-107.596672
12.000000	-102.040653
12.010000	-91.609932
12.020000	-77.090017
12.030000	-68.327179
12.040000	-76.154960
12.050000	-106.377248
12.060000	-156.143532
12.070000	-217.997572
12.080000	-282.469056
12.090000	-342.515281
12.100000	-394.673440
12.110000	-438.632864
12.120000	-476.766667
12.130000	-507.088550
12.140000	-531.220301
12.150000	-548.221448
12.160000	-565.046951
12.170000	-585.363724
12.180000	-609.215801
12.190000	-634.853629
12.200000	-660.403935
12.210000	-686.035832
12.220000	-710.274635
12.230000	-731.906220
12.240000	-749.165009
12.250000	-763.139350
12.260000	-773.072260
12.270000	-781.403576
12.280000	-786.323857
12.290000	-789.366697
12.300000	-790.260565
12.310000	-790.358033
12.320000	-789.884947
12.330000	-787.034898
12.340000	-782.875337
12.350000	-777.734847
12.360000	-771.556777
12.370000	-763.792542
12.380000	-755.602325
12.390000	-746.873135
12.400000	-737.675079
12.410000	-724.972204
12.420000	-711.123289
12.430000	-702.108820
12.440000	-708.278054
12.450000	-732.586637
12.460000	-771.443294
12.470000	-814.741960
12.480000	-855.980771
12.490000	-889.930047
12.500000	-914.556559
12.510000	-933.831082
12.520000	-947.484075
12.530000	-955.429573
12.540000	-957.107481
12.550000	-956.070119
12.560000	-957.767085
12.570000	-960.054350
12.580000	-965.805227
12.590000	-973.391184
12.600000	-980.205856
12.610000	-983.760377
12.620000	-983.644421
12.630000	-982.503711
12.640000	-978.770674
12.650000	-972.952175
12.660000	-964.928139
12.670000	-955.436091
12.680000	-942.110332
12.690000	-927.968191
12.700000	-913.652880
12.710000	-900.201720
12.720000	-886.556818
12.730000	-869.463153
12.740000	-850.508114
12.750000	-828.083314
12.760000	-805.507225
12.770000	-784.065612
12.780000	-761.196920
12.790000	-734.750283
12.800000	-701.585231
12.810000	-670.502504
12.820000	-648.670559
12.830000	-641.284211
12.840000	-647.775035
12.850000	-663.088642
12.860000	-681.913914
12.870000	-698.259706
12.880000	-711.435908
12.890000	-720.131002
12.900000	-726.335623
12.910000	-729.029389
12.920000	-725.599696
12.930000	-717.975679
12.940000	-707.564460
12.950000	-700.303227
12.960000	-695.880897
12.970000	-692.996907
12.980000	-689.564033
12.990000	-683.058252
13.000000	-674.291867
13.010000	-664.155345
13.020000	-653.388145
13.030000	-643.957991
13.040000	-634.176546
13.050000	-621.794576
13.060000	-606.338615
13.070000	-588.336007
13.080000	-569.873698
13.090000	-549.569941
13.100000	-528.450721
13.110000	-507.505724
13.120000	-487.061158
13.130000	-465.805533
13.140000	-443.710257
13.150000	-420.807257
13.160000	-399.400621
13.170000	-380.172824
13.180000	-358.444492
13.190000	-331.244585
13.200000	-298.531176
13.210000	-270.378829
13.220000	-252.975141
13.230000	-245.194202
13.240000	-245.118073
13.250000	-248.704806
13.260000	-255.304639
13.270000	-259.904329
13.280000	-261.870724
13.290000	-262.810743
13.300000	-263.134174
13.310000	-262.749679
13.320000	-258.088549
13.330000	-252.742000
13.340000	-247.736175
13.350000	-244.435451
13.360000	-241.075312
13.370000	-236.162991
13.380000	-231.122371
13.390000	-223.914165
13.400000	-216.881177
13.410000	-208.688177
13.420000	-203.019941
13.430000	-197.478215
13.440000	-192.198289
13.450000	-183.623963
13.460000	-172.420640
13.470000	-159.803520
13.480000	-146.674317
13.490000	-134.349624
13.500000	-119.614173
13.510000	-104.608952
13.520000	-87.909301
13.530000	-73.915894
13.540000	-61.219971
13.550000	-48.253781
13.560000	-33.896464
13.570000	-20.632716
13.580000	-8.263280
13.590000	7.635711
13.600000	28.664693
13.610000	50.858179
13.620000	66.886206
13.630000	75.734226
13.640000	78.750560
13.650000	79.586400
13.660000	80.915482
13.670000	81.063334
13.680000	81.057980
13.690000	80.840886
13.700000	80.170358
13.710000	80.593851
13.720000	83.586484
13.730000	90.316700
13.740000	96.291233
13.750000	100.687250
13.760000	102.967834
13.770000	105.704181
13.780000	108.273616
13.790000	111.362773
13.800000	115.216360
13.810000	118.655739
13.820000	122.469566
13.830000	127.253342
13.840000	134.029217
13.850000	142.820246
13.860000	152.558022
13.870000	163.362671
13.880000	174.724123
13.890000	185.876857
13.900000	197.533514
13.910000	208.692332
13.920000	220.989581
13.930000	233.139309
13.940000	246.759917
13.950000	258.880068
13.960000	271.182852
13.970000	282.252222
13.980000	290.244610
13.990000	296.941086
14.000000	306.620070
14.010000	319.592646
14.020000	331.289134
14.030000	338.220935
14.040000	341.945898
14.050000	340.814331
14.060000	335.249013
14.070000	328.055003
14.080000	321.190607
14.090000	313.929174
14.100000	301.094254
14.110000	284.463451
14.120000	270.318006
14.130000	264.638033
14.140000	264.491806
14.150000	254.753706
14.160000	231.337232
14.170000	207.892788
14.180000	197.823391
14.190000	204.980434
14.200000	223.591300
14.210000	260.410719
14.220000	306.624727
14.230000	348.469067
14.240000	377.648212
14.250000	401.545558
14.260000	421.630575
14.270000	434.249804
14.280000	441.604211
14.290000	445.595122
14.300000	442.203512
14.310000	426.580112
14.320000	409.153419
14.330000	399.203949
14.340000	398.391081
14.350000	402.787814
14.360000	407.601750
14.370000	415.032947
14.380000	425.783714
14.390000	441.589666
14.400000	462.603414
14.410000	488.787951
14.420000	522.404846
14.430000	558.943050
14.440000	590.505721
14.450000	608.070455
14.460000	611.272425
14.470000	604.519669
14.480000	594.019416
14.490000	584.272851
14.500000	579.407339
14.510000	575.311999
14.520000	572.115464
14.530000	565.647859
14.540000	560.489429
14.550000	556.278574
14.560000	553.173198
14.570000	550.214545
14.580000	543.824707
14.590000	534.135578
14.600000	520.448744
14.610000	506.376524
14.620000	491.035102
14.630000	474.929214
14.640000	456.924811
14.650000	440.468925
14.660000	427.117013
14.670000	417.647438
14.680000	408.939353
14.690000	401.810858
14.700000	396.066237
14.710000	390.612378
14.720000	385.169153
14.730000	379.387407
14.740000	376.254828
14.750000	372.451933
14.760000	368.992449
14.770000	367.157125
14.780000	366.699027
14.790000	364.159869
14.800000	360.390360
14.810000	360.146137
14.820000	364.711502
14.830000	366.747940
14.840000	360.008066
14.850000	341.330514
14.860000	311.287045
14.870000	272.891825
14.880000	230.541716
14.890000	189.761323
14.900000	150.753386
14.910000	112.599216
14.920000	71.929659
14.930000	31.424914
14.940000	-5.253661
14.950000	-37.119166
14.960000	-67.478016
14.970000	-98.021530
14.980000	-129.729949
14.990000	-160.946327
15.000000	-192.685706
15.010000	-222.224148
15.020000	-251.350627
15.030000	-279.191566
15.040000	-305.046405
15.050000	-328.857935
15.060000	-351.441901
15.070000	-370.880919
15.080000	-386.872753
15.090000	-400.271461
15.100000	-413.672897
15.110000	-426.350846
15.120000	-437.170008
15.130000	-446.465813
15.140000	-454.699122
15.150000	-461.610575
15.160000	-468.932258
15.170000	-473.774637
15.180000	-479.213879
15.190000	-485.630164
15.200000	-491.188384
15.210000	-491.176856
15.220000	-486.210011
15.230000	-487.117523
15.240000	-503.260276
15.250000	-536.403417
15.260000	-583.998198
15.270000	-637.706327
15.280000	-692.778970
15.290000	-744.709632
15.300000	-792.268539
15.310000	-835.416066
15.320000	-878.469995
15.330000	-917.800645
15.340000	-954.049870
15.350000	-981.868833
15.360000	-1011.372318
15.370000	-1039.266993
15.380000	-1072.422838
15.390000	-1119.689823
15.400000	-1236.292854
15.410000	-1265.054274
15.420000	-1273.828631
15.430000	-1274.900500
15.440000	-1274.965036
15.450000	-1269.081576
15.460000	-1266.841463
15.470000	-1262.253255
15.480000	-1259.779957
15.490000	-1252.092508
15.500000	-1247.126944
15.510000	-1240.263771
15.520000	-1232.522498
15.530000	-1218.115998
15.540000	-1200.643397
15.550000	-1189.349859
15.560000	-1193.463599
15.570000	-1214.261113
15.580000	-1247.634786
15.590000	-1285.527158
15.600000	-1323.514786
15.610000	-1356.824259
15.620000	-1384.771212
15.630000	-1407.488633
15.640000	-1428.067283
15.650000	-1444.503690
15.660000	-1453.390649
15.670000	-1454.892841
15.680000	-1454.425846
15.690000	-1453.301245
15.700000	-1452.490405
15.710000	-1450.733582
15.720000	-1449.592532
15.730000	-1444.846267
15.740000	-1436.067713
15.750000	-1424.659674
15.760000	-1413.575902
15.770000	-1402.826788
15.780000	-1389.103133
15.790000	-1373.032567
15.800000	-1355.659043
15.810000	-1339.268970
15.820000	-1321.228318
15.830000	-1299.867893
15.840000	-1275.495875
15.850000	-1250.498350
15.860000	-1223.445079
15.870000	-1195.494336
15.880000	-1167.752176
15.890000	-1141.180908
15.900000	-1115.747123
15.910000	-1086.878527
15.920000	-1055.446789
15.930000	-1025.607848
15.940000	-997.156734
15.950000	-965.680770
15.960000	-927.222650
15.970000	-885.128026
15.980000	-847.655884
15.990000	-819.251508
16.000000	-804.107999
16.010000	-798.371996
16.020000	-794.903052
16.030000	-790.855769
16.040000	-786.056450
16.050000	-779.354043
16.060000	-771.231028
16.070000	-761.199182
16.080000	-747.417585
16.090000	-727.056792
16.100000	-702.633501
16.110000	-678.600547
16.120000	-656.187537
16.130000	-633.816370
16.140000	-612.427741
16.150000	-591.038961
16.160000	-572.690509
16.170000	-556.261094
16.180000	-542.301631
16.190000	-529.153705
16.200000	-515.924181
16.210000	-500.719004
16.220000	-481.220447
16.230000	-463.982990
16.240000	-450.509926
16.250000	-440.247844
16.260000	-428.460530
16.270000	-415.197884
16.280000	-401.418427
16.290000	-383.138568
16.300000	-361.059493
16.310000	-335.080100
16.320000	-310.384208
16.330000	-289.014883
16.340000	-271.038110
16.350000	-255.614538
16.360000	-242.025777
16.370000	-231.218268
16.380000	-207.633683
16.390000	-171.530411
16.400000	-120.231229
16.410000	-65.582061
16.420000	-11.804729
16.430000	38.447191
16.440000	79.283865
16.450000	114.806683
16.460000	142.694068
16.470000	166.856480
16.480000	187.100124
16.490000	207.592649
16.500000	225.161012
16.510000	240.682204
16.520000	250.218203
16.530000	254.461266
16.540000	259.300386
16.550000	268.245107
16.560000	284.727597
16.570000	305.021785
16.580000	329.512518
16.590000	363.826534
16.600000	408.297161
16.610000	456.293666
16.620000	495.414712
16.630000	521.800261
16.640000	541.576270
16.650000	554.305982
16.660000	566.106884
16.670000	576.478481
16.680000	589.335141
16.690000	604.993842
16.700000	625.254102
16.710000	655.539675
16.720000	688.492354
16.730000	718.445095
16.740000	744.432337
16.750000	770.386655
16.760000	798.056203
16.770000	824.004384
16.780000	845.372588
16.790000	864.327364
16.800000	877.699614
16.810000	885.351137
16.820000	888.389697
16.830000	889.405780
16.840000	890.773139
16.850000	892.481648
16.860000	894.518159
16.870000	897.253965
16.880000	901.293012
16.890000	904.381422
16.900000	906.437277
16.910000	906.537133
16.920000	906.954666
16.930000	909.055132
16.940000	911.830756
16.950000	913.937855
16.960000	915.410032
16.970000	916.186807
16.980000	917.025118
16.990000	917.132141
17.000000	916.677218
17.010000	918.787029
17.020000	925.361103
17.030000	935.803936
17.040000	942.728917
17.050000	943.871198
17.060000	948.164140
17.070000	959.628645
17.080000	974.281413
17.090000	979.734056
17.100000	978.143358
17.110000	981.571732
17.120000	997.698654
17.130000	1025.090090
17.140000	1048.254704
17.150000	1060.338513
17.160000	1064.210774
17.170000	1062.626902
17.180000	1056.201534
17.190000	1046.960021
17.200000	1037.902774
17.210000	1029.661375
17.220000	1018.968310
17.230000	1010.760528
17.240000	1005.731041
17.250000	1002.229007
17.260000	996.865001
17.270000	991.755513
17.280000	986.702402
17.290000	980.322116
17.300000	972.921347
17.310000	967.941106
17.320000	966.511259
17.330000	966.261325
17.340000	965.146432
17.350000	965.638503
17.360000	976.510310
17.370000	1003.051017
17.380000	1035.544712
17.390000	1057.824377
17.400000	1067.328535
17.410000	1066.657448
17.420000	1063.171105
17.430000	1052.504122
17.440000	1037.746757
17.450000	1026.074743
17.460000	1016.679986
17.470000	1009.025724
17.480000	1002.659832
17.490000	1003.039414
17.500000	1012.009659
17.510000	1019.400088
17.520000	1018.081234
17.530000	1008.495022
17.540000	992.202745
17.550000	971.973527
17.560000	948.699407
17.570000	926.507936
17.580000	905.899831
17.590000	885.083139
17.600000	864.486806
17.610000	848.048452
17.620000	837.448070
17.630000	827.040814
17.640000	812.460019
17.650000	793.090654
17.660000	772.864959
17.670000	753.514945
17.680000	733.641778
17.690000	714.995008
17.700000	700.134592
17.710000	689.182113
17.720000	678.664572
17.730000	667.422575
17.740000	657.583874
17.750000	651.376895
17.760000	647.206205
17.770000	645.383261
17.780000	649.216852
17.790000	657.423704
17.800000	676.294926
17.810000	704.489737
17.820000	744.429810
17.830000	785.900795
17.840000	824.293069
17.850000	858.701588
17.860000	895.890192
17.870000	941.879709
17.880000	991.168265
17.890000	1034.760725
17.900000	1059.480561
17.910000	1062.047843
17.920000	1044.853894
17.930000	1017.399814
17.940000	986.264384
17.950000	954.453676
17.960000	919.705289
17.970000	886.236728
17.980000	856.519291
17.990000	836.072540
18.000000	820.684108
18.010000	806.954615
18.020000	791.559640
18.030000	774.890546
18.040000	757.144759
18.050000	736.530931
18.060000	713.445597
18.070000	689.216706
18.080000	665.122245
18.090000	641.609259
18.100000	619.508783
18.110000	598.707824
18.120000	578.936597
18.130000	562.521656
18.140000	551.070329
18.150000	543.368722
18.160000	537.576409
18.170000	533.594388
18.180000	535.133179
18.190000	542.183139
18.200000	553.392639
18.210000	573.494712
18.220000	602.344543
18.230000	636.168555
18.240000	661.976426
18.250000	668.552285
18.260000	658.684838
18.270000	632.633512
18.280000	598.117893
18.290000	557.403617
18.300000	514.927134
18.310000	474.542042
18.320000	434.423727
18.330000	398.398627
18.340000	368.283795
18.350000	345.288887
18.360000	325.163892
18.370000	302.878376
18.380000	279.094006
18.390000	252.496496
18.400000	223.061396
18.410000	190.146323
18.420000	157.741249
18.430000	127.154863
18.440000	98.784344
18.450000	73.195945
18.460000	51.193169
18.470000	34.604587
18.480000	21.623082
18.490000	11.714129
18.500000	3.414181
18.510000	-4.478876
18.520000	-12.429630
18.530000	-18.302009
18.540000	-22.919174
18.550000	-26.762144
18.560000	-28.375010
18.570000	-23.519918
18.580000	-15.490480
18.590000	-16.608440
18.600000	-34.566188
18.610000	-72.658169
18.620000	-124.223902
18.630000	-185.129161
18.640000	-247.803744
18.650000	-306.706111
18.660000	-358.866028
18.670000	-404.042424
18.680000	-443.471852
18.690000	-474.343562
18.700000	-496.728523
18.710000	-515.300594
18.720000	-534.962727
18.730000	-557.225530
18.740000	-582.170538
18.750000	-608.791986
18.760000	-635.354491
18.770000	-655.657959
18.780000	-671.205011
18.790000	-680.494722
18.800000	-687.382905
18.810000	-687.622175
18.820000	-684.895809
18.830000	-680.055356
18.840000	-675.727366
18.850000	-672.129300
18.860000	-666.197556
18.870000	-660.533373
18.880000	-653.637978
18.890000	-646.258694
18.900000	-637.054657
18.910000	-628.978042
18.920000	-615.093322
18.930000	-592.357460
18.940000	-565.469527
18.950000	-549.749218
18.960000	-557.487474
18.970000	-585.415188
18.980000	-628.150117
18.990000	-674.382256
19.000000	-718.145025
19.010000	-756.341669
19.020000	-789.467797
19.030000	-817.618174
19.040000	-839.104056
19.050000	-854.218696
19.060000	-867.403799
19.070000	-881.801249
19.080000	-896.010171
19.090000	-909.371780
19.100000	-921.269425
19.110000	-934.270645
19.120000	-945.834387
19.130000	-954.826590
19.140000	-960.052537
19.150000	-959.366745
19.160000	-954.601894
19.170000	-948.563305
19.180000	-942.133151
19.190000	-934.408921
19.200000	-923.649497
19.210000	-910.582140
19.220000	-896.154029
19.230000	-879.738703
19.240000	-862.317389
19.250000	-845.551621
19.260000	-829.798388
19.270000	-814.683817
19.280000	-795.923322
19.290000	-778.830438
19.300000	-756.669940
19.310000	-727.979694
19.320000	-694.747557
19.330000	-669.479395
19.340000	-658.463015
19.350000	-657.939780
19.360000	-665.503819
19.370000	-677.050479
19.380000	-688.198855
19.390000	-694.816859
19.400000	-699.901808
19.410000	-704.900649
19.420000	-708.919995
19.430000	-706.292981
19.440000	-697.944593
19.450000	-687.013012
19.460000	-678.629596
19.470000	-672.038444
19.480000	-666.636559
19.490000	-661.049929
19.500000	-655.302157
19.510000	-649.048489
19.520000	-641.621575
19.530000	-633.705413
19.540000	-624.926017
19.550000	-615.685672
19.560000	-605.883549
19.570000	-595.320065
19.580000	-584.497341
19.590000	-571.936606
19.600000	-556.432729
19.610000	-538.545423
19.620000	-518.688390
19.630000	-497.809625
19.640000	-475.594407
19.650000	-453.733062
19.660000	-432.817703
19.670000	-410.969906
19.680000	-387.029725
19.690000	-363.536889
19.700000	-343.563076
19.710000	-324.407773
19.720000	-301.076432
19.730000	-271.940758
19.740000	-244.601204
19.750000	-223.785132
19.760000	-211.103240
19.770000	-202.934168
19.780000	-197.930427
19.790000	-193.064034
19.800000	-187.749641
19.810000	-181.512725
19.820000	-176.227027
19.830000	-171.272825
19.840000	-163.014251
19.850000	-151.026399
19.860000	-137.793988
19.870000	-126.767007
19.880000	-116.544646
19.890000	-105.156825
19.900000	-92.952308
19.910000	-80.865413
19.920000	-69.342316
19.930000	-58.222547
19.940000	-47.716749
19.950000	-38.230145
19.960000	-28.068534
19.970000	-15.219846
19.980000	1.594832
19.990000	20.465670
20.000000	39.275081
20.010000	56.838010
20.020000	73.310084
20.030000	89.897785
20.040000	107.696139
20.050000	126.639204
20.060000	145.430455
20.070000	165.072052
20.080000	185.179552
20.090000	205.524055
20.100000	223.942201
20.110000	239.665559
20.120000	260.079718
20.130000	287.813271
20.140000	320.222160
20.150000	348.964871
20.160000	369.728666
20.170000	386.492371
20.180000	400.246884
20.190000	412.040070
20.200000	423.453396
20.210000	432.264267
20.220000	438.686998
20.230000	440.836540
20.240000	443.292306
20.250000	449.760474
20.260000	459.573098
20.270000	469.698849
20.280000	479.548295
20.290000	488.324448
20.300000	496.548333
20.310000	503.634988
20.320000	510.908346
20.330000	518.296511
20.340000	525.957221
20.350000	532.976732
20.360000	539.029427
20.370000	545.015441
20.380000	551.790032
20.390000	561.746962
20.400000	570.888397
20.410000	581.183579
20.420000	590.330458
20.430000	599.652297
20.440000	608.455838
20.450000	618.149021
20.460000	628.599262
20.470000	640.002291
20.480000	653.099861
20.490000	667.207347
20.500000	679.951551
20.510000	689.101877
20.520000	700.848801
20.530000	716.672579
20.540000	734.759453
20.550000	751.594394
20.560000	764.695394
20.570000	774.881053
20.580000	777.639128
20.590000	775.208674
20.600000	769.604645
20.610000	763.894894
20.620000	759.588223
20.630000	753.925032
20.640000	749.609077
20.650000	746.970878
20.660000	746.987215
20.670000	746.360439
20.680000	744.060311
20.690000	741.445229
20.700000	740.824620
20.710000	738.535477
20.720000	735.289396
20.730000	730.978510
20.740000	727.447819
20.750000	723.768786
20.760000	718.960864
20.770000	716.592888
20.780000	716.484839
20.790000	717.101053
20.800000	718.701418
20.810000	721.296085
20.820000	726.944391
20.830000	733.165955
20.840000	739.212630
20.850000	746.729436
20.860000	752.487714
20.870000	757.992672
20.880000	761.106061
20.890000	766.293831
20.900000	773.732251
20.910000	779.603479
20.920000	783.052538
20.930000	789.950721
20.940000	803.384115
20.950000	819.297105
20.960000	827.718012
20.970000	829.357873
20.980000	823.064972
20.990000	808.772930
21.000000	787.098241
21.010000	761.546810
21.020000	734.813283
21.030000	707.331592
21.040000	679.210984
21.050000	652.805859
21.060000	630.625523
21.070000	611.619855
21.080000	594.388361
21.090000	574.775294
21.100000	554.181886
21.110000	530.603213
21.120000	507.338220
21.130000	482.097092
21.140000	459.527985
21.150000	437.252444
21.160000	416.742157
21.170000	395.744456
21.180000	376.649024
21.190000	362.584828
21.200000	350.886020
21.210000	341.110400
21.220000	330.462021
21.230000	320.994470
21.240000	310.036598
21.250000	299.569242
21.260000	290.619516
21.270000	282.483253
21.280000	274.546376
21.290000	267.744914
21.300000	261.813021
21.310000	257.017484
21.320000	252.084575
21.330000	244.963417
21.340000	237.709260
21.350000	235.927307
21.360000	241.331148
21.370000	242.863698
21.380000	228.624646
21.390000	197.503331
21.400000	155.945520
21.410000	105.803313
21.420000	51.278824
21.430000	-3.558081
21.440000	-55.718846
21.450000	-105.924661
21.460000	-157.385338
21.470000	-205.933289
21.480000	-248.718081
21.490000	-284.943850
21.500000	-319.730351
21.510000	-357.616413
21.520000	-396.053739
21.530000	-435.628485
21.540000	-474.367977
21.550000	-513.647943
21.560000	-549.332242
21.570000	-581.678273
21.580000	-611.965087
21.590000	-639.034649
21.600000	-662.265775
21.610000	-678.717981
21.620000	-691.583587
21.630000	-701.060318
21.640000	-712.249043
21.650000	-726.058928
21.660000	-743.583059
21.670000	-761.380073
21.680000	-777.924254
21.690000	-790.700674
21.700000	-800.944843
21.710000	-809.021558
21.720000	-815.970201
21.730000	-819.335998
21.740000	-820.342380
21.750000	-822.326524
21.760000	-823.036378
21.770000	-818.315873
21.780000	-807.076399
21.790000	-800.008715
21.800000	-805.447958
21.810000	-831.372112
21.820000	-876.465721
21.830000	-934.795368
21.840000	-996.552557
21.850000	-1053.760672
21.860000	-1105.516631
21.870000	-1150.465445
21.880000	-1191.237961
21.890000	-1227.167409
21.900000	-1256.295468
21.910000	-1279.550496
21.920000	-1301.035017
21.930000	-1326.277609
21.940000	-1354.096357
21.950000	-1382.676645
21.960000	-1409.830427
21.970000	-1436.424581
21.980000	-1460.229916
21.990000	-1480.517298
22.000000	-1495.634258
22.010000	-1507.627614
22.020000	-1517.041956
22.030000	-1523.743585
22.040000	-1526.454051
22.050000	-1524.869789
22.060000	-1520.879729
22.070000	-1515.334030
22.080000	-1510.650590
22.090000	-1503.790805
22.100000	-1496.441919
22.110000	-1488.249419
22.120000	-1481.247203
22.130000	-1470.696766
22.140000	-1457.742576
22.150000	-1446.158519
22.160000	-1434.898473
22.170000	-1419.952466
22.180000	-1398.397583
22.190000	-1378.450452
22.200000	-1369.573435
22.210000	-1373.934925
22.220000	-1389.744793
22.230000	-1407.738432
22.240000	-1424.270991
22.250000	-1435.213178
22.260000	-1439.812189
22.270000	-1434.686245
22.280000	-1414.352965
22.290000	-1372.829749
22.300000	-1311.669962
22.310000	-1237.762016
22.320000	-1178.137842
22.330000	-1130.204240
22.340000	-1088.323453
22.350000	-1049.403645
22.360000	-1011.850000
22.370000	-977.616019
22.380000	-945.704727
22.390000	-914.830273
22.400000	-884.564197
22.410000	-856.050943
22.420000	-828.754184
22.430000	-802.941987
22.440000	-777.608529
22.450000	-755.176658
22.460000	-733.784999
22.470000	-711.745376
22.480000	-689.968517
22.490000	-666.305267
22.500000	-642.161040
22.510000	-616.524087
22.520000	-592.697302
22.530000	-571.066435
22.540000	-551.229255
22.550000	-534.945553
22.560000	-525.094755
22.570000	-519.474154
22.580000	-510.608849
22.590000	-494.341238
22.600000	-479.821826
22.610000	-479.211880
22.620000	-494.000401
22.630000	-517.387616
22.640000	-548.188538
22.650000	-588.232049
22.660000	-640.707105
22.670000	-696.723161
22.680000	-747.886491
22.690000	-786.835042
22.700000	-810.736965
22.710000	-817.627538
22.720000	-817.611515
22.730000	-817.401221
22.740000	-819.130232
22.750000	-819.482916
22.760000	-819.984788
22.770000	-822.554457
22.780000	-809.106052
22.790000	-776.655342
22.800000	-724.888726
22.810000	-664.354511
22.820000	-590.625347
22.830000	-521.353463
22.840000	-467.042351
22.850000	-423.632987
22.860000	-385.413661
22.870000	-347.364309
22.880000	-307.777664
22.890000	-266.750356
22.900000	-225.794832
22.910000	-186.117679
22.920000	-149.796011
22.930000	-116.125149
22.940000	-83.107594
22.950000	-50.116505
22.960000	-20.743719
22.970000	6.593899
22.980000	38.321505
22.990000	82.330214
23.000000	139.912346
23.010000	207.960987
23.020000	266.817903
23.030000	309.139455
23.040000	334.635496
23.050000	349.928403
23.060000	358.804010
23.070000	368.084898
23.080000	377.646475
23.090000	384.928222
23.100000	381.500157
23.110000	375.177321
23.120000	377.392081
23.130000	389.427329
23.140000	406.296045
23.150000	421.034978
23.160000	436.256519
23.170000	446.651550
23.180000	453.934096
23.190000	458.964053
23.200000	463.980866
23.210000	470.975070
23.220000	480.055456
23.230000	492.689927
23.240000	506.152417
23.250000	522.117875
23.260000	538.273205
23.270000	554.587314
23.280000	569.425249
23.290000	584.769449
23.300000	601.611095
23.310000	619.985912
23.320000	639.165552
23.330000	655.899912
23.340000	670.434489
23.350000	687.197356
23.360000	707.734541
23.370000	730.860066
23.380000	747.720035
23.390000	756.248316
23.400000	759.760932
23.410000	762.346361
23.420000	767.508278
23.430000	770.463409
23.440000	772.982426
23.450000	775.285368
23.460000	780.173195
23.470000	785.470213
23.480000	790.411414
23.490000	795.368771
23.500000	801.696595
23.510000	807.636715
23.520000	812.362604
23.530000	815.952408
23.540000	818.073070
23.550000	821.322054
23.560000	826.491461
23.570000	832.399469
23.580000	836.619927
23.590000	839.865963
23.600000	844.132663
23.610000	850.711561
23.620000	857.684568
23.630000	866.614981
23.640000	875.943094
23.650000	885.905465
23.660000	894.912328
23.670000	903.918919
23.680000	912.928509
23.690000	924.990545
23.700000	936.643517
23.710000	948.122599
23.720000	958.739825
23.730000	971.649263
23.740000	986.878485
23.750000	996.872915
23.760000	999.750742
23.770000	997.492054
23.780000	996.018895
23.790000	995.814844
23.800000	996.002076
23.810000	995.188493
23.820000	995.380361
23.830000	994.603806
23.840000	993.485203
23.850000	992.404672
23.860000	992.979815
23.870000	994.251634
23.880000	994.525708
23.890000	993.489146
23.900000	992.797211
23.910000	992.442406
23.920000	991.787404
23.930000	991.452972
23.940000	991.162406
23.950000	991.854235
23.960000	993.589102
23.970000	994.972345
23.980000	997.745322
23.990000	1001.137861
24.000000	1004.957487
24.010000	1009.024486
24.020000	1013.224280
24.030000	1018.969791
24.040000	1024.536970
24.050000	1030.643002
24.060000	1036.901180
24.070000	1043.037753
24.080000	1047.650189
24.090000	1052.829997
24.100000	1059.450405
24.110000	1067.006327
24.120000	1074.637495
24.130000	1082.907720
24.140000	1093.883162
24.150000	1102.176384
24.160000	1104.856602
24.170000	1099.166494
24.180000	1090.573539
24.190000	1079.864585
24.200000	1069.014500
24.210000	1058.612882
24.220000	1047.504589
24.230000	1035.751681
24.240000	1020.039124
24.250000	1005.634329
24.260000	994.618403
24.270000	987.900464
24.280000	979.899766
24.290000	968.562728
24.300000	954.574954
24.310000	941.285126
24.320000	928.961012
24.330000	917.392050
24.340000	906.733750
24.350000	895.881016
24.360000	885.563522
24.370000	874.081788
24.380000	864.792136
24.390000	857.323753
24.400000	851.739841
24.410000	846.946901
24.420000	842.406553
24.430000	839.292019
24.440000	836.116341
24.450000	833.693612
24.460000	832.541908
24.470000	832.142047
24.480000	832.351290
24.490000	830.298856
24.500000	828.223657
24.510000	827.501990
24.520000	827.137939
24.530000	825.417984
24.540000	823.775423
24.550000	824.717876
24.560000	828.453924
24.570000	831.053445
24.580000	826.506799
24.590000	812.111217
24.600000	786.944046
24.610000	755.563217
24.620000	721.089541
24.630000	686.727323
24.640000	654.276065
24.650000	622.594578
24.660000	591.175224
24.670000	562.179725
24.680000	536.113387
24.690000	513.140478
24.700000	489.750987
24.710000	464.816953
24.720000	438.099857
24.730000	409.869962
24.740000	382.830185
24.750000	355.953808
24.760000	330.942055
24.770000	306.402841
24.780000	282.765575
24.790000	259.221416
24.800000	235.964419
24.810000	216.421063
24.820000	199.522735
24.830000	187.334089
24.840000	175.100047
24.850000	162.964584
24.860000	150.044836
24.870000	139.308903
24.880000	132.689646
24.890000	127.676832
24.900000	124.042819
24.910000	120.409976
24.920000	116.767732
24.930000	113.511833
24.940000	111.862117
24.950000	110.640589
24.960000	108.656228
24.970000	107.810544
24.980000	109.815464
24.990000	111.331879
25.000000	103.992416
25.010000	80.888353
25.020000	42.888134
25.030000	-7.854634
25.040000	-62.501173
25.050000	-116.245812
25.060000	-167.871179
25.070000	-216.275214
25.080000	-261.883681
25.090000	-302.937307
25.100000	-341.880148
25.110000	-379.567848
25.120000	-416.515545
25.130000	-455.177299
25.140000	-495.116973
25.150000	-534.089467
25.160000	-568.355695
25.170000	-597.987206
25.180000	-622.902808
25.190000	-643.863104
25.200000	-661.091323
25.210000	-675.383816
25.220000	-688.593003
25.230000	-700.208655
25.240000	-711.744542
25.250000	-719.998520
25.260000	-726.554209
25.270000	-732.766409
25.280000	-739.675330
25.290000	-745.505878
25.300000	-746.102882
25.310000	-742.907335
25.320000	-738.179616
25.330000	-734.289667
25.340000	-731.899203
25.350000	-727.976365
25.360000	-722.943079
25.370000	-716.308984
25.380000	-706.633059
25.390000	-692.958595
25.400000	-674.974081
25.410000	-665.293249
25.420000	-672.955097
25.430000	-701.596475
25.440000	-745.895173
25.450000	-796.205080
25.460000	-847.164524
25.470000	-894.467672
25.480000	-935.757221
25.490000	-971.389280
25.500000	-993.646203
25.510000	-996.968833
25.520000	-979.196755
25.530000	-954.244988
25.540000	-944.757270
25.550000	-963.814399
25.560000	-1002.243045
25.570000	-1042.346972
25.580000	-1074.069889
25.590000	-1096.892668
25.600000	-1114.227964
25.610000	-1123.743177
25.620000	-1128.722214
25.630000	-1131.913113
25.640000	-1133.530545
25.650000	-1134.071667
25.660000	-1132.656398
25.670000	-1128.217797
25.680000	-1120.104930
25.690000	-1106.682870
25.700000	-1093.227521
25.710000	-1081.125764
25.720000	-1070.000522
25.730000	-1056.215040
25.740000	-1038.435255
25.750000	-1017.632787
25.760000	-994.190569
25.770000	-971.046470
25.780000	-948.928779
25.790000	-926.443327
25.800000	-899.314779
25.810000	-868.844566
25.820000	-844.378628
25.830000	-836.906090
25.840000	-847.738347
25.850000	-870.936823
25.860000	-898.414620
25.870000	-924.964583
25.880000	-948.755942
25.890000	-966.644495
25.900000	-981.101758
25.910000	-991.972903
25.920000	-998.768999
25.930000	-999.285568
25.940000	-996.104978
25.950000	-996.934516
25.960000	-1000.404842
25.970000	-1002.565123
25.980000	-1000.362519
25.990000	-994.862310
26.000000	-987.643459
26.010000	-977.807791
26.020000	-966.585246
26.030000	-957.079986
26.040000	-948.170219
26.050000	-935.999348
26.060000	-921.422692
26.070000	-903.902652
26.080000	-886.673159
26.090000	-867.444950
26.100000	-846.919196
26.110000	-826.977699
26.120000	-805.808808
26.130000	-785.842325
26.140000	-764.003365
26.150000	-742.374344
26.160000	-719.173697
26.170000	-695.233082
26.180000	-671.664156
26.190000	-647.739273
26.200000	-622.472886
26.210000	-592.557869
26.220000	-559.279477
26.230000	-529.376487
26.240000	-510.072235
26.250000	-501.827824
26.260000	-501.506186
26.270000	-502.253143
26.280000	-502.939833
26.290000	-500.991570
26.300000	-495.361193
26.310000	-488.055005
26.320000	-477.756482
26.330000	-465.106633
26.340000	-449.798410
26.350000	-435.150555
26.360000	-422.149355
26.370000	-409.503395
26.380000	-394.143673
26.390000	-377.182387
26.400000	-359.451634
26.410000	-343.179367
26.420000	-328.400799
26.430000	-314.822406
26.440000	-300.993482
26.450000	-283.439650
26.460000	-262.242090
26.470000	-239.708898
26.480000	-216.799274
26.490000	-194.623901
26.500000	-171.326708
26.510000	-150.532077
26.520000	-128.478362
26.530000	-106.765873
26.540000	-84.600719
26.550000	-60.307580
26.560000	-31.364133
26.570000	1.832930
26.580000	34.551063
26.590000	61.663157
26.600000	86.179692
26.610000	106.171184
26.620000	123.176164
26.630000	134.024878
26.640000	143.219255
26.650000	150.558150
26.660000	159.297950
26.670000	165.096940
26.680000	177.441290
26.690000	212.787182
26.700000	290.579662
26.710000	324.747759
26.720000	337.776384
26.730000	348.632022
26.740000	365.402856
26.750000	381.504563
26.760000	400.753404
26.770000	418.382637
26.780000	436.151244
26.790000	454.286129
26.800000	476.588784
26.810000	501.538472
26.820000	527.723676
26.830000	549.476425
26.840000	565.902557
26.850000	576.446425
26.860000	582.451343
26.870000	587.454040
26.880000	591.689548
26.890000	594.491226
26.900000	598.636148
26.910000	601.546193
26.920000	607.634656
26.930000	615.284181
26.940000	624.336966
26.950000	633.051149
26.960000	641.410881
26.970000	648.181832
26.980000	654.191046
26.990000	659.009842
27.000000	668.021468
27.010000	680.522276
27.020000	694.215499
27.030000	705.399007
27.040000	713.118737
27.050000	717.313347
27.060000	721.065928
27.070000	724.922857
27.080000	731.387448
27.090000	739.224532
27.100000	747.077878
27.110000	756.570437
27.120000	764.123532
27.130000	768.291840
27.140000	770.546961
27.150000	774.722946
27.160000	781.665510
27.170000	786.174215
27.180000	788.168326
27.190000	790.336729
27.200000	790.361123
27.210000	789.880602
27.220000	787.917305
27.230000	786.804221
27.240000	784.164612
27.250000	778.768451
27.260000	772.457884
27.270000	767.437932
27.280000	764.785700
27.290000	761.801399
27.300000	760.831780
27.310000	760.860071
27.320000	760.915801
27.330000	758.953635
27.340000	754.040748
27.350000	750.098424
27.360000	746.524513
27.370000	744.619693
27.380000	742.036185
27.390000	739.186474
27.400000	737.588823
27.410000	738.457008
27.420000	741.174346
27.430000	743.427444
27.440000	746.474219
27.450000	750.098347
27.460000	753.811164
27.470000	758.811672
27.480000	763.511534
27.490000	766.897614
27.500000	771.258628
27.510000	780.692794
27.520000	795.031547
27.530000	804.833320
27.540000	804.184904
27.550000	792.693014
27.560000	774.053421
27.570000	749.249104
27.580000	722.969212
27.590000	697.836521
27.600000	675.586135
27.610000	653.782619
27.620000	632.245949
27.630000	612.770727
27.640000	596.273158
27.650000	580.787274
27.660000	565.005073
27.670000	547.840539
27.680000	529.108775
27.690000	510.601745
27.700000	494.248563
27.710000	480.728421
27.720000	467.748951
27.730000	455.564040
27.740000	443.281323
27.750000	430.770065
27.760000	419.519638
27.770000	412.013489
27.780000	406.781604
27.790000	401.956837
27.800000	397.415876
27.810000	395.273681
27.820000	393.739932
27.830000	392.628602
27.840000	392.766934
27.850000	394.682685
27.860000	397.824110
27.870000	400.767330
27.880000	401.579325
27.890000	404.902619
27.900000	414.029894
27.910000	425.050324
27.920000	429.499963
27.930000	419.230706
27.940000	398.034435
27.950000	368.439021
27.960000	336.610099
27.970000	307.006976
27.980000	280.205881
27.990000	256.939263
28.000000	236.828967
28.010000	217.897298
28.020000	201.156857
28.030000	187.217262
28.040000	176.179499
28.050000	165.225136
28.060000	150.561838
28.070000	134.946480
28.080000	118.298307
28.090000	103.370638
28.100000	88.383796
28.110000	73.828943
28.120000	60.497792
28.130000	47.309558
28.140000	34.643021
28.150000	21.479998
28.160000	11.494569
28.170000	5.335329
28.180000	-0.305110
28.190000	-2.432625
28.200000	6.600502
28.210000	31.483576
28.220000	64.831669
28.230000	98.756882
28.240000	123.081468
28.250000	129.393061
28.260000	121.388987
28.270000	113.416050
28.280000	121.391480
28.290000	145.753619
28.300000	181.736538
28.310000	207.400642
28.320000	203.445231
28.330000	162.770659
28.340000	97.558791
28.350000	9.451622
28.360000	-80.518708
28.370000	-173.136779
28.380000	-254.098124
28.390000	-325.743642
28.400000	-392.256750
28.410000	-452.342222
28.420000	-494.042847
28.430000	-516.171501
28.440000	-522.223120
28.450000	-535.033936
28.460000	-559.668172
28.470000	-594.859461
28.480000	-636.084976
28.490000	-674.320201
28.500000	-706.165018
28.510000	-731.103526
28.520000	-755.244788
28.530000	-783.866297
28.540000	-811.276354
28.550000	-830.273702
28.560000	-842.982498
28.570000	-849.992704
28.580000	-855.347445
28.590000	-849.657633
28.600000	-827.372583
28.610000	-792.665745
28.620000	-754.393880
28.630000	-724.331982
28.640000	-704.371617
28.650000	-687.958746
28.660000	-668.666895
28.670000	-648.927159
28.680000	-630.611416
28.690000	-607.858565
28.700000	-576.210808
28.710000	-542.806283
28.720000	-520.142826
28.730000	-510.376942
28.740000	-509.709933
28.750000	-516.271108
28.760000	-526.256705
28.770000	-536.151131
28.780000	-540.449837
28.790000	-537.359924
28.800000	-532.314807
28.810000	-526.542569
28.820000	-523.838974
28.830000	-522.696200
28.840000	-522.685059
28.850000	-522.499776
28.860000	-521.518772
28.870000	-519.623878
28.880000	-516.671614
28.890000	-512.065988
28.900000	-504.140819
28.910000	-495.505857
28.920000	-484.584583
28.930000	-473.608952
28.940000	-460.669776
28.950000	-444.366279
28.960000	-424.410893
28.970000	-401.445721
28.980000	-376.138335
28.990000	-349.512419
29.000000	-321.850038
29.010000	-294.902802
29.020000	-267.205905
29.030000	-239.284999
29.040000	-210.545053
29.050000	-182.659795
29.060000	-153.861124
29.070000	-127.368006
29.080000	-105.828685
29.090000	-83.038299
29.100000	-55.790885
29.110000	-25.374005
29.120000	-4.771619
29.130000	4.669171
29.140000	5.271311
29.150000	0.061194
29.160000	-7.671456
29.170000	-16.538430
29.180000	-22.593625
29.190000	-17.234945
