Time(s)	GREEN_denoised_wiener
0.000000	-171.297586
0.010000	-259.784587
0.020000	-265.469524
0.030000	-269.138931
0.040000	-272.497865
0.050000	-275.149757
0.060000	-274.181347
0.070000	-269.831092
0.080000	-264.532509
0.090000	-260.172371
0.100000	-256.539148
0.110000	-249.162988
0.120000	-241.896135
0.130000	-235.138067
0.140000	-230.249495
0.150000	-224.094314
0.160000	-216.938837
0.170000	-208.375131
0.180000	-199.625526
0.190000	-188.973859
0.200000	-181.991325
0.210000	-175.875127
0.220000	-177.375345
0.230000	-183.407809
0.240000	-201.780815
0.250000	-224.889465
0.260000	-253.533782
0.270000	-277.999758
0.280000	-303.317864
0.290000	-362.176403
0.300000	-420.575601
0.310000	-472.085352
0.320000	-485.755670
0.330000	-495.829464
0.340000	-508.848851
0.350000	-516.856030
0.360000	-525.300889
0.370000	-527.838646
0.380000	-531.110114
0.390000	-530.444791
0.400000	-530.933817
0.410000	-527.677563
0.420000	-524.435100
0.430000	-517.877727
0.440000	-511.942924
0.450000	-504.046283
0.460000	-494.444573
0.470000	-480.860281
0.480000	-469.287722
0.490000	-457.302981
0.500000	-447.462746
0.510000	-432.703822
0.520000	-419.993904
0.530000	-404.054991
0.540000	-391.541490
0.550000	-379.362740
0.560000	-377.106933
0.570000	-380.615453
0.580000	-396.350620
0.590000	-451.908299
0.600000	-508.393451
0.610000	-555.928954
0.620000	-563.358955
0.630000	-568.118787
0.640000	-574.881597
0.650000	-579.598115
0.660000	-584.400997
0.670000	-586.042101
0.680000	-587.249232
0.690000	-586.453022
0.700000	-586.421097
0.710000	-584.159478
0.720000	-583.255370
0.730000	-579.822709
0.740000	-577.086103
0.750000	-571.443749
0.760000	-566.913949
0.770000	-559.685756
0.780000	-551.733104
0.790000	-541.225681
0.800000	-529.201447
0.810000	-515.068713
0.820000	-499.981771
0.830000	-485.553123
0.840000	-473.401830
0.850000	-463.672793
0.860000	-459.468912
0.870000	-461.758421
0.880000	-470.170388
0.890000	-482.142350
0.900000	-494.841688
0.910000	-507.836347
0.920000	-519.479365
0.930000	-527.832160
0.940000	-533.091758
0.950000	-535.463075
0.960000	-535.005056
0.970000	-530.056796
0.980000	-523.899011
0.990000	-520.285116
1.000000	-520.084559
1.010000	-519.466250
1.020000	-517.911135
1.030000	-514.945644
1.040000	-511.372217
1.050000	-507.052987
1.060000	-501.462293
1.070000	-494.791884
1.080000	-486.512828
1.090000	-477.496583
1.100000	-467.856084
1.110000	-456.826521
1.120000	-445.164009
1.130000	-432.112303
1.140000	-419.104113
1.150000	-404.013979
1.160000	-388.346017
1.170000	-371.534630
1.180000	-353.881121
1.190000	-338.018661
1.200000	-320.355591
1.210000	-303.141351
1.220000	-281.766656
1.230000	-261.913888
1.240000	-242.780971
1.250000	-227.317266
1.260000	-214.069875
1.270000	-207.355981
1.280000	-208.636562
1.290000	-215.335374
1.300000	-225.155254
1.310000	-235.264004
1.320000	-246.968822
1.330000	-258.467066
1.340000	-267.396626
1.350000	-273.959073
1.360000	-276.433848
1.370000	-277.076156
1.380000	-274.407765
1.390000	-272.153938
1.400000	-267.309056
1.410000	-265.199920
1.420000	-261.127577
1.430000	-259.882849
1.440000	-255.861211
1.450000	-252.868067
1.460000	-245.512142
1.470000	-240.495166
1.480000	-231.736072
1.490000	-172.952731
1.500000	-104.805784
1.510000	-36.263008
1.520000	-13.249530
1.530000	5.393935
1.540000	27.610760
1.550000	46.405679
1.560000	69.574738
1.570000	90.107048
1.580000	110.963630
1.590000	119.162718
1.600000	124.480345
1.610000	126.589853
1.620000	135.090765
1.630000	142.370048
1.640000	147.787900
1.650000	150.885530
1.660000	154.228690
1.670000	157.796478
1.680000	163.076752
1.690000	169.104373
1.700000	177.335702
1.710000	186.476170
1.720000	196.336366
1.730000	206.252560
1.740000	218.417989
1.750000	231.426059
1.760000	247.249770
1.770000	262.325773
1.780000	278.505056
1.790000	295.294894
1.800000	314.175480
1.810000	333.666142
1.820000	353.259373
1.830000	371.780223
1.840000	391.096826
1.850000	409.964821
1.860000	429.687537
1.870000	450.560106
1.880000	473.025970
1.890000	496.901504
1.900000	517.767792
1.910000	535.336452
1.920000	547.921827
1.930000	556.862934
1.940000	560.818901
1.950000	560.479229
1.960000	556.801448
1.970000	553.187470
1.980000	550.529494
1.990000	548.979894
2.000000	548.009033
2.010000	550.201386
2.020000	555.569169
2.030000	562.840823
2.040000	571.553468
2.050000	580.567479
2.060000	589.629745
2.070000	596.378347
2.080000	603.811205
2.090000	610.601587
2.100000	618.759864
2.110000	626.238828
2.120000	635.814025
2.130000	644.285687
2.140000	653.307982
2.150000	661.751796
2.160000	672.239564
2.170000	683.969579
2.180000	697.269078
2.190000	711.279351
2.200000	727.400453
2.210000	744.344468
2.220000	761.964759
2.230000	779.170520
2.240000	797.633907
2.250000	815.751885
2.260000	835.076411
2.270000	854.424138
2.280000	875.625970
2.290000	901.531667
2.300000	922.908514
2.310000	937.090426
2.320000	940.956690
2.330000	944.452296
2.340000	951.088092
2.350000	957.563356
2.360000	966.002621
2.370000	972.426199
2.380000	981.376087
2.390000	986.695498
2.400000	995.555638
2.410000	1002.700441
2.420000	1014.871542
2.430000	1024.770510
2.440000	1038.327747
2.450000	1048.576059
2.460000	1065.267712
2.470000	1077.095198
2.480000	1096.377588
2.490000	1172.488042
2.500000	1249.637467
2.510000	1314.770662
2.520000	1316.899124
2.530000	1313.457257
2.540000	1314.136042
2.550000	1309.865585
2.560000	1312.871571
2.570000	1313.654549
2.580000	1320.429572
2.590000	1324.504396
2.600000	1334.141621
2.610000	1343.422928
2.620000	1357.993208
2.630000	1369.744934
2.640000	1384.658194
2.650000	1396.140569
2.660000	1413.140804
2.670000	1426.260854
2.680000	1442.443428
2.690000	1480.188098
2.700000	1515.404368
2.710000	1540.268714
2.720000	1531.765667
2.730000	1517.263176
2.740000	1503.178258
2.750000	1486.674423
2.760000	1472.721175
2.770000	1457.838022
2.780000	1446.728801
2.790000	1435.085759
2.800000	1425.865247
2.810000	1416.426967
2.820000	1409.792721
2.830000	1402.860120
2.840000	1396.840754
2.850000	1388.389405
2.860000	1381.016194
2.870000	1372.678606
2.880000	1365.645219
2.890000	1357.062051
2.900000	1349.397071
2.910000	1342.212277
2.920000	1337.597170
2.930000	1335.464366
2.940000	1335.571214
2.950000	1338.158673
2.960000	1341.981910
2.970000	1346.629171
2.980000	1351.164898
2.990000	1355.542327
3.000000	1360.790870
3.010000	1367.560939
3.020000	1374.517679
3.030000	1381.689371
3.040000	1387.679763
3.050000	1395.268226
3.060000	1404.606678
3.070000	1414.281247
3.080000	1424.643316
3.090000	1435.397098
3.100000	1447.120020
3.110000	1456.272358
3.120000	1460.035794
3.130000	1457.589893
3.140000	1449.391554
3.150000	1438.016069
3.160000	1424.178031
3.170000	1410.549779
3.180000	1396.390275
3.190000	1383.859576
3.200000	1373.699711
3.210000	1364.932028
3.220000	1358.447950
3.230000	1352.764566
3.240000	1349.972212
3.250000	1345.678434
3.260000	1339.606496
3.270000	1332.025428
3.280000	1325.010268
3.290000	1320.135132
3.300000	1315.835723
3.310000	1313.683293
3.320000	1312.416109
3.330000	1312.331308
3.340000	1313.758340
3.350000	1316.405547
3.360000	1320.863760
3.370000	1326.235959
3.380000	1332.397712
3.390000	1339.492995
3.400000	1346.353415
3.410000	1354.181357
3.420000	1363.732156
3.430000	1373.955135
3.440000	1386.207320
3.450000	1397.472805
3.460000	1409.116504
3.470000	1418.734854
3.480000	1429.127442
3.490000	1440.409720
3.500000	1451.889065
3.510000	1462.836764
3.520000	1472.401995
3.530000	1479.012826
3.540000	1478.992823
3.550000	1472.281835
3.560000	1459.668326
3.570000	1444.305669
3.580000	1426.416752
3.590000	1408.081544
3.600000	1390.910119
3.610000	1375.266177
3.620000	1362.484274
3.630000	1351.187416
3.640000	1344.146467
3.650000	1339.170921
3.660000	1335.888786
3.670000	1330.552853
3.680000	1325.387761
3.690000	1319.666146
3.700000	1314.296571
3.710000	1306.841455
3.720000	1300.959188
3.730000	1296.743218
3.740000	1296.697176
3.750000	1297.028940
3.760000	1300.186044
3.770000	1302.363714
3.780000	1308.430768
3.790000	1338.471445
3.800000	1374.634924
3.810000	1411.342289
3.820000	1428.862058
3.830000	1445.712471
3.840000	1462.767438
3.850000	1476.462921
3.860000	1486.740643
3.870000	1492.267127
3.880000	1491.770332
3.890000	1483.792852
3.900000	1472.202376
3.910000	1458.365130
3.920000	1446.360982
3.930000	1433.971560
3.940000	1424.251187
3.950000	1417.620197
3.960000	1414.523215
3.970000	1413.978980
3.980000	1415.175400
3.990000	1418.051807
4.000000	1419.864476
4.010000	1420.508413
4.020000	1420.597653
4.030000	1420.672530
4.040000	1420.034051
4.050000	1419.880718
4.060000	1420.505715
4.070000	1420.788326
4.080000	1418.342749
4.090000	1413.738429
4.100000	1408.549112
4.110000	1406.058649
4.120000	1405.441782
4.130000	1406.075848
4.140000	1405.357591
4.150000	1406.803918
4.160000	1407.949836
4.170000	1411.237125
4.180000	1413.550600
4.190000	1419.046197
4.200000	1422.145961
4.210000	1424.227800
4.220000	1423.752152
4.230000	1428.118208
4.240000	1433.009153
4.250000	1442.045464
4.260000	1447.248060
4.270000	1459.369974
4.280000	1467.772718
4.290000	1476.076842
4.300000	1468.586196
4.310000	1481.934652
4.320000	1510.288909
4.330000	1556.487474
4.340000	1560.488757
4.350000	1499.143431
4.360000	1239.721398
4.370000	528.771013
4.380000	-826.379681
4.390000	-3580.382200
4.400000	-7888.288224
4.410000	-11376.429518
4.420000	-12498.471888
4.430000	-12892.996681
4.440000	-12455.333622
4.450000	-11575.176675
4.460000	-10531.829603
4.470000	-9614.213983
4.480000	-8814.449820
4.490000	-8129.446742
4.500000	-7539.708061
4.510000	-6971.547857
4.520000	-6554.542490
4.530000	-6219.454836
4.540000	-5877.007761
4.550000	-5468.799756
4.560000	-5073.202378
4.570000	-4813.956823
4.580000	-4746.564251
4.590000	-4720.235762
4.600000	-4687.231369
4.610000	-4428.065588
4.620000	-4016.727493
4.630000	-3393.217357
4.640000	-2768.992783
4.650000	-2104.704130
4.660000	-1479.607956
4.670000	-929.763287
4.680000	-660.044717
4.690000	-1085.935396
4.700000	-1937.371046
4.710000	-2321.158424
4.720000	-2090.543965
4.730000	-1873.910806
4.740000	-1768.142708
4.750000	-1639.388715
4.760000	-1580.055624
4.770000	-1468.304389
4.780000	-1405.608216
4.790000	-1324.114779
4.800000	-1290.891261
4.810000	-1238.916869
4.820000	-1210.835581
4.830000	-1153.482635
4.840000	-1113.079768
4.850000	-1057.526909
4.860000	-1020.531718
4.870000	-969.415918
4.880000	-929.169171
4.890000	-881.212415
4.900000	-845.606604
4.910000	-811.283960
4.920000	-796.819351
4.930000	-783.948237
4.940000	-773.444983
4.950000	-751.934249
4.960000	-731.835394
4.970000	-712.578514
4.980000	-699.602896
4.990000	-685.882448
5.000000	-669.745661
5.010000	-653.223752
5.020000	-633.569141
5.030000	-617.952775
5.040000	-596.038311
5.050000	-578.767309
5.060000	-553.803910
5.070000	-535.682627
5.080000	-510.184133
5.090000	-374.046930
5.100000	-240.519172
5.110000	-127.509473
5.120000	-131.095611
5.130000	-139.093314
5.140000	-137.969577
5.150000	-147.795962
5.160000	-149.763199
5.170000	-151.597869
5.180000	-139.858322
5.190000	-131.843782
5.200000	-119.911110
5.210000	-110.487775
5.220000	-92.943074
5.230000	-72.868947
5.240000	-50.987548
5.250000	-33.624653
5.260000	-15.693078
5.270000	1.910877
5.280000	21.584851
5.290000	37.063767
5.300000	50.192950
5.310000	61.855315
5.320000	75.115082
5.330000	88.609487
5.340000	100.009416
5.350000	112.353330
5.360000	125.871036
5.370000	140.738766
5.380000	154.701122
5.390000	167.772315
5.400000	180.173727
5.410000	188.437752
5.420000	194.302717
5.430000	204.759767
5.440000	217.715639
5.450000	234.065605
5.460000	243.740791
5.470000	251.721850
5.480000	255.721779
5.490000	226.279314
5.500000	193.508976
5.510000	161.073427
5.520000	161.016814
5.530000	165.011131
5.540000	168.900501
5.550000	174.274124
5.560000	174.404237
5.570000	174.212053
5.580000	172.199999
5.590000	174.480585
5.600000	177.278349
5.610000	182.741844
5.620000	189.323046
5.630000	198.989300
5.640000	208.998055
5.650000	220.223311
5.660000	229.304762
5.670000	239.452065
5.680000	249.910647
5.690000	259.656846
5.700000	265.821597
5.710000	270.853062
5.720000	279.382068
5.730000	288.672599
5.740000	294.916508
5.750000	296.809285
5.760000	299.111234
5.770000	298.901857
5.780000	292.280269
5.790000	279.984187
5.800000	263.762447
5.810000	246.379688
5.820000	227.880881
5.830000	211.427483
5.840000	198.304572
5.850000	185.106146
5.860000	172.382887
5.870000	162.767621
5.880000	157.768545
5.890000	154.393838
5.900000	149.464123
5.910000	143.674465
5.920000	140.143458
5.930000	137.586766
5.940000	137.139871
5.950000	134.461118
5.960000	133.469395
5.970000	130.959654
5.980000	131.463915
5.990000	156.481866
6.000000	193.675897
6.010000	241.009426
6.020000	274.471236
6.030000	304.943191
6.040000	332.547380
6.050000	353.844184
6.060000	368.943600
6.070000	374.044744
6.080000	372.335972
6.090000	361.874812
6.100000	350.732757
6.110000	343.672675
6.120000	340.091657
6.130000	335.102258
6.140000	329.777049
6.150000	326.512229
6.160000	326.101420
6.170000	324.552397
6.180000	323.083402
6.190000	317.220186
6.200000	304.046205
6.210000	288.887108
6.220000	274.979717
6.230000	262.522079
6.240000	246.207785
6.250000	227.485220
6.260000	212.424776
6.270000	209.430943
6.280000	216.589537
6.290000	226.337198
6.300000	232.734745
6.310000	237.573944
6.320000	242.522135
6.330000	246.779705
6.340000	249.618779
6.350000	255.976678
6.360000	262.000194
6.370000	268.495291
6.380000	272.680523
6.390000	279.009132
6.400000	285.986463
6.410000	294.504730
6.420000	299.918982
6.430000	308.338236
6.440000	316.801541
6.450000	337.521616
6.460000	359.929640
6.470000	382.705083
6.480000	388.989657
6.490000	332.448757
6.500000	266.297496
6.510000	205.728969
6.520000	195.661178
6.530000	187.392813
6.540000	172.442653
6.550000	162.753306
6.560000	150.476885
6.570000	142.126916
6.580000	131.115362
6.590000	126.516998
6.600000	123.355254
6.610000	126.239972
6.620000	130.542891
6.630000	134.610788
6.640000	133.694915
6.650000	131.310410
6.660000	124.134150
6.670000	114.999483
6.680000	106.879527
6.690000	96.978351
6.700000	83.265862
6.710000	62.258629
6.720000	43.660364
6.730000	30.492380
6.740000	22.684749
6.750000	20.364926
6.760000	23.346402
6.770000	34.550682
6.780000	52.968478
6.790000	76.370854
6.800000	99.219106
6.810000	126.189935
6.820000	154.085502
6.830000	178.643365
6.840000	190.909494
6.850000	193.432076
6.860000	191.711824
6.870000	185.508454
6.880000	175.152361
6.890000	161.556274
6.900000	150.241935
6.910000	142.562223
6.920000	135.622622
6.930000	129.211518
6.940000	125.311846
6.950000	127.166649
6.960000	130.950560
6.970000	136.099502
6.980000	139.216789
6.990000	140.677871
7.000000	142.121502
7.010000	141.882038
7.020000	144.678482
7.030000	147.031611
7.040000	153.558813
7.050000	160.459029
7.060000	168.084708
7.070000	175.182714
7.080000	185.591784
7.090000	216.911241
7.100000	249.630498
7.110000	279.983089
7.120000	292.603950
7.130000	303.774966
7.140000	317.509992
7.150000	330.178642
7.160000	344.399166
7.170000	357.533689
7.180000	369.594597
7.190000	375.172658
7.200000	375.774335
7.210000	370.770906
7.220000	363.596869
7.230000	347.305435
7.240000	326.415513
7.250000	305.805393
7.260000	291.534996
7.270000	281.580556
7.280000	274.954548
7.290000	271.655466
7.300000	270.668166
7.310000	271.695672
7.320000	272.004891
7.330000	273.043634
7.340000	270.622210
7.350000	265.701623
7.360000	257.864758
7.370000	252.671508
7.380000	250.388044
7.390000	251.269771
7.400000	250.525672
7.410000	249.178665
7.420000	246.954190
7.430000	247.392279
7.440000	250.333245
7.450000	255.900488
7.460000	262.334064
7.470000	271.712629
7.480000	280.947192
7.490000	264.756767
7.500000	239.634452
7.510000	213.068679
7.520000	207.989738
7.530000	207.897681
7.540000	204.325582
7.550000	201.386167
7.560000	195.932858
7.570000	191.851774
7.580000	186.813968
7.590000	184.624900
7.600000	183.637205
7.610000	183.692316
7.620000	180.739715
7.630000	178.069619
7.640000	176.458139
7.650000	177.739071
7.660000	181.125033
7.670000	189.039435
7.680000	199.067154
7.690000	212.304380
7.700000	223.613510
7.710000	236.213386
7.720000	247.096960
7.730000	260.429369
7.740000	272.846757
7.750000	285.945747
7.760000	307.566887
7.770000	336.055641
7.780000	365.227243
7.790000	385.441786
7.800000	397.535183
7.810000	404.452271
7.820000	404.448524
7.830000	399.089858
7.840000	387.305695
7.850000	376.367822
7.860000	364.755905
7.870000	357.614332
7.880000	347.120458
7.890000	337.844555
7.900000	325.744077
7.910000	318.054854
7.920000	310.952796
7.930000	310.574361
7.940000	308.068572
7.950000	310.752867
7.960000	309.754173
7.970000	315.598648
7.980000	315.990783
7.990000	322.790827
8.000000	321.768814
8.010000	331.686392
8.020000	337.733767
8.030000	357.950997
8.040000	366.523438
8.050000	386.962598
8.060000	394.124004
8.070000	418.404292
8.080000	424.153724
8.090000	447.319528
8.100000	448.920881
8.110000	477.083578
8.120000	480.022863
8.130000	510.410090
8.140000	505.081921
8.150000	535.380915
8.160000	526.681269
8.170000	561.724817
8.180000	540.719777
8.190000	559.880544
8.200000	497.766935
8.210000	465.280507
8.220000	295.991440
8.230000	132.133595
8.240000	-192.693423
8.250000	-477.065112
8.260000	-957.309701
8.270000	-1408.058532
8.280000	-2113.054125
8.290000	-2838.694557
8.300000	-3898.137396
8.310000	-5882.488144
8.320000	-7879.918640
8.330000	-8223.085475
8.340000	-7300.242382
8.350000	-3758.733430
8.360000	-725.864806
8.370000	642.036893
8.380000	1374.664676
8.390000	1314.274947
8.400000	-9371.956076
8.410000	-6465.052426
8.420000	-3089.263961
8.430000	-1644.819684
8.440000	-756.679933
8.450000	-165.148934
8.460000	-136.710149
8.470000	44.980982
8.480000	27.925910
8.490000	249.212096
8.500000	319.559556
8.510000	586.400598
8.520000	718.262510
8.530000	1009.241259
8.540000	1180.325380
8.550000	1448.043633
8.560000	1487.167615
8.570000	1373.882521
8.580000	907.182512
8.590000	220.239886
8.600000	-777.515444
8.610000	-1950.611117
8.620000	-2689.895270
8.630000	-2856.217919
8.640000	-2633.132836
8.650000	-2282.757277
8.660000	-2004.932197
8.670000	-1726.947532
8.680000	-1465.376217
8.690000	-1177.708227
8.700000	-952.245507
8.710000	-769.906562
8.720000	-652.960864
8.730000	-548.965434
8.740000	-485.628677
8.750000	-423.906514
8.760000	-386.531613
8.770000	-343.768832
8.780000	-319.981705
8.790000	-287.553510
8.800000	-265.959490
8.810000	-235.963436
8.820000	-218.111329
8.830000	-195.334722
8.840000	-183.417953
8.850000	-167.686786
8.860000	-164.206654
8.870000	-152.669806
8.880000	-148.156618
8.890000	-197.136314
8.900000	-259.265296
8.910000	-318.065397
8.920000	-327.690210
8.930000	-331.970889
8.940000	-341.086000
8.950000	-343.212456
8.960000	-346.934210
8.970000	-349.151500
8.980000	-352.193424
8.990000	-325.061626
9.000000	-300.690710
9.010000	-279.946001
9.020000	-289.989070
9.030000	-297.726915
9.040000	-301.769719
9.050000	-307.254149
9.060000	-309.250961
9.070000	-310.864864
9.080000	-307.104556
9.090000	-306.239765
9.100000	-302.981846
9.110000	-300.699211
9.120000	-294.229640
9.130000	-290.920114
9.140000	-283.831794
9.150000	-277.231887
9.160000	-267.472124
9.170000	-262.301370
9.180000	-255.132644
9.190000	-201.325722
9.200000	-144.762166
9.210000	-97.989702
9.220000	-100.524597
9.230000	-110.154529
9.240000	-120.778012
9.250000	-140.416428
9.260000	-161.713955
9.270000	-184.088173
9.280000	-204.032922
9.290000	-227.510121
9.300000	-248.041730
9.310000	-262.665543
9.320000	-268.775138
9.330000	-273.905581
9.340000	-282.222525
9.350000	-293.189071
9.360000	-304.053330
9.370000	-314.201066
9.380000	-321.936930
9.390000	-327.941814
9.400000	-330.201814
9.410000	-332.085822
9.420000	-331.840896
9.430000	-330.625881
9.440000	-328.197297
9.450000	-326.893985
9.460000	-323.927015
9.470000	-319.891898
9.480000	-313.705746
9.490000	-308.287532
9.500000	-302.860831
9.510000	-297.404850
9.520000	-288.058076
9.530000	-274.584602
9.540000	-258.980360
9.550000	-242.146686
9.560000	-228.631091
9.570000	-216.074661
9.580000	-210.355732
9.590000	-223.403631
9.600000	-242.062270
9.610000	-261.138356
9.620000	-264.789866
9.630000	-263.662554
9.640000	-260.545690
9.650000	-256.565071
9.660000	-255.357710
9.670000	-252.494479
9.680000	-248.231388
9.690000	-240.800190
9.700000	-235.171845
9.710000	-228.465678
9.720000	-215.821277
9.730000	-197.860372
9.740000	-177.190045
9.750000	-160.646964
9.760000	-147.584940
9.770000	-134.806292
9.780000	-122.033998
9.790000	-107.674540
9.800000	-92.535246
9.810000	-74.580303
9.820000	-55.759157
9.830000	-37.195240
9.840000	-20.027612
9.850000	-5.187164
9.860000	4.655203
9.870000	6.442843
9.880000	4.648632
9.890000	2.693504
9.900000	3.263862
9.910000	8.566941
9.920000	13.483336
9.930000	16.742260
9.940000	16.325677
9.950000	16.225947
9.960000	18.788966
9.970000	21.655790
9.980000	27.224673
9.990000	33.366159
10.000000	41.296138
10.010000	46.688148
10.020000	50.007882
10.030000	48.629036
10.040000	44.359470
10.050000	37.861383
10.060000	34.017529
10.070000	32.039974
10.080000	32.641801
10.090000	30.831927
10.100000	30.586672
10.110000	30.237951
10.120000	33.843783
10.130000	37.585794
10.140000	46.422054
10.150000	55.871705
10.160000	70.322281
10.170000	83.091748
10.180000	101.225015
10.190000	165.703408
10.200000	229.518089
10.210000	282.047288
10.220000	285.368727
10.230000	285.922354
10.240000	291.078468
10.250000	289.044797
10.260000	288.812227
10.270000	288.771987
10.280000	295.870267
10.290000	301.089706
10.300000	306.927894
10.310000	312.031728
10.320000	321.304501
10.330000	326.238960
10.340000	330.684002
10.350000	335.741181
10.360000	348.716654
10.370000	362.506841
10.380000	374.397950
10.390000	381.909966
10.400000	388.398999
10.410000	396.281131
10.420000	405.029482
10.430000	413.622013
10.440000	423.304161
10.450000	438.275865
10.460000	454.862284
10.470000	466.894824
10.480000	472.738363
10.490000	476.501941
10.500000	476.571310
10.510000	470.412659
10.520000	457.048194
10.530000	442.649540
10.540000	429.153502
10.550000	417.858251
10.560000	405.553535
10.570000	393.720475
10.580000	381.253944
10.590000	355.191126
10.600000	330.338466
10.610000	309.269531
10.620000	305.427704
10.630000	305.248794
10.640000	305.520582
10.650000	308.217680
10.660000	309.238984
10.670000	312.851928
10.680000	314.575898
10.690000	315.477447
10.700000	316.221239
10.710000	320.420751
10.720000	327.163992
10.730000	333.000415
10.740000	341.436002
10.750000	353.216128
10.760000	367.012763
10.770000	377.732091
10.780000	385.915739
10.790000	391.891677
10.800000	397.467128
10.810000	399.682658
10.820000	396.331871
10.830000	387.123652
10.840000	371.173199
10.850000	354.562121
10.860000	340.652189
10.870000	332.645404
10.880000	326.757364
10.890000	319.040398
10.900000	309.853307
10.910000	301.419567
10.920000	292.585808
10.930000	284.450864
10.940000	275.289937
10.950000	267.807148
10.960000	261.297628
10.970000	255.811868
10.980000	249.279291
10.990000	242.805206
11.000000	238.911503
11.010000	238.774939
11.020000	240.849755
11.030000	242.388313
11.040000	245.113987
11.050000	247.974522
11.060000	251.362735
11.070000	252.866994
11.080000	253.601885
11.090000	256.411685
11.100000	260.478528
11.110000	266.608468
11.120000	272.995708
11.130000	279.791747
11.140000	288.163540
11.150000	296.281401
11.160000	303.649713
11.170000	309.083909
11.180000	315.127608
11.190000	321.861201
11.200000	331.593236
11.210000	340.937863
11.220000	349.716076
11.230000	358.331254
11.240000	365.482756
11.250000	374.051370
11.260000	375.533460
11.270000	372.784695
11.280000	360.878180
11.290000	344.860849
11.300000	324.189691
11.310000	304.603109
11.320000	285.465923
11.330000	268.667898
11.340000	251.712403
11.350000	236.393469
11.360000	222.936936
11.370000	214.108405
11.380000	206.794407
11.390000	186.441031
11.400000	168.048856
11.410000	154.389230
11.420000	158.647761
11.430000	165.240954
11.440000	172.266803
11.450000	179.747209
11.460000	185.863390
11.470000	191.911303
11.480000	196.100803
11.490000	201.070211
11.500000	205.309486
11.510000	209.551289
11.520000	213.832280
11.530000	218.683092
11.540000	224.671219
11.550000	230.124795
11.560000	234.830220
11.570000	241.891673
11.580000	247.619963
11.590000	249.310658
11.600000	243.390055
11.610000	234.067088
11.620000	220.462238
11.630000	202.140802
11.640000	177.179724
11.650000	151.552256
11.660000	127.870690
11.670000	108.946960
11.680000	89.522180
11.690000	61.316046
11.700000	38.885731
11.710000	27.308419
11.720000	33.236254
11.730000	41.891233
11.740000	52.273908
11.750000	64.793858
11.760000	76.618585
11.770000	86.015417
11.780000	93.953248
11.790000	98.879269
11.800000	101.944542
11.810000	98.376038
11.820000	92.610302
11.830000	82.838141
11.840000	71.938075
11.850000	57.601785
11.860000	44.601063
11.870000	30.996078
11.880000	19.927067
11.890000	1.670751
11.900000	-18.055496
11.910000	-47.711177
11.920000	-73.995976
11.930000	-97.147990
11.940000	-112.607666
11.950000	-134.988538
11.960000	-153.834928
11.970000	-174.222853
11.980000	-181.692994
11.990000	-203.924046
12.000000	-231.466909
12.010000	-287.399080
12.020000	-346.124989
12.030000	-443.728047
12.040000	-566.998885
12.050000	-742.851758
12.060000	-910.650196
12.070000	-1080.855291
12.080000	-1210.840239
12.090000	-1348.124280
12.100000	-1431.415939
12.110000	-1506.705751
12.120000	-1508.369537
12.130000	-1529.741562
12.140000	-1503.900681
12.150000	-1471.089344
12.160000	-1326.718268
12.170000	-1198.760032
12.180000	-974.559022
12.190000	-820.213646
12.200000	-690.168991
12.210000	-980.898418
12.220000	-1703.859246
12.230000	-2984.845032
12.240000	-5181.911542
12.250000	-7437.835574
12.260000	-10032.417351
12.270000	-11123.281455
12.280000	-11381.633244
12.290000	-10789.158356
12.300000	-5572.644734
12.310000	-4779.887645
12.320000	-4213.411069
12.330000	-3895.009057
12.340000	-3475.740283
12.350000	-3364.558130
12.360000	-3185.592684
12.370000	-3267.386714
12.380000	-3076.421496
12.390000	-2625.580544
12.400000	690.359352
12.410000	1030.873537
12.420000	1118.160737
12.430000	1050.424518
12.440000	1122.914629
12.450000	1070.096125
12.460000	1133.389156
12.470000	1096.506221
12.480000	1151.314359
12.490000	1122.905949
12.500000	1169.819757
12.510000	1150.814013
12.520000	1190.053155
12.530000	1168.386834
12.540000	1189.231547
12.550000	1161.091994
12.560000	1170.233158
12.570000	1141.689946
12.580000	1143.296562
12.590000	1117.614029
12.600000	1120.007272
12.610000	1101.924117
12.620000	1106.307970
12.630000	1095.685950
12.640000	1105.147832
12.650000	1099.595449
12.660000	1108.171818
12.670000	1104.026068
12.680000	1112.013287
12.690000	1109.335157
12.700000	1114.979422
12.710000	1112.557517
12.720000	1116.039904
12.730000	1113.386590
12.740000	1117.180017
12.750000	1115.494194
12.760000	1116.722285
12.770000	1111.232467
12.780000	1109.667569
12.790000	1107.276271
12.800000	1111.661739
12.810000	1110.948663
12.820000	1109.382735
12.830000	1102.279528
12.840000	1101.165034
12.850000	1101.583720
12.860000	1106.986703
12.870000	1110.544422
12.880000	1111.175994
12.890000	1107.189022
12.900000	1097.720212
12.910000	1083.858699
12.920000	1066.951911
12.930000	1048.549422
12.940000	1028.198982
12.950000	1004.258117
12.960000	980.816735
12.970000	955.972315
12.980000	934.475075
12.990000	915.694397
13.000000	904.839123
13.010000	890.393879
13.020000	870.921180
13.030000	851.468493
13.040000	836.358886
13.050000	825.555749
13.060000	815.478447
13.070000	802.334314
13.080000	787.303853
13.090000	771.806011
13.100000	760.831835
13.110000	755.292881
13.120000	748.030973
13.130000	741.499744
13.140000	735.249331
13.150000	731.407810
13.160000	729.822470
13.170000	730.009599
13.180000	730.086648
13.190000	730.312395
13.200000	730.377965
13.210000	735.993989
13.220000	746.681444
13.230000	758.696003
13.240000	768.682267
13.250000	775.099493
13.260000	780.724987
13.270000	783.854251
13.280000	781.126939
13.290000	772.314922
13.300000	759.900504
13.310000	747.142081
13.320000	735.032385
13.330000	722.327815
13.340000	709.533961
13.350000	695.540837
13.360000	686.086235
13.370000	679.766293
13.380000	676.340576
13.390000	672.348596
13.400000	667.636502
13.410000	662.631807
13.420000	657.297269
13.430000	649.943399
13.440000	643.002406
13.450000	638.286463
13.460000	639.078212
13.470000	641.643670
13.480000	642.187377
13.490000	642.382871
13.500000	642.994458
13.510000	646.493941
13.520000	650.823041
13.530000	657.649284
13.540000	665.343365
13.550000	674.511650
13.560000	682.555850
13.570000	691.755119
13.580000	700.124405
13.590000	711.382104
13.600000	723.712342
13.610000	734.374524
13.620000	742.673930
13.630000	747.400279
13.640000	751.682232
13.650000	751.441078
13.660000	744.062767
13.670000	734.537673
13.680000	731.488217
13.690000	733.976305
13.700000	733.260549
13.710000	724.794789
13.720000	711.087263
13.730000	698.325056
13.740000	686.598912
13.750000	679.566796
13.760000	675.464002
13.770000	672.844401
13.780000	669.361593
13.790000	663.492553
13.800000	657.638222
13.810000	652.504280
13.820000	649.618641
13.830000	645.202929
13.840000	641.985051
13.850000	639.594476
13.860000	638.722403
13.870000	637.346543
13.880000	634.831479
13.890000	632.806016
13.900000	631.972466
13.910000	633.969112
13.920000	639.144223
13.930000	645.159064
13.940000	651.020497
13.950000	656.719121
13.960000	664.603895
13.970000	674.639851
13.980000	683.879752
13.990000	697.951154
14.000000	705.475817
14.010000	706.995336
14.020000	692.743597
14.030000	675.467926
14.040000	656.346051
14.050000	640.985674
14.060000	626.625042
14.070000	612.875997
14.080000	595.927216
14.090000	551.074711
14.100000	508.412188
14.110000	472.234708
14.120000	467.318734
14.130000	465.949030
14.140000	463.319873
14.150000	463.719836
14.160000	462.661581
14.170000	463.877723
14.180000	464.014825
14.190000	466.752415
14.200000	467.041407
14.210000	466.676369
14.220000	463.754781
14.230000	463.316149
14.240000	464.481805
14.250000	466.653077
14.260000	466.898605
14.270000	467.700858
14.280000	469.338468
14.290000	473.113697
14.300000	476.463086
14.310000	478.225550
14.320000	477.951273
14.330000	472.023438
14.340000	461.814345
14.350000	448.849373
14.360000	433.033701
14.370000	410.692649
14.380000	384.631131
14.390000	360.570645
14.400000	339.575578
14.410000	316.791957
14.420000	292.560288
14.430000	273.723549
14.440000	261.889462
14.450000	254.335177
14.460000	245.903633
14.470000	232.975796
14.480000	215.953362
14.490000	199.318551
14.500000	184.685890
14.510000	171.011089
14.520000	157.776694
14.530000	146.398843
14.540000	138.892122
14.550000	132.128525
14.560000	124.032899
14.570000	114.886877
14.580000	108.872991
14.590000	114.345024
14.600000	124.359141
14.610000	134.497918
14.620000	139.530601
14.630000	142.694681
14.640000	145.718257
14.650000	140.885581
14.660000	132.625744
14.670000	118.075991
14.680000	110.262805
14.690000	101.896261
14.700000	95.278266
14.710000	83.376009
14.720000	77.027655
14.730000	72.166055
14.740000	71.145642
14.750000	64.942200
14.760000	62.329590
14.770000	59.032641
14.780000	61.225429
14.790000	111.572887
14.800000	164.895968
14.810000	208.551522
14.820000	195.821667
14.830000	173.134458
14.840000	157.013419
14.850000	144.010447
14.860000	135.900473
14.870000	125.876873
14.880000	120.838893
14.890000	116.726634
14.900000	115.807843
14.910000	113.570638
14.920000	113.812189
14.930000	112.070911
14.940000	110.179152
14.950000	104.233806
14.960000	99.917192
14.970000	97.726919
14.980000	101.675720
14.990000	105.870030
15.000000	110.795349
15.010000	115.017823
15.020000	122.272165
15.030000	129.823878
15.040000	138.434318
15.050000	147.301076
15.060000	157.276155
15.070000	166.779769
15.080000	178.136590
15.090000	199.615698
15.100000	218.613639
15.110000	232.151699
15.120000	231.414657
15.130000	229.420697
15.140000	229.528534
15.150000	229.012063
15.160000	232.000011
15.170000	234.920741
15.180000	243.167592
15.190000	251.805553
15.200000	258.011829
15.210000	262.036007
15.220000	268.204146
15.230000	279.265362
15.240000	291.381281
15.250000	301.833714
15.260000	313.242005
15.270000	323.390722
15.280000	333.112708
15.290000	340.942694
15.300000	349.996939
15.310000	359.150293
15.320000	368.551607
15.330000	377.020843
15.340000	382.102364
15.350000	383.563412
15.360000	387.001370
15.370000	393.425267
15.380000	399.887713
15.390000	401.613286
15.400000	399.787925
15.410000	398.138755
15.420000	395.003445
15.430000	393.005744
15.440000	392.876481
15.450000	395.869851
15.460000	397.395442
15.470000	398.076549
15.480000	397.907237
15.490000	397.947024
15.500000	396.739259
15.510000	393.813631
15.520000	391.906458
15.530000	389.327395
15.540000	389.413057
15.550000	390.151668
15.560000	393.254686
15.570000	397.291720
15.580000	402.758948
15.590000	409.420032
15.600000	416.919415
15.610000	425.539556
15.620000	436.404578
15.630000	449.644988
15.640000	463.539544
15.650000	473.730985
15.660000	485.020381
15.670000	505.145340
15.680000	528.450968
15.690000	542.192995
15.700000	537.210401
15.710000	526.286157
15.720000	506.912634
15.730000	464.998523
15.740000	388.604686
15.750000	306.806999
15.760000	233.905830
15.770000	177.245589
15.780000	121.125777
15.790000	61.029871
15.800000	-0.654132
15.810000	-63.543968
15.820000	-117.761029
15.830000	-169.849778
15.840000	-222.544786
15.850000	-279.846849
15.860000	-328.970679
15.870000	-366.892760
15.880000	-398.440619
15.890000	-405.899695
15.900000	-382.965283
15.910000	-267.109375
15.920000	-73.394001
15.930000	177.975428
15.940000	373.228465
15.950000	357.254413
15.960000	-141.829174
15.970000	-1175.190502
15.980000	-3174.979867
15.990000	-5866.454145
16.000000	-9152.949818
16.010000	-11246.127439
16.020000	-11439.777654
16.030000	-10821.981984
16.040000	-9877.309193
16.050000	-9059.485480
16.060000	-8406.447472
16.070000	-7885.267061
16.080000	-7559.212806
16.090000	-7542.885756
16.100000	-7650.850091
16.110000	-7733.632432
16.120000	-7530.210007
16.130000	-7097.949019
16.140000	-6545.739910
16.150000	-6050.146277
16.160000	-5421.959613
16.170000	-4717.712479
16.180000	-4057.380438
16.190000	-3681.970814
16.200000	-3473.507809
16.210000	-3319.268882
16.220000	-3221.976991
16.230000	-3215.342863
16.240000	-3070.749189
16.250000	-2745.951616
16.260000	-2220.269509
16.270000	-1756.025879
16.280000	-1318.661949
16.290000	-572.613405
16.300000	512.314072
16.310000	1057.275200
16.320000	1104.403374
16.330000	1107.123933
16.340000	1144.767430
16.350000	1144.539001
16.360000	1171.494970
16.370000	1164.259042
16.380000	1173.182298
16.390000	1155.376600
16.400000	1152.756826
16.410000	1130.271046
16.420000	1122.177332
16.430000	1100.316996
16.440000	1096.084991
16.450000	1081.858407
16.460000	1079.787548
16.470000	1068.940309
16.480000	1067.256309
16.490000	1059.591398
16.500000	1059.464457
16.510000	1055.502047
16.520000	1059.732068
16.530000	1063.017008
16.540000	1071.705237
16.550000	1077.488645
16.560000	1087.718916
16.570000	1098.260124
16.580000	1113.086819
16.590000	1125.334328
16.600000	1143.162356
16.610000	1161.037825
16.620000	1185.605436
16.630000	1204.690917
16.640000	1221.425681
16.650000	1232.328143
16.660000	1246.282685
16.670000	1260.937795
16.680000	1274.478264
16.690000	1283.881706
16.700000	1293.030848
16.710000	1302.488330
16.720000	1308.577405
16.730000	1307.433832
16.740000	1298.472796
16.750000	1286.066535
16.760000	1275.377695
16.770000	1266.025091
16.780000	1256.621312
16.790000	1242.984515
16.800000	1229.564232
16.810000	1218.948132
16.820000	1212.847756
16.830000	1206.570868
16.840000	1195.140894
16.850000	1183.230850
16.860000	1171.433910
16.870000	1162.240793
16.880000	1151.721031
16.890000	1138.269181
16.900000	1126.370584
16.910000	1113.624663
16.920000	1104.384991
16.930000	1095.639842
16.940000	1087.421300
16.950000	1077.997326
16.960000	1068.813756
16.970000	1061.035051
16.980000	1053.213642
16.990000	1046.427900
17.000000	1039.622762
17.010000	1035.178848
17.020000	1030.032487
17.030000	1025.958867
17.040000	1023.454697
17.050000	1020.080360
17.060000	1015.565942
17.070000	1011.891305
17.080000	1009.356035
17.090000	1005.043731
17.100000	994.492375
17.110000	978.895687
17.120000	961.986516
17.130000	939.409750
17.140000	912.179879
17.150000	882.612004
17.160000	856.066367
17.170000	831.815770
17.180000	807.633764
17.190000	785.382584
17.200000	768.557585
17.210000	754.952456
17.220000	739.826606
17.230000	722.552558
17.240000	706.793110
17.250000	694.166171
17.260000	682.100660
17.270000	669.135471
17.280000	655.766306
17.290000	642.791735
17.300000	627.107437
17.310000	611.149491
17.320000	597.468558
17.330000	589.195242
17.340000	586.508029
17.350000	585.583182
17.360000	587.246837
17.370000	590.653141
17.380000	593.668763
17.390000	596.415988
17.400000	597.774004
17.410000	602.882793
17.420000	611.885644
17.430000	622.696956
17.440000	632.014110
17.450000	638.871056
17.460000	644.836403
17.470000	648.724466
17.480000	644.331793
17.490000	631.280757
17.500000	612.188954
17.510000	592.197516
17.520000	573.391248
17.530000	554.792711
17.540000	537.953984
17.550000	522.402484
17.560000	509.876238
17.570000	501.697867
17.580000	495.475008
17.590000	488.345311
17.600000	480.435301
17.610000	474.352842
17.620000	471.077683
17.630000	466.031621
17.640000	457.414157
17.650000	447.742001
17.660000	438.433969
17.670000	431.807811
17.680000	424.123376
17.690000	417.576092
17.700000	411.825251
17.710000	408.368787
17.720000	408.545983
17.730000	410.505269
17.740000	414.625312
17.750000	419.656337
17.760000	424.724651
17.770000	431.165697
17.780000	435.496225
17.790000	444.054077
17.800000	454.596183
17.810000	466.632462
17.820000	474.366658
17.830000	480.920329
17.840000	486.480626
17.850000	488.218021
17.860000	481.273686
17.870000	477.913969
17.880000	472.702562
17.890000	438.233895
17.900000	396.284046
17.910000	358.877773
17.920000	352.923686
17.930000	349.050887
17.940000	346.659358
17.950000	353.263163
17.960000	362.039058
17.970000	369.835457
17.980000	371.763778
17.990000	374.789958
18.000000	379.487108
18.010000	387.429895
18.020000	394.878376
18.030000	403.433550
18.040000	410.607305
18.050000	420.470622
18.060000	429.664402
18.070000	440.204200
18.080000	449.055874
18.090000	459.302656
18.100000	468.446589
18.110000	481.101711
18.120000	492.826654
18.130000	507.938863
18.140000	520.191561
18.150000	534.152725
18.160000	541.868894
18.170000	544.404646
18.180000	538.213324
18.190000	492.594884
18.200000	444.756961
18.210000	400.377679
18.220000	394.058986
18.230000	391.316125
18.240000	387.788938
18.250000	385.283143
18.260000	382.521842
18.270000	381.603963
18.280000	381.256459
18.290000	408.680405
18.300000	439.526674
18.310000	471.494357
18.320000	479.076540
18.330000	484.783344
18.340000	492.250813
18.350000	498.396548
18.360000	505.114511
18.370000	512.680817
18.380000	521.654244
18.390000	526.623694
18.400000	525.544637
18.410000	518.246202
18.420000	506.113524
18.430000	489.874191
18.440000	468.685113
18.450000	448.527666
18.460000	427.240803
18.470000	404.525775
18.480000	380.804376
18.490000	361.877610
18.500000	349.696036
18.510000	339.883775
18.520000	329.930903
18.530000	319.901463
18.540000	309.836529
18.550000	300.257661
18.560000	288.069110
18.570000	276.300603
18.580000	262.289005
18.590000	233.987082
18.600000	208.257303
18.610000	189.641746
18.620000	191.250850
18.630000	195.212717
18.640000	196.948662
18.650000	203.148745
18.660000	208.948528
18.670000	217.105847
18.680000	220.922243
18.690000	225.093746
18.700000	225.203442
18.710000	219.420939
18.720000	206.484736
18.730000	190.093296
18.740000	171.089400
18.750000	151.432940
18.760000	129.347693
18.770000	109.787963
18.780000	91.585733
18.790000	52.748687
18.800000	15.942325
18.810000	-17.018961
18.820000	-23.314825
18.830000	-26.920239
18.840000	-30.184682
18.850000	-32.485792
18.860000	-33.394507
18.870000	-31.053860
18.880000	-25.282371
18.890000	6.766553
18.900000	39.689808
18.910000	70.641153
18.920000	75.929968
18.930000	72.619252
18.940000	64.792379
18.950000	48.566370
18.960000	30.674514
18.970000	8.143726
18.980000	-15.101176
18.990000	-38.632294
19.000000	-57.542002
19.010000	-66.752288
19.020000	-71.689789
19.030000	-74.207577
19.040000	-78.522848
19.050000	-82.324046
19.060000	-84.705880
19.070000	-89.800795
19.080000	-94.883519
19.090000	-101.636758
19.100000	-108.733664
19.110000	-117.828677
19.120000	-127.590372
19.130000	-135.365393
19.140000	-140.467906
19.150000	-143.588304
19.160000	-146.029866
19.170000	-146.821370
19.180000	-145.944503
19.190000	-144.073389
19.200000	-139.536738
19.210000	-133.016232
19.220000	-124.812611
19.230000	-115.310978
19.240000	-105.441973
19.250000	-94.954788
19.260000	-83.423481
19.270000	-72.290007
19.280000	-62.089092
19.290000	-53.646269
19.300000	-44.432717
19.310000	-31.355190
19.320000	-18.818127
19.330000	-6.405712
19.340000	3.767694
19.350000	13.198214
19.360000	17.314399
19.370000	12.448525
19.380000	1.522792
19.390000	-14.329471
19.400000	-35.296152
19.410000	-60.796045
19.420000	-87.799376
19.430000	-110.947541
19.440000	-130.008312
19.450000	-147.799360
19.460000	-161.895107
19.470000	-173.687569
19.480000	-180.797759
19.490000	-190.294920
19.500000	-200.035275
19.510000	-208.598066
19.520000	-214.633769
19.530000	-220.606107
19.540000	-229.595348
19.550000	-237.623121
19.560000	-244.596260
19.570000	-248.664272
19.580000	-251.302235
19.590000	-252.731538
19.600000	-254.374696
19.610000	-253.818416
19.620000	-250.816883
19.630000	-246.272512
19.640000	-241.959150
19.650000	-237.084199
19.660000	-229.462519
19.670000	-219.267577
19.680000	-206.998946
19.690000	-193.818549
19.700000	-180.567213
19.710000	-167.400643
19.720000	-154.502171
19.730000	-142.684689
19.740000	-132.135910
19.750000	-120.328719
19.760000	-107.812480
19.770000	-99.018064
19.780000	-99.861389
19.790000	-108.721908
19.800000	-121.605914
19.810000	-134.127079
19.820000	-147.735813
19.830000	-162.899159
19.840000	-179.233254
19.850000	-193.032262
19.860000	-201.771015
19.870000	-202.869222
19.880000	-201.033063
19.890000	-198.737925
19.900000	-197.998643
19.910000	-201.313012
19.920000	-208.328377
19.930000	-221.601663
19.940000	-237.346518
19.950000	-255.941170
19.960000	-274.729329
19.970000	-293.326842
19.980000	-310.817520
19.990000	-332.102246
20.000000	-351.584213
20.010000	-363.585007
20.020000	-364.731729
20.030000	-358.795453
20.040000	-352.261670
20.050000	-349.040700
20.060000	-353.167393
20.070000	-360.305291
20.080000	-368.455437
20.090000	-374.944158
20.100000	-381.799415
20.110000	-385.611333
20.120000	-390.875234
20.130000	-412.016129
20.140000	-449.957870
20.150000	-481.732748
20.160000	-487.092294
20.170000	-479.252476
20.180000	-444.196657
20.190000	-429.653393
20.200000	-662.170628
20.210000	-1166.545518
20.220000	-1583.468477
20.230000	-1677.155960
20.240000	-1690.460159
20.250000	-2227.137046
20.260000	-3380.737832
20.270000	-5608.319487
20.280000	-8535.278897
20.290000	-11064.974308
20.300000	-11914.746441
20.310000	-11737.202171
20.320000	-10008.015027
20.330000	-7676.995476
20.340000	-5416.184468
20.350000	-4212.361834
20.360000	-3419.281787
20.370000	-2957.156396
20.380000	-2588.082819
20.390000	-2259.504794
20.400000	-1939.986228
20.410000	-1647.700070
20.420000	-1322.384408
20.430000	-981.150950
20.440000	-712.019985
20.450000	-552.839545
20.460000	-523.314117
20.470000	-611.816672
20.480000	-816.676374
20.490000	-1127.810999
20.500000	-1620.980891
20.510000	-2326.720444
20.520000	-2894.277016
20.530000	-3008.098237
20.540000	-2630.373796
20.550000	-2041.721231
20.560000	-1390.811569
20.570000	-807.996737
20.580000	-378.494293
20.590000	-161.569289
20.600000	-19.002342
20.610000	93.566567
20.620000	170.652839
20.630000	233.075400
20.640000	272.529360
20.650000	316.651543
20.660000	358.279493
20.670000	399.890617
20.680000	429.627300
20.690000	455.488532
20.700000	473.914920
20.710000	493.425097
20.720000	508.469962
20.730000	526.036066
20.740000	543.639542
20.750000	563.969032
20.760000	583.433570
20.770000	603.224059
20.780000	621.194590
20.790000	638.464773
20.800000	649.247246
20.810000	656.707903
20.820000	664.279009
20.830000	676.599934
20.840000	688.262633
20.850000	697.147658
20.860000	703.232543
20.870000	709.350946
20.880000	709.158821
20.890000	701.550717
20.900000	688.409250
20.910000	673.739437
20.920000	656.964050
20.930000	640.587413
20.940000	632.518318
20.950000	642.425339
20.960000	667.022611
20.970000	695.562193
20.980000	721.190839
20.990000	742.701603
21.000000	761.019107
21.010000	771.814572
21.020000	769.833284
21.030000	756.935994
21.040000	737.978384
21.050000	720.387624
21.060000	701.753388
21.070000	683.507170
21.080000	663.843968
21.090000	648.973626
21.100000	636.235507
21.110000	627.779039
21.120000	622.945498
21.130000	622.916083
21.140000	628.314279
21.150000	638.710965
21.160000	653.343276
21.170000	672.503610
21.180000	692.356192
21.190000	699.599237
21.200000	693.065138
21.210000	676.371091
21.220000	663.465923
21.230000	654.769623
21.240000	647.187928
21.250000	640.841556
21.260000	633.902847
21.270000	628.255638
21.280000	620.936762
21.290000	603.320158
21.300000	587.025954
21.310000	576.030362
21.320000	579.128732
21.330000	583.682379
21.340000	588.263314
21.350000	595.012203
21.360000	601.052445
21.370000	607.688829
21.380000	609.826298
21.390000	609.053087
21.400000	602.256824
21.410000	591.434601
21.420000	574.680154
21.430000	555.167222
21.440000	534.102193
21.450000	513.239084
21.460000	490.852699
21.470000	469.995707
21.480000	453.942399
21.490000	441.412015
21.500000	429.700659
21.510000	418.841914
21.520000	409.801153
21.530000	401.606432
21.540000	393.910231
21.550000	386.712367
21.560000	380.360986
21.570000	375.159153
21.580000	369.815257
21.590000	362.947170
21.600000	356.286473
21.610000	353.081326
21.620000	353.424573
21.630000	354.550086
21.640000	354.908711
21.650000	357.039676
21.660000	362.065461
21.670000	368.866509
21.680000	376.232258
21.690000	382.368932
21.700000	389.086370
21.710000	396.544465
21.720000	403.949058
21.730000	410.732032
21.740000	413.816485
21.750000	414.610428
21.760000	410.351178
21.770000	399.504461
21.780000	384.576103
21.790000	366.072340
21.800000	346.820275
21.810000	327.313548
21.820000	311.754567
21.830000	300.223562
21.840000	290.362483
21.850000	282.153848
21.860000	277.991051
21.870000	278.426629
21.880000	279.956213
21.890000	280.050006
21.900000	278.943736
21.910000	278.359075
21.920000	277.606426
21.930000	275.014079
21.940000	271.291128
21.950000	270.360221
21.960000	271.980210
21.970000	275.053328
21.980000	278.351752
21.990000	281.765824
22.000000	286.409805
22.010000	296.837744
22.020000	312.804813
22.030000	329.915224
22.040000	343.549660
22.050000	354.023532
22.060000	364.987760
22.070000	376.472806
22.080000	389.111907
22.090000	403.272554
22.100000	418.251127
22.110000	431.418503
22.120000	443.751880
22.130000	454.578349
22.140000	466.279586
22.150000	473.067786
22.160000	473.838979
22.170000	468.579163
22.180000	461.763104
22.190000	454.433637
22.200000	447.038231
22.210000	441.311062
22.220000	440.002344
22.230000	441.195305
22.240000	439.643720
22.250000	436.784414
22.260000	436.645489
22.270000	438.045921
22.280000	440.669767
22.290000	439.982733
22.300000	441.742626
22.310000	440.241786
22.320000	438.526678
22.330000	433.838791
22.340000	433.358667
22.350000	433.760988
22.360000	438.563571
22.370000	441.009153
22.380000	445.820929
22.390000	485.019946
22.400000	530.601134
22.410000	576.779540
22.420000	594.003891
22.430000	609.048383
22.440000	625.698101
22.450000	638.981146
22.460000	652.437035
22.470000	660.911414
22.480000	661.537000
22.490000	653.869784
22.500000	645.012496
22.510000	634.495513
22.520000	624.516828
22.530000	611.794378
22.540000	601.064712
22.550000	589.427134
22.560000	579.315450
22.570000	570.072935
22.580000	564.931728
22.590000	563.062430
22.600000	562.232322
22.610000	561.744294
22.620000	560.219174
22.630000	559.790582
22.640000	558.549670
22.650000	556.530254
22.660000	554.236137
22.670000	551.623063
22.680000	549.613194
22.690000	547.399011
22.700000	547.353494
22.710000	547.183266
22.720000	548.124556
22.730000	547.979096
22.740000	549.262845
22.750000	552.122634
22.760000	556.421167
22.770000	561.619141
22.780000	565.930060
22.790000	570.811810
22.800000	576.455977
22.810000	583.359065
22.820000	587.656909
22.830000	591.275790
22.840000	597.214255
22.850000	604.869323
22.860000	612.120696
22.870000	617.818678
22.880000	625.392758
22.890000	631.101263
22.900000	628.343106
22.910000	619.093421
22.920000	607.652397
22.930000	596.432820
22.940000	583.301493
22.950000	567.127122
22.960000	550.646554
22.970000	536.172120
22.980000	522.667463
22.990000	510.238482
23.000000	499.039910
23.010000	490.660023
23.020000	483.755383
23.030000	475.093957
23.040000	464.496652
23.050000	450.541716
23.060000	434.595977
23.070000	417.672055
23.080000	403.720075
23.090000	391.136995
23.100000	380.199001
23.110000	368.945271
23.120000	359.705667
23.130000	351.760932
23.140000	346.232955
23.150000	343.255915
23.160000	341.772136
23.170000	342.102983
23.180000	343.322652
23.190000	347.639880
23.200000	353.878214
23.210000	361.860320
23.220000	369.442294
23.230000	377.435916
23.240000	384.012609
23.250000	390.032163
23.260000	395.593879
23.270000	401.309302
23.280000	404.512071
23.290000	399.924967
23.300000	390.464900
23.310000	381.893674
23.320000	373.077114
23.330000	359.197015
23.340000	339.043750
23.350000	319.199357
23.360000	302.009437
23.370000	285.867950
23.380000	271.658817
23.390000	260.881502
23.400000	252.310393
23.410000	243.902233
23.420000	235.643378
23.430000	227.598755
23.440000	219.316926
23.450000	209.969294
23.460000	199.333595
23.470000	188.350884
23.480000	178.693195
23.490000	171.404741
23.500000	166.724305
23.510000	169.143730
23.520000	173.401808
23.530000	179.904527
23.540000	182.066076
23.550000	184.702335
23.560000	187.388037
23.570000	192.847270
23.580000	199.035098
23.590000	206.002550
23.600000	210.677891
23.610000	217.515861
23.620000	224.306121
23.630000	232.709934
23.640000	239.925269
23.650000	250.594007
23.660000	258.517243
23.670000	270.516153
23.680000	276.397841
23.690000	234.353192
23.700000	182.165145
23.710000	131.452841
23.720000	124.016184
23.730000	118.324158
23.740000	107.629670
23.750000	101.239513
23.760000	92.532384
23.770000	84.513983
23.780000	72.747028
23.790000	65.154471
23.800000	59.264890
23.810000	55.801864
23.820000	51.436112
23.830000	49.799229
23.840000	49.591005
23.850000	54.473802
23.860000	59.385207
23.870000	67.500634
23.880000	74.822367
23.890000	84.877153
23.900000	94.904304
23.910000	107.262806
23.920000	119.300577
23.930000	132.654695
23.940000	145.347735
23.950000	157.713436
23.960000	169.052248
23.970000	180.771177
23.980000	194.082461
23.990000	154.668990
24.000000	104.369046
24.010000	41.773311
24.020000	25.478749
24.030000	7.910679
24.040000	-4.940088
24.050000	-22.670745
24.060000	-34.312069
24.070000	-52.660726
24.080000	-63.286201
24.090000	-81.743650
24.100000	-86.168459
24.110000	-100.296370
24.120000	-98.927847
24.130000	-113.349418
24.140000	-109.519974
24.150000	-130.292809
24.160000	-131.886949
24.170000	-168.852717
24.180000	-182.289075
24.190000	-230.748953
24.200000	-245.689499
24.210000	-310.744171
24.220000	-343.314681
24.230000	-417.852371
24.240000	-434.810569
24.250000	-513.577465
24.260000	-527.312711
24.270000	-615.048968
24.280000	-594.615774
24.290000	-636.505841
24.300000	-680.301665
24.310000	-1005.914776
24.320000	-1130.911319
24.330000	-1075.054242
24.340000	-763.612916
24.350000	-942.131727
24.360000	-1543.768560
24.370000	-2650.990279
24.380000	-4870.106425
24.390000	-6986.079799
24.400000	-1092.785889
24.410000	-489.856827
24.420000	-46.091270
24.430000	126.018240
24.440000	365.724990
24.450000	311.949419
24.460000	332.522749
24.470000	196.214578
24.480000	212.451335
24.490000	154.319035
24.500000	262.977772
24.510000	287.717970
24.520000	402.649630
24.530000	423.109981
24.540000	439.054066
24.550000	200.546623
24.560000	-221.348508
24.570000	-929.850900
24.580000	-1707.559447
24.590000	-2415.152003
24.600000	-2666.782571
24.610000	-2472.897641
24.620000	-1923.914888
24.630000	-1280.467114
24.640000	-723.518146
24.650000	-442.416125
24.660000	-453.669944
24.670000	-668.098177
24.680000	-900.247385
24.690000	-924.693909
24.700000	-807.649347
24.710000	-621.329710
24.720000	-562.082539
24.730000	-536.192505
24.740000	-480.957962
24.750000	-458.755924
24.760000	-414.868896
24.770000	-388.267150
24.780000	-345.270806
24.790000	-330.015976
24.800000	-308.816201
24.810000	-308.956184
24.820000	-294.211101
24.830000	-290.758406
24.840000	-273.154858
24.850000	-261.376026
24.860000	-238.688454
24.870000	-220.104845
24.880000	-192.167870
24.890000	-120.563614
