Time(s)	GREEN_denoised_wiener
0.000000	-171.297586
0.010000	-259.784587
0.020000	-265.469524
0.030000	-269.138931
0.040000	-272.497865
0.050000	-275.149757
0.060000	-274.181347
0.070000	-269.831092
0.080000	-264.532509
0.090000	-260.172371
0.100000	-256.539148
0.110000	-249.162988
0.120000	-241.896135
0.130000	-235.138067
0.140000	-230.249495
0.150000	-224.094314
0.160000	-216.938837
0.170000	-208.375131
0.180000	-199.625526
0.190000	-188.973859
0.200000	-181.991325
0.210000	-175.875127
0.220000	-177.375345
0.230000	-183.407809
0.240000	-201.780815
0.250000	-224.889465
0.260000	-253.533782
0.270000	-277.999758
0.280000	-303.317864
0.290000	-362.176403
0.300000	-420.575601
0.310000	-472.085352
0.320000	-485.755670
0.330000	-495.829464
0.340000	-508.848851
0.350000	-516.856030
0.360000	-525.300889
0.370000	-527.838646
0.380000	-531.110114
0.390000	-530.444791
0.400000	-530.933817
0.410000	-527.677563
0.420000	-524.435100
0.430000	-517.877727
0.440000	-511.942924
0.450000	-504.046283
0.460000	-494.444573
0.470000	-480.860281
0.480000	-469.287722
0.490000	-457.302981
0.500000	-447.462746
0.510000	-432.703822
0.520000	-419.993904
0.530000	-404.054991
0.540000	-391.541490
0.550000	-379.362740
0.560000	-377.106933
0.570000	-380.615453
0.580000	-396.350620
0.590000	-451.908299
0.600000	-508.393451
0.610000	-555.928954
0.620000	-563.358955
0.630000	-568.118787
0.640000	-574.881597
0.650000	-579.598115
0.660000	-584.400997
0.670000	-586.042101
0.680000	-587.249232
0.690000	-586.453022
0.700000	-586.421097
0.710000	-584.159478
0.720000	-583.255370
0.730000	-579.822709
0.740000	-577.086103
0.750000	-571.443749
0.760000	-566.913949
0.770000	-559.685756
0.780000	-551.733104
0.790000	-541.225681
0.800000	-529.201447
0.810000	-515.068713
0.820000	-499.981771
0.830000	-485.553123
0.840000	-473.401830
0.850000	-463.672793
0.860000	-459.468912
0.870000	-461.758421
0.880000	-470.170388
0.890000	-482.142350
0.900000	-494.841688
0.910000	-507.836347
0.920000	-519.479365
0.930000	-527.832160
0.940000	-533.091758
0.950000	-535.463075
0.960000	-535.005056
0.970000	-530.056796
0.980000	-523.899011
0.990000	-520.285116
1.000000	-520.084559
1.010000	-519.466250
1.020000	-517.911135
1.030000	-514.945644
1.040000	-511.372217
1.050000	-507.052987
1.060000	-501.462293
1.070000	-494.791884
1.080000	-486.512828
1.090000	-477.496583
1.100000	-467.856084
1.110000	-456.826521
1.120000	-445.164009
1.130000	-432.112303
1.140000	-419.104113
1.150000	-404.013979
1.160000	-388.346017
1.170000	-371.534630
1.180000	-353.881121
1.190000	-338.018661
1.200000	-320.355591
1.210000	-303.141351
1.220000	-281.766656
1.230000	-261.913888
1.240000	-242.780971
1.250000	-227.317266
1.260000	-214.069875
1.270000	-207.355981
1.280000	-208.636562
1.290000	-215.335374
1.300000	-225.155254
1.310000	-235.264004
1.320000	-246.968822
1.330000	-258.467066
1.340000	-267.396626
1.350000	-273.959073
1.360000	-276.433848
1.370000	-277.076156
1.380000	-274.407765
1.390000	-272.153938
1.400000	-267.309056
1.410000	-265.199920
1.420000	-261.127577
1.430000	-259.882849
1.440000	-255.861211
1.450000	-252.868067
1.460000	-245.512142
1.470000	-240.495166
1.480000	-231.736072
1.490000	-172.952731
1.500000	-104.805784
1.510000	-36.263008
1.520000	-13.249530
1.530000	5.393935
1.540000	27.610760
1.550000	46.405679
1.560000	69.574738
1.570000	90.107048
1.580000	110.963630
1.590000	119.162718
1.600000	124.480345
1.610000	126.589853
1.620000	135.090765
1.630000	142.370048
1.640000	147.787900
1.650000	150.885530
1.660000	154.228690
1.670000	157.796478
1.680000	163.076752
1.690000	169.104373
1.700000	177.335702
1.710000	186.476170
1.720000	196.336366
1.730000	206.252560
1.740000	218.417989
1.750000	231.426059
1.760000	247.249770
1.770000	262.325773
1.780000	278.505056
1.790000	295.294894
1.800000	314.175480
1.810000	333.666142
1.820000	353.259373
1.830000	371.780223
1.840000	391.096826
1.850000	409.964821
1.860000	429.687537
1.870000	450.560106
1.880000	473.025970
1.890000	496.901504
1.900000	517.767792
1.910000	535.336452
1.920000	547.921827
1.930000	556.862934
1.940000	560.818901
1.950000	560.479229
1.960000	556.801448
1.970000	553.187470
1.980000	550.529494
1.990000	548.979894
2.000000	548.009033
2.010000	550.201386
2.020000	555.569169
2.030000	562.840823
2.040000	571.553468
2.050000	580.567479
2.060000	589.629745
2.070000	596.378347
2.080000	603.811205
2.090000	610.601587
2.100000	618.759864
2.110000	626.238828
2.120000	635.814025
2.130000	644.285687
2.140000	653.307982
2.150000	661.751796
2.160000	672.239564
2.170000	683.969579
2.180000	697.269078
2.190000	711.279351
2.200000	727.400453
2.210000	744.344468
2.220000	761.964759
2.230000	779.170520
2.240000	797.633907
2.250000	815.751885
2.260000	835.076411
2.270000	854.424138
2.280000	875.625970
2.290000	901.531667
2.300000	922.908514
2.310000	937.090426
2.320000	940.956690
2.330000	944.452296
2.340000	951.088092
2.350000	957.563356
2.360000	966.002621
2.370000	972.426199
2.380000	981.376087
2.390000	986.695498
2.400000	995.555638
2.410000	1002.700441
2.420000	1014.871542
2.430000	1024.770510
2.440000	1038.327747
2.450000	1048.576059
2.460000	1065.267712
2.470000	1077.095198
2.480000	1096.377588
2.490000	1172.488042
2.500000	1249.637467
2.510000	1314.770662
2.520000	1316.899124
2.530000	1313.457257
2.540000	1314.136042
2.550000	1309.865585
2.560000	1312.871571
2.570000	1313.654549
2.580000	1320.429572
2.590000	1324.504396
2.600000	1334.141621
2.610000	1343.422928
2.620000	1357.993208
2.630000	1369.744934
2.640000	1384.658194
2.650000	1396.140569
2.660000	1413.140804
2.670000	1426.260854
2.680000	1442.443428
2.690000	1480.188098
2.700000	1515.404368
2.710000	1540.268714
2.720000	1531.765667
2.730000	1517.263176
2.740000	1503.178258
2.750000	1486.674423
2.760000	1472.721175
2.770000	1457.838022
2.780000	1446.728801
2.790000	1435.085759
2.800000	1425.865247
2.810000	1416.426967
2.820000	1409.792721
2.830000	1402.860120
2.840000	1396.840754
2.850000	1388.389405
2.860000	1381.016194
2.870000	1372.678606
2.880000	1365.645219
2.890000	1357.062051
2.900000	1349.397071
2.910000	1342.212277
2.920000	1337.597170
2.930000	1335.464366
2.940000	1335.571214
2.950000	1338.158673
2.960000	1341.981910
2.970000	1346.629171
2.980000	1351.164898
2.990000	1355.542327
3.000000	1360.790870
3.010000	1367.560939
3.020000	1374.517679
3.030000	1381.689371
3.040000	1387.679763
3.050000	1395.268226
3.060000	1404.606678
3.070000	1414.281247
3.080000	1424.643316
3.090000	1435.397098
3.100000	1447.120020
3.110000	1456.272358
3.120000	1460.035794
3.130000	1457.589893
3.140000	1449.391554
3.150000	1438.016069
3.160000	1424.178031
3.170000	1410.549779
3.180000	1396.390275
3.190000	1383.859576
3.200000	1373.699711
3.210000	1364.932028
3.220000	1358.447950
3.230000	1352.764566
3.240000	1349.972212
3.250000	1345.678434
3.260000	1339.606496
3.270000	1332.025428
3.280000	1325.010268
3.290000	1320.135132
3.300000	1315.835723
3.310000	1313.683293
3.320000	1312.416109
3.330000	1312.331308
3.340000	1313.758340
3.350000	1316.405547
3.360000	1320.863760
3.370000	1326.235959
3.380000	1332.397712
3.390000	1339.492995
3.400000	1346.353415
3.410000	1354.181357
3.420000	1363.732156
3.430000	1373.955135
3.440000	1386.207320
3.450000	1397.472805
3.460000	1409.116504
3.470000	1418.734854
3.480000	1429.127442
3.490000	1440.409720
3.500000	1451.889065
3.510000	1462.836764
3.520000	1472.401995
3.530000	1479.012826
3.540000	1478.992823
3.550000	1472.281835
3.560000	1459.668326
3.570000	1444.305669
3.580000	1426.416752
3.590000	1408.081544
3.600000	1390.910119
3.610000	1375.266177
3.620000	1362.484274
3.630000	1351.187416
3.640000	1344.146467
3.650000	1339.170921
3.660000	1335.888786
3.670000	1330.552853
3.680000	1325.387761
3.690000	1319.666146
3.700000	1314.296571
3.710000	1306.841455
3.720000	1300.959188
3.730000	1296.743218
3.740000	1296.697176
3.750000	1297.028940
3.760000	1300.186044
3.770000	1302.363714
3.780000	1308.430768
3.790000	1338.471445
3.800000	1374.634924
3.810000	1411.342289
3.820000	1428.862058
3.830000	1445.712471
3.840000	1462.767438
3.850000	1476.462921
3.860000	1486.740643
3.870000	1492.267127
3.880000	1491.770332
3.890000	1483.792852
3.900000	1472.202376
3.910000	1458.365130
3.920000	1446.360982
3.930000	1433.971560
3.940000	1424.251187
3.950000	1417.620197
3.960000	1414.523215
3.970000	1413.978980
3.980000	1415.175400
3.990000	1418.051807
4.000000	1419.864476
4.010000	1420.508413
4.020000	1420.597653
4.030000	1420.672530
4.040000	1420.034051
4.050000	1419.880718
4.060000	1420.505715
4.070000	1420.788326
4.080000	1418.342749
4.090000	1413.738429
4.100000	1408.549112
4.110000	1406.058649
4.120000	1405.441782
4.130000	1406.075848
4.140000	1405.357591
4.150000	1406.803918
4.160000	1407.949836
4.170000	1411.237125
4.180000	1413.550600
4.190000	1419.046197
4.200000	1422.145961
4.210000	1424.227800
4.220000	1423.752152
4.230000	1428.118208
4.240000	1433.009153
4.250000	1442.045464
4.260000	1447.248060
4.270000	1459.369974
4.280000	1467.772718
4.290000	1476.076842
4.300000	1468.586196
4.310000	1481.934652
4.320000	1510.288909
4.330000	1556.487474
4.340000	1560.488757
4.350000	1499.143431
4.360000	1239.721398
4.370000	528.771013
4.380000	-826.379681
4.390000	-3580.382200
4.400000	-7888.288224
4.410000	-11376.429518
4.420000	-12498.471888
4.430000	-12892.996681
4.440000	-12455.333622
4.450000	-11575.176675
4.460000	-10531.829603
4.470000	-9614.213983
4.480000	-8814.449820
4.490000	-8129.446742
4.500000	-7539.708061
4.510000	-6971.547857
4.520000	-6554.542490
4.530000	-6219.454836
4.540000	-5877.007761
4.550000	-5468.799756
4.560000	-5073.202378
4.570000	-4813.956823
4.580000	-4746.564251
4.590000	-4720.235762
4.600000	-4687.231369
4.610000	-4428.065588
4.620000	-4016.727493
4.630000	-3393.217357
4.640000	-2768.992783
4.650000	-2104.704130
4.660000	-1479.607956
4.670000	-929.763287
4.680000	-660.044717
4.690000	-1085.935396
4.700000	-1937.371046
4.710000	-2321.158424
4.720000	-2090.543965
4.730000	-1873.910806
4.740000	-1768.142708
4.750000	-1639.388715
4.760000	-1580.055624
4.770000	-1468.304389
4.780000	-1405.608216
4.790000	-1324.114779
4.800000	-1290.891261
4.810000	-1238.916869
4.820000	-1210.835581
4.830000	-1153.482635
4.840000	-1113.079768
4.850000	-1057.526909
4.860000	-1020.531718
4.870000	-969.415918
4.880000	-929.169171
4.890000	-881.212415
4.900000	-845.606604
4.910000	-811.283960
4.920000	-796.819351
4.930000	-783.948237
4.940000	-773.444983
4.950000	-751.934249
4.960000	-731.835394
4.970000	-712.578514
4.980000	-699.602896
4.990000	-685.882448
5.000000	-669.745661
5.010000	-653.223752
5.020000	-633.569141
5.030000	-617.952775
5.040000	-596.038311
5.050000	-578.767309
5.060000	-553.803910
5.070000	-535.682627
5.080000	-510.184133
5.090000	-374.046930
5.100000	-240.519172
5.110000	-127.509473
5.120000	-131.095611
5.130000	-139.093314
5.140000	-137.969577
5.150000	-147.795962
5.160000	-149.763199
5.170000	-151.597869
5.180000	-139.858322
5.190000	-131.843782
5.200000	-119.911110
5.210000	-110.487775
5.220000	-92.943074
5.230000	-72.868947
5.240000	-50.987548
5.250000	-33.624653
5.260000	-15.693078
5.270000	1.910877
5.280000	21.584851
5.290000	37.063767
5.300000	50.192950
5.310000	61.855315
5.320000	75.115082
5.330000	88.609487
5.340000	100.009416
5.350000	112.353330
5.360000	125.871036
5.370000	140.738766
5.380000	154.701122
5.390000	167.772315
5.400000	180.173727
5.410000	188.437752
5.420000	194.302717
5.430000	204.759767
5.440000	217.715639
5.450000	234.065605
5.460000	243.740791
5.470000	251.721850
5.480000	255.721779
5.490000	226.279314
5.500000	193.508976
5.510000	161.073427
5.520000	161.016814
5.530000	165.011131
5.540000	168.900501
5.550000	174.274124
5.560000	174.404237
5.570000	174.212053
5.580000	172.199999
5.590000	174.480585
5.600000	177.278349
5.610000	182.741844
5.620000	189.323046
5.630000	198.989300
5.640000	208.998055
5.650000	220.223311
5.660000	229.304762
5.670000	239.452065
5.680000	249.910647
5.690000	259.656846
5.700000	265.821597
5.710000	270.853062
5.720000	279.382068
5.730000	288.672599
5.740000	294.916508
5.750000	296.809285
5.760000	299.111234
5.770000	298.901857
5.780000	292.280269
5.790000	279.984187
5.800000	263.762447
5.810000	246.379688
5.820000	227.880881
5.830000	211.427483
5.840000	198.304572
5.850000	185.106146
5.860000	172.382887
5.870000	162.767621
5.880000	157.768545
5.890000	154.393838
5.900000	149.464123
5.910000	143.674465
5.920000	140.143458
5.930000	137.586766
5.940000	137.139871
5.950000	134.461118
5.960000	133.469395
5.970000	130.959654
5.980000	131.463915
5.990000	156.481866
6.000000	193.675897
6.010000	241.009426
6.020000	274.471236
6.030000	304.943191
6.040000	332.547380
6.050000	353.844184
6.060000	368.943600
6.070000	374.044744
6.080000	372.335972
6.090000	361.874812
6.100000	350.732757
6.110000	343.672675
6.120000	340.091657
6.130000	335.102258
6.140000	329.777049
6.150000	326.512229
6.160000	326.101420
6.170000	324.552397
6.180000	323.083402
6.190000	317.220186
6.200000	304.046205
6.210000	288.887108
6.220000	274.979717
6.230000	262.522079
6.240000	246.207785
6.250000	227.485220
6.260000	212.424776
6.270000	209.430943
6.280000	216.589537
6.290000	226.337198
6.300000	232.734745
6.310000	237.573944
6.320000	242.522135
6.330000	246.779705
6.340000	249.618779
6.350000	255.976678
6.360000	262.000194
6.370000	268.495291
6.380000	272.680523
6.390000	279.009132
6.400000	285.986463
6.410000	294.504730
6.420000	299.918982
6.430000	308.338236
6.440000	316.801541
6.450000	337.521616
6.460000	359.929640
6.470000	382.705083
6.480000	388.989657
6.490000	332.448757
6.500000	266.297496
6.510000	205.728969
6.520000	195.661178
6.530000	187.392813
6.540000	172.442653
6.550000	162.753306
6.560000	150.476885
6.570000	142.126916
6.580000	131.115362
6.590000	126.516998
6.600000	123.355254
6.610000	126.239972
6.620000	130.542891
6.630000	134.610788
6.640000	133.694915
6.650000	131.310410
6.660000	124.134150
6.670000	114.999483
6.680000	106.879527
6.690000	96.978351
6.700000	83.265862
6.710000	62.258629
6.720000	43.660364
6.730000	30.492380
6.740000	22.684749
6.750000	20.364926
6.760000	23.346402
6.770000	34.550682
6.780000	52.968478
6.790000	76.370854
6.800000	99.219106
6.810000	126.189935
6.820000	154.085502
6.830000	178.643365
6.840000	190.909494
6.850000	193.432076
6.860000	191.711824
6.870000	185.508454
6.880000	175.152361
6.890000	161.556274
6.900000	150.241935
6.910000	142.562223
6.920000	135.622622
6.930000	129.211518
6.940000	125.311846
6.950000	127.166649
6.960000	130.950560
6.970000	136.099502
6.980000	139.216789
6.990000	140.677871
7.000000	142.121502
7.010000	141.882038
7.020000	144.678482
7.030000	147.031611
7.040000	153.558813
7.050000	160.459029
7.060000	168.084708
7.070000	175.182714
7.080000	185.591784
7.090000	216.911241
7.100000	249.630498
7.110000	279.983089
7.120000	292.603950
7.130000	303.774966
7.140000	317.509992
7.150000	330.178642
7.160000	344.399166
7.170000	357.533689
7.180000	369.594597
7.190000	375.172658
7.200000	375.774335
7.210000	370.770906
7.220000	363.596869
7.230000	347.305435
7.240000	326.415513
7.250000	305.805393
7.260000	291.534996
7.270000	281.580556
7.280000	274.954548
7.290000	271.655466
7.300000	270.668166
7.310000	271.695672
7.320000	272.004891
7.330000	273.043634
7.340000	270.622210
7.350000	265.701623
7.360000	257.864758
7.370000	252.671508
7.380000	250.388044
7.390000	251.269771
7.400000	250.525672
7.410000	249.178665
7.420000	246.954190
7.430000	247.392279
7.440000	250.333245
7.450000	255.900488
7.460000	262.334064
7.470000	271.712629
7.480000	280.947192
7.490000	264.756767
7.500000	239.634452
7.510000	213.068679
7.520000	207.989738
7.530000	207.897681
7.540000	204.325582
7.550000	201.386167
7.560000	195.932858
7.570000	191.851774
7.580000	186.813968
7.590000	184.624900
7.600000	183.637205
7.610000	183.692316
7.620000	180.739715
7.630000	178.069619
7.640000	176.458139
7.650000	177.739071
7.660000	181.125033
7.670000	189.039435
7.680000	199.067154
7.690000	212.304380
7.700000	223.613510
7.710000	236.213386
7.720000	247.096960
7.730000	260.429369
7.740000	272.846757
7.750000	285.945747
7.760000	307.566887
7.770000	336.055641
7.780000	365.227243
7.790000	385.441786
7.800000	397.535183
7.810000	404.452271
7.820000	404.448524
7.830000	399.089858
7.840000	387.305695
7.850000	376.367822
7.860000	364.755905
7.870000	357.614332
7.880000	347.120458
7.890000	337.844555
7.900000	325.744077
7.910000	318.054854
7.920000	310.952796
7.930000	310.574361
7.940000	308.068572
7.950000	310.752867
7.960000	309.754173
7.970000	315.598648
7.980000	315.990783
7.990000	322.790827
8.000000	321.768814
8.010000	331.686392
8.020000	337.733767
8.030000	357.950997
8.040000	366.523438
8.050000	386.962598
8.060000	394.124004
8.070000	418.404292
8.080000	424.153724
8.090000	447.319528
8.100000	448.920881
8.110000	477.083578
8.120000	480.022863
8.130000	510.410090
8.140000	505.081921
8.150000	535.380915
8.160000	526.681269
8.170000	561.724817
8.180000	540.719777
8.190000	559.880544
8.200000	497.766935
8.210000	465.280507
8.220000	295.991440
8.230000	132.133595
8.240000	-192.693423
8.250000	-477.065112
8.260000	-957.309701
8.270000	-1408.058532
8.280000	-2113.054125
8.290000	-2838.694557
8.300000	-3898.137396
8.310000	-5882.488144
8.320000	-7879.918640
8.330000	-8223.085475
8.340000	-7300.242382
8.350000	-3758.733430
8.360000	-725.864806
8.370000	642.036893
8.380000	1374.664676
8.390000	1314.274947
8.400000	-9371.956076
8.410000	-6465.052426
8.420000	-3089.263961
8.430000	-1644.819684
8.440000	-756.679933
8.450000	-165.148934
8.460000	-136.710149
8.470000	44.980982
8.480000	27.925910
8.490000	249.212096
8.500000	319.559556
8.510000	586.400598
8.520000	718.262510
8.530000	1009.241259
8.540000	1180.325380
8.550000	1448.043633
8.560000	1487.167615
8.570000	1373.882521
8.580000	907.182512
8.590000	220.239886
8.600000	-777.515444
8.610000	-1950.611117
8.620000	-2689.895270
8.630000	-2856.217919
8.640000	-2633.132836
8.650000	-2282.757277
8.660000	-2004.932197
8.670000	-1726.947532
8.680000	-1465.376217
8.690000	-1177.708227
8.700000	-952.245507
8.710000	-769.906562
8.720000	-652.960864
8.730000	-548.965434
8.740000	-485.628677
8.750000	-423.906514
8.760000	-386.531613
8.770000	-343.768832
8.780000	-319.981705
8.790000	-287.553510
8.800000	-265.959490
8.810000	-235.963436
8.820000	-218.111329
8.830000	-195.334722
8.840000	-183.417953
8.850000	-167.686786
8.860000	-164.206654
8.870000	-152.669806
8.880000	-148.156618
8.890000	-197.136314
8.900000	-259.265296
8.910000	-318.065397
8.920000	-327.690210
8.930000	-331.970889
8.940000	-341.086000
8.950000	-343.212456
8.960000	-346.934210
8.970000	-349.151500
8.980000	-352.193424
8.990000	-325.061626
9.000000	-300.690710
9.010000	-279.946001
9.020000	-289.989070
9.030000	-297.726915
9.040000	-301.769719
9.050000	-307.254149
9.060000	-309.250961
9.070000	-310.864864
9.080000	-307.104556
9.090000	-306.239765
9.100000	-302.981846
9.110000	-300.699211
9.120000	-294.229640
9.130000	-290.920114
9.140000	-283.831794
9.150000	-277.231887
9.160000	-267.472124
9.170000	-262.301370
9.180000	-255.132644
9.190000	-201.325722
9.200000	-144.762166
9.210000	-97.989702
9.220000	-100.524597
9.230000	-110.154529
9.240000	-120.778012
9.250000	-140.416428
9.260000	-161.713955
9.270000	-184.088173
9.280000	-204.032922
9.290000	-227.510121
9.300000	-248.041730
9.310000	-262.665543
9.320000	-268.775138
9.330000	-273.905581
9.340000	-282.222525
9.350000	-293.189071
9.360000	-304.053330
9.370000	-314.201066
9.380000	-321.936930
9.390000	-327.941814
9.400000	-330.201814
9.410000	-332.085822
9.420000	-331.840896
9.430000	-330.625881
9.440000	-328.197297
9.450000	-326.893985
9.460000	-323.927015
9.470000	-319.891898
9.480000	-313.705746
9.490000	-308.287532
9.500000	-302.860831
9.510000	-297.404850
9.520000	-288.058076
9.530000	-274.584602
9.540000	-258.980360
9.550000	-242.146686
9.560000	-228.631091
9.570000	-216.074661
9.580000	-210.355732
9.590000	-223.403631
9.600000	-242.062270
9.610000	-261.138356
9.620000	-264.789866
9.630000	-263.662554
9.640000	-260.545690
9.650000	-256.565071
9.660000	-255.357710
