Time(s)	RED_denoised_wiener
0.000000	1237.235105
0.010000	1626.352979
0.020000	1335.215846
0.030000	1561.262154
0.040000	1941.116637
0.050000	2583.827077
0.060000	3161.508792
0.070000	3873.197206
0.080000	4212.989295
0.090000	4167.945660
0.100000	3814.740115
0.110000	3380.130318
0.120000	2937.760828
0.130000	2353.100053
0.140000	1703.052178
0.150000	1051.724266
0.160000	516.846802
0.170000	122.112546
0.180000	-171.174567
0.190000	-417.855143
0.200000	-766.431803
0.210000	-1173.608315
0.220000	-1517.452318
0.230000	-1773.609065
0.240000	-2010.708103
0.250000	-2278.538247
0.260000	-2537.030888
0.270000	-2694.640118
0.280000	-2842.837347
0.290000	-2765.210948
0.300000	-2578.540418
0.310000	-2329.905364
0.320000	-1905.450019
0.330000	-1434.583323
0.340000	-832.085690
0.350000	-445.432093
0.360000	-42.445165
0.370000	396.151719
0.380000	695.679842
0.390000	739.913134
0.400000	503.070180
0.410000	194.670932
0.420000	-80.142865
0.430000	-411.758487
0.440000	-608.899297
0.450000	-754.926033
0.460000	-759.830185
0.470000	-799.808835
0.480000	-891.306542
0.490000	-931.013766
0.500000	-926.405014
0.510000	-900.579574
0.520000	-1005.508856
0.530000	-1138.764845
0.540000	-1254.085259
0.550000	-1319.307239
0.560000	-1407.937046
0.570000	-1482.195888
0.580000	-1512.797476
0.590000	-1490.792446
0.600000	-1399.288201
0.610000	-1179.593028
0.620000	-931.198925
0.630000	-668.144473
0.640000	-419.135526
0.650000	-180.592857
0.660000	257.509265
0.670000	940.186572
0.680000	1545.159599
0.690000	2153.421283
0.700000	2567.726709
0.710000	2768.157315
0.720000	2628.014778
0.730000	2301.011028
0.740000	2253.174753
0.750000	2182.435782
0.760000	2006.285015
0.770000	1698.361879
0.780000	1267.839868
0.790000	843.296110
0.800000	346.841008
0.810000	-273.685789
0.820000	-821.126713
0.830000	-1344.664748
0.840000	-1660.107418
0.850000	-1811.925878
0.860000	-1821.679477
0.870000	-1623.935839
0.880000	-1345.099659
0.890000	-936.787083
0.900000	-487.884999
0.910000	-154.812047
0.920000	123.605621
0.930000	336.309493
0.940000	501.187212
0.950000	647.473570
0.960000	743.947362
0.970000	925.438223
0.980000	1073.355874
0.990000	1239.882872
1.000000	1308.645608
1.010000	1252.249294
1.020000	1037.262685
1.030000	735.916375
1.040000	308.582842
1.050000	39.817339
1.060000	-153.095737
1.070000	-288.093935
1.080000	-292.181540
1.090000	-313.937584
1.100000	-202.435353
1.110000	-322.521957
1.120000	-300.317796
1.130000	-110.387775
1.140000	173.536160
1.150000	443.327227
1.160000	696.020758
1.170000	1052.390410
1.180000	1446.667845
1.190000	1781.708768
1.200000	2077.644895
1.210000	2248.409794
1.220000	2258.434808
1.230000	2173.396204
1.240000	2039.177456
1.250000	1919.772565
1.260000	1824.108834
1.270000	1789.232550
1.280000	1722.690666
1.290000	1576.487168
1.300000	1346.732552
1.310000	1143.058868
1.320000	880.912744
1.330000	614.683524
1.340000	334.587702
1.350000	98.832286
1.360000	-87.546339
1.370000	-164.531235
1.380000	-140.866191
1.390000	-52.968046
1.400000	92.230657
1.410000	278.571861
1.420000	511.722509
1.430000	820.175860
1.440000	1111.550103
1.450000	1379.684068
1.460000	1767.454097
1.470000	2102.326022
1.480000	2507.503378
1.490000	2757.008244
1.500000	3017.296115
1.510000	3034.200407
1.520000	2878.646541
1.530000	2731.692761
1.540000	2644.637827
1.550000	2524.786413
1.560000	2327.758118
1.570000	2154.274402
1.580000	2012.619813
1.590000	1938.164877
1.600000	1821.745415
1.610000	1851.866582
1.620000	1812.085220
1.630000	1813.460307
1.640000	1776.226162
1.650000	1818.589093
1.660000	1908.277842
1.670000	2086.242397
1.680000	2296.719998
1.690000	2477.867790
1.700000	2579.181424
1.710000	2620.674315
1.720000	2606.586284
1.730000	2433.838800
1.740000	2206.879791
1.750000	1934.391512
1.760000	1641.869979
1.770000	1295.765114
1.780000	924.679827
1.790000	529.377082
1.800000	223.112677
1.810000	-12.726577
1.820000	-122.939315
1.830000	-226.998379
1.840000	-268.865114
1.850000	-312.289194
1.860000	-326.889856
1.870000	-375.193471
1.880000	-356.157766
1.890000	-181.158411
1.900000	46.687000
1.910000	437.099739
1.920000	694.055068
1.930000	984.599999
1.940000	994.738029
1.950000	1032.109610
1.960000	1118.938240
1.970000	1214.078859
1.980000	1105.635665
1.990000	793.595426
2.000000	448.766796
2.010000	143.806097
2.020000	-95.935828
2.030000	-340.951149
2.040000	-461.126336
2.050000	-656.321070
2.060000	-792.105920
2.070000	-936.956359
2.080000	-1009.716782
2.090000	-986.458580
2.100000	-919.246951
2.110000	-822.569000
2.120000	-724.192493
2.130000	-649.051348
2.140000	-563.023019
2.150000	-571.966156
2.160000	-662.909295
2.170000	-756.414665
2.180000	-834.681910
2.190000	-888.939141
2.200000	-985.044790
2.210000	-1060.162880
2.220000	-1194.186525
2.230000	-1379.533968
2.240000	-1630.443221
2.250000	-1850.657358
2.260000	-2024.310579
2.270000	-2222.744197
2.280000	-2418.297337
2.290000	-2545.118167
2.300000	-2619.903543
2.310000	-2512.482156
2.320000	-2302.814292
2.330000	-1965.618474
2.340000	-1497.513878
2.350000	-1147.176392
2.360000	-737.774692
2.370000	-504.596740
2.380000	-59.053086
2.390000	398.634003
2.400000	811.329242
2.410000	1153.552159
2.420000	1322.097978
2.430000	1459.745219
2.440000	1416.661731
2.450000	1340.018778
2.460000	1283.232120
2.470000	1213.318553
2.480000	1079.015189
2.490000	874.004021
2.500000	666.263921
2.510000	452.755380
2.520000	244.478171
2.530000	30.372446
2.540000	-200.381290
2.550000	-494.183251
2.560000	-868.570514
2.570000	-1222.489601
2.580000	-1500.963322
2.590000	-1622.467391
2.600000	-1591.671206
2.610000	-1506.781067
2.620000	-1401.280934
2.630000	-1287.450067
2.640000	-1180.312378
2.650000	-1120.604469
2.660000	-1111.990709
2.670000	-1110.711248
2.680000	-1041.666175
2.690000	-894.746983
2.700000	-667.112620
2.710000	-422.717758
2.720000	-166.148141
2.730000	58.450124
2.740000	211.408734
2.750000	382.553219
2.760000	428.905195
2.770000	554.187003
2.780000	665.163940
2.790000	868.279899
2.800000	885.610443
2.810000	815.649548
2.820000	791.728287
2.830000	892.109701
2.840000	1013.923142
2.850000	1035.759531
2.860000	1039.583250
2.870000	1004.031642
2.880000	1114.048805
2.890000	1293.157275
2.900000	1608.813941
2.910000	1790.257601
2.920000	1879.340700
2.930000	1866.452278
2.940000	1778.536241
2.950000	1621.490204
2.960000	1475.502878
2.970000	1387.670270
2.980000	1343.532785
2.990000	1279.614010
3.000000	1250.451083
3.010000	1219.203646
3.020000	1148.263415
3.030000	1059.853018
3.040000	903.102989
3.050000	697.924040
3.060000	455.812610
3.070000	259.081959
3.080000	75.432398
3.090000	-89.431549
3.100000	-212.677350
3.110000	-248.325500
3.120000	-185.996332
3.130000	-27.030535
3.140000	175.095162
3.150000	297.627059
3.160000	398.568587
3.170000	467.982747
3.180000	479.547603
3.190000	599.751157
3.200000	702.939942
3.210000	943.169407
3.220000	1131.604655
3.230000	1262.971848
3.240000	1239.227135
3.250000	1053.235744
3.260000	922.343794
3.270000	803.327441
3.280000	679.743330
3.290000	479.474722
3.300000	257.365902
3.310000	33.399746
3.320000	-87.238189
3.330000	-108.436330
3.340000	-19.263941
3.350000	-9.286287
3.360000	-12.050565
3.370000	-21.099244
3.380000	14.820119
3.390000	60.383444
3.400000	136.377509
3.410000	253.369816
3.420000	365.310306
3.430000	413.852485
3.440000	360.159245
3.450000	239.734383
3.460000	7.648134
3.470000	-304.981499
3.480000	-685.053298
3.490000	-1094.436989
3.500000	-1471.499378
3.510000	-1822.890067
3.520000	-2155.423458
3.530000	-2450.752414
3.540000	-2740.296754
3.550000	-2959.832064
3.560000	-3161.637488
3.570000	-3308.815005
3.580000	-3454.039885
3.590000	-3560.033926
3.600000	-3627.029062
3.610000	-3613.288692
3.620000	-3604.185808
3.630000	-3574.057589
3.640000	-3380.508328
3.650000	-3063.480953
3.660000	-2605.159785
3.670000	-2237.745808
3.680000	-1965.005840
3.690000	-1884.423933
3.700000	-1835.633402
3.710000	-1734.133976
3.720000	-1698.977399
3.730000	-1858.026057
3.740000	-2162.995899
3.750000	-2443.742194
3.760000	-2717.688765
3.770000	-2946.464707
3.780000	-3127.974630
3.790000	-3182.801946
3.800000	-3277.764267
3.810000	-3388.776016
3.820000	-3491.046801
3.830000	-3535.846150
3.840000	-3558.388675
3.850000	-3600.095717
3.860000	-3629.693525
3.870000	-3663.639250
3.880000	-3721.503337
3.890000	-3823.013142
3.900000	-3952.713275
3.910000	-4089.869433
3.920000	-4177.654426
3.930000	-4221.727784
3.940000	-4252.828292
3.950000	-4317.459974
3.960000	-4378.937559
3.970000	-4456.843914
3.980000	-4556.504831
3.990000	-4715.814402
4.000000	-4867.613902
4.010000	-5011.130766
4.020000	-5085.387670
4.030000	-5123.201279
4.040000	-5091.810981
4.050000	-5049.016599
4.060000	-4923.375114
4.070000	-4717.196641
4.080000	-4338.508771
4.090000	-3813.863661
4.100000	-3367.346006
4.110000	-2965.316769
4.120000	-2785.256595
4.130000	-2459.432098
4.140000	-2185.211812
4.150000	-2038.372157
4.160000	-2025.468410
4.170000	-2160.824517
4.180000	-2257.997332
4.190000	-2436.941604
4.200000	-2545.601761
4.210000	-2580.956704
4.220000	-2591.836675
4.230000	-2631.137085
4.240000	-2676.685553
4.250000	-2692.432172
4.260000	-2742.962986
4.270000	-2790.263589
4.280000	-2826.473999
4.290000	-2813.495321
4.300000	-2776.307560
4.310000	-2760.599138
4.320000	-2762.820317
4.330000	-2780.853864
4.340000	-2772.368790
4.350000	-2739.041467
4.360000	-2703.786759
4.370000	-2693.717569
4.380000	-2699.580939
4.390000	-2719.221696
4.400000	-2738.148857
4.410000	-2773.285463
4.420000	-2831.160640
4.430000	-2885.396966
4.440000	-2929.698048
4.450000	-2981.376119
4.460000	-3001.549574
4.470000	-3028.367601
4.480000	-3057.082987
4.490000	-2988.230901
4.500000	-2815.670266
4.510000	-2432.279957
4.520000	-2007.813313
4.530000	-1611.848040
4.540000	-1443.438319
4.550000	-1349.240073
4.560000	-1132.401152
4.570000	-820.370968
4.580000	-595.912164
4.590000	-551.039678
4.600000	-600.388506
4.610000	-733.699308
4.620000	-846.723449
4.630000	-908.341985
4.640000	-870.793646
4.650000	-914.390815
4.660000	-987.338168
4.670000	-1092.366653
4.680000	-1157.119119
4.690000	-1232.789911
4.700000	-1250.009078
4.710000	-1195.472700
4.720000	-1092.102799
4.730000	-997.019063
4.740000	-970.640602
4.750000	-1023.863128
4.760000	-1139.533785
4.770000	-1235.961036
4.780000	-1313.749451
4.790000	-1397.887709
4.800000	-1408.437387
4.810000	-1331.087084
4.820000	-1226.756385
4.830000	-1164.398266
4.840000	-1166.703363
4.850000	-1172.232046
4.860000	-1170.542698
4.870000	-1073.937868
4.880000	-954.904827
4.890000	-943.215793
4.900000	-1050.689676
4.910000	-983.064982
4.920000	-547.831173
4.930000	-66.401455
4.940000	337.495965
4.950000	730.044126
4.960000	1233.238282
4.970000	1683.301466
4.980000	2077.353932
4.990000	2627.415216
5.000000	3400.004206
5.010000	3970.448857
5.020000	4407.613713
5.030000	4690.507428
5.040000	4888.745140
5.050000	5233.617758
5.060000	5736.548337
5.070000	6536.020640
5.080000	6886.869310
5.090000	7033.086282
5.100000	7328.773147
5.110000	7741.037221
5.120000	7835.189347
5.130000	7585.060458
5.140000	7387.384977
5.150000	7168.410277
5.160000	6767.628671
5.170000	6306.154086
5.180000	5837.641690
5.190000	5244.716823
5.200000	4424.985223
5.210000	3580.405517
5.220000	2745.492850
5.230000	1891.210920
5.240000	1055.141953
5.250000	372.242833
5.260000	70.004820
5.270000	-59.628030
5.280000	-34.649600
5.290000	62.618990
5.300000	349.539522
5.310000	682.444709
5.320000	901.313230
5.330000	1117.980471
5.340000	1297.982347
5.350000	1694.270062
5.360000	2157.511498
5.370000	2768.824713
5.380000	3590.287629
5.390000	4419.285455
5.400000	5140.269781
5.410000	5447.190298
5.420000	5611.472423
5.430000	5741.950031
5.440000	5841.017868
5.450000	5757.256096
5.460000	5243.603034
5.470000	4351.350934
5.480000	3544.624942
5.490000	2996.950664
5.500000	2411.992874
5.510000	1611.177160
5.520000	825.455706
5.530000	346.874991
5.540000	-101.674403
5.550000	-689.494039
5.560000	-1096.824154
5.570000	-1317.086053
5.580000	-1360.048195
5.590000	-1297.878754
5.600000	-1136.118446
5.610000	-1143.088973
5.620000	-1498.307112
5.630000	-1848.531469
5.640000	-2121.629942
5.650000	-2355.304238
5.660000	-2595.336757
5.670000	-2760.422916
5.680000	-2818.874633
5.690000	-2821.128414
5.700000	-2550.372877
5.710000	-2183.943960
5.720000	-1894.886584
5.730000	-1847.763198
5.740000	-2140.243283
5.750000	-2463.158125
5.760000	-2870.958158
5.770000	-3195.968792
5.780000	-3250.643951
5.790000	-3198.769570
5.800000	-3030.210177
5.810000	-2850.579334
5.820000	-2760.453237
5.830000	-2664.541383
5.840000	-2877.512086
5.850000	-2977.503179
5.860000	-2964.752475
5.870000	-2959.817157
5.880000	-2980.732486
5.890000	-2979.971743
5.900000	-2937.140481
5.910000	-2925.402858
5.920000	-2962.414998
5.930000	-3001.341887
5.940000	-2994.037002
5.950000	-3143.989167
5.960000	-3341.816140
5.970000	-3605.334922
5.980000	-3790.164872
5.990000	-3907.121299
6.000000	-4025.019863
6.010000	-4173.145294
6.020000	-4337.434533
6.030000	-4497.830750
6.040000	-4693.020965
6.050000	-4921.080881
6.060000	-5085.021617
6.070000	-5171.902923
6.080000	-5197.441086
6.090000	-5142.635402
6.100000	-5060.730422
6.110000	-4997.350675
6.120000	-5020.751221
6.130000	-5033.278461
6.140000	-5040.054684
6.150000	-5050.550728
6.160000	-5073.019465
6.170000	-5073.035870
6.180000	-5051.075591
6.190000	-4885.847421
6.200000	-4672.719640
6.210000	-4310.443769
6.220000	-3909.602258
6.230000	-3605.429828
6.240000	-3338.604395
6.250000	-3238.921056
6.260000	-3037.495776
6.270000	-2967.774698
6.280000	-2980.257879
6.290000	-3094.464203
6.300000	-3289.553853
6.310000	-3486.637392
6.320000	-3668.326919
6.330000	-3738.567722
6.340000	-3710.705341
6.350000	-3682.366066
6.360000	-3757.736610
6.370000	-3885.704305
6.380000	-4018.073911
6.390000	-4117.033976
6.400000	-4178.130612
6.410000	-4251.138548
6.420000	-4235.732495
6.430000	-4194.312293
6.440000	-4128.120073
6.450000	-4070.191770
6.460000	-4039.418591
6.470000	-3960.426819
6.480000	-3917.768831
6.490000	-3912.710226
6.500000	-3973.468152
6.510000	-4078.463175
6.520000	-4138.251956
6.530000	-4183.815627
6.540000	-4227.918989
6.550000	-4329.559475
6.560000	-4445.567623
6.570000	-4473.065976
6.580000	-4480.611501
6.590000	-4283.465549
6.600000	-4081.631889
6.610000	-3735.182251
6.620000	-3351.245918
6.630000	-2891.077651
6.640000	-2470.528160
6.650000	-2255.017029
6.660000	-1992.903628
6.670000	-1792.514662
6.680000	-1602.073118
6.690000	-1550.072014
6.700000	-1484.367236
6.710000	-1482.820662
6.720000	-1507.901458
6.730000	-1429.870554
6.740000	-1249.679920
6.750000	-1119.217735
6.760000	-1181.647919
6.770000	-1311.036744
6.780000	-1465.388137
6.790000	-1665.233246
6.800000	-1859.802349
6.810000	-2019.688977
6.820000	-2109.732026
6.830000	-2091.999074
6.840000	-2004.396003
6.850000	-1866.782957
6.860000	-1832.614257
6.870000	-1777.321236
6.880000	-1682.305551
6.890000	-1501.630378
6.900000	-1297.804603
6.910000	-1124.087964
6.920000	-959.604487
6.930000	-730.568608
6.940000	-387.302883
6.950000	62.964908
6.960000	636.904235
6.970000	1302.206538
6.980000	2016.261785
6.990000	2665.434572
7.000000	3419.916445
7.010000	4073.816623
7.020000	4724.928202
7.030000	5305.603312
7.040000	5845.736233
7.050000	6216.485029
7.060000	6416.762101
7.070000	6659.156477
7.080000	6900.624575
7.090000	6982.050338
7.100000	6859.346649
7.110000	6620.185492
7.120000	6254.682553
7.130000	5932.029926
7.140000	5697.898913
7.150000	5677.314271
7.160000	5576.522569
7.170000	5376.579740
7.180000	5149.959118
7.190000	5001.498009
7.200000	4913.291190
7.210000	4855.284255
7.220000	4800.200909
7.230000	4770.445611
7.240000	4731.862549
7.250000	4721.378046
7.260000	4678.835272
7.270000	4562.941878
7.280000	4504.863072
7.290000	4403.450849
7.300000	4253.405765
7.310000	3953.282457
7.320000	3631.835809
7.330000	3345.171302
7.340000	3121.447530
7.350000	2950.214180
7.360000	2790.570642
7.370000	2587.815776
7.380000	2430.351667
7.390000	2273.986290
7.400000	2159.300169
7.410000	2071.607853
7.420000	1980.142192
7.430000	2054.385275
7.440000	2140.369853
7.450000	2405.320367
7.460000	2642.179811
7.470000	2896.561175
7.480000	3032.437389
7.490000	3117.643164
7.500000	3204.936216
7.510000	3216.985229
7.520000	3100.453016
7.530000	2861.778219
7.540000	2598.842375
7.550000	2262.456646
7.560000	2003.404969
7.570000	1853.767643
7.580000	1964.921745
7.590000	2191.558204
7.600000	2767.776258
7.610000	3699.017621
7.620000	4758.290461
7.630000	5957.766522
7.640000	7232.560115
7.650000	8626.783019
7.660000	9986.922966
7.670000	11207.568661
7.680000	12522.187932
7.690000	13667.963509
7.700000	14678.907982
7.710000	15484.712432
7.720000	16084.794175
7.730000	16627.512345
7.740000	16940.441734
7.750000	16702.546926
7.760000	15426.129431
7.770000	13154.338600
7.780000	9998.592601
7.790000	6969.190124
7.800000	4646.816827
7.810000	2929.314557
7.820000	1572.510836
7.830000	1012.979866
7.840000	1501.553922
7.850000	2627.470518
7.860000	3608.886691
7.870000	3509.846511
7.880000	3054.420530
7.890000	2426.714171
7.900000	2190.972861
7.910000	2400.820113
7.920000	2874.853403
7.930000	3788.880524
7.940000	4594.384183
7.950000	5283.732434
7.960000	5381.268324
7.970000	5224.121769
7.980000	4982.331430
7.990000	4678.744210
8.000000	4416.585469
8.010000	4150.595081
8.020000	4048.393184
8.030000	3653.700716
8.040000	3201.734501
8.050000	2760.982088
8.060000	2502.991847
8.070000	2395.001210
8.080000	2300.595998
8.090000	2327.989617
8.100000	2377.926944
8.110000	2418.124465
8.120000	2374.772193
8.130000	2216.336299
8.140000	2019.207233
8.150000	1845.468023
8.160000	1642.619220
8.170000	1479.557284
8.180000	1315.018538
8.190000	1154.731275
8.200000	935.850937
8.210000	676.748838
8.220000	534.015886
8.230000	416.370926
8.240000	325.721175
8.250000	206.786067
8.260000	113.341848
8.270000	-13.493307
8.280000	-80.004393
8.290000	-86.751923
8.300000	-32.734259
8.310000	260.086846
8.320000	576.733290
8.330000	994.671425
8.340000	1155.278064
8.350000	1340.957329
8.360000	1531.264114
8.370000	1746.627610
8.380000	1817.332394
8.390000	1668.160935
8.400000	1413.524012
8.410000	1125.847120
8.420000	1038.090382
8.430000	947.603013
8.440000	1008.902864
8.450000	907.000123
8.460000	848.410750
8.470000	741.841282
8.480000	641.245188
8.490000	564.844197
8.500000	454.127711
8.510000	400.516684
8.520000	389.643048
8.530000	422.486959
8.540000	468.994373
8.550000	483.334050
8.560000	484.108408
8.570000	499.792915
8.580000	479.588280
8.590000	397.903499
8.600000	261.404808
8.610000	109.684817
8.620000	-4.162377
8.630000	-61.383412
8.640000	-82.594019
8.650000	-122.970656
8.660000	-194.331764
8.670000	-246.814775
8.680000	-272.946652
8.690000	-320.906893
8.700000	-418.602098
8.710000	-374.493620
8.720000	-326.260186
8.730000	-72.916357
8.740000	246.714485
8.750000	646.311418
8.760000	964.104507
8.770000	1120.995739
8.780000	1336.543203
8.790000	1464.569502
8.800000	1556.417261
8.810000	1467.831124
8.820000	1339.965850
8.830000	1140.505797
8.840000	1006.534737
8.850000	1045.987629
8.860000	1115.967428
8.870000	1182.319703
8.880000	1074.910379
8.890000	969.484326
8.900000	833.161712
8.910000	669.629580
8.920000	535.771493
8.930000	490.992903
8.940000	550.803984
8.950000	630.289132
8.960000	713.232690
8.970000	754.378577
8.980000	729.591165
8.990000	670.825954
9.000000	576.058961
9.010000	443.141071
9.020000	258.696105
9.030000	56.451175
9.040000	-102.059336
9.050000	-280.385810
9.060000	-402.903967
9.070000	-541.099528
9.080000	-718.423925
9.090000	-957.285543
9.100000	-1206.217374
9.110000	-1470.438207
9.120000	-1728.750448
9.130000	-1999.847161
9.140000	-2304.771243
9.150000	-2382.965142
9.160000	-2366.687918
9.170000	-2164.620530
9.180000	-1943.131655
9.190000	-1785.534911
9.200000	-1625.987293
9.210000	-1595.813516
9.220000	-1453.308835
9.230000	-1358.353320
9.240000	-1300.989874
9.250000	-1361.635052
9.260000	-1470.753835
9.270000	-1707.821885
9.280000	-1924.054409
9.290000	-2003.262833
9.300000	-2068.176805
9.310000	-2116.192842
9.320000	-2312.594618
9.330000	-2483.693800
9.340000	-2746.647532
9.350000	-2999.429991
9.360000	-3175.302215
9.370000	-3338.030405
9.380000	-3522.049697
9.390000	-3706.653620
9.400000	-3789.414515
9.410000	-3795.804093
9.420000	-3802.764166
9.430000	-3829.974896
9.440000	-3880.580116
9.450000	-3948.298953
9.460000	-4018.887399
9.470000	-4111.896410
9.480000	-4243.366303
9.490000	-4391.572063
9.500000	-4509.291062
9.510000	-4564.472545
9.520000	-4638.043194
9.530000	-4784.484683
9.540000	-4969.068446
9.550000	-5130.943711
9.560000	-5266.436506
9.570000	-5393.982998
9.580000	-5529.317076
9.590000	-5519.412405
9.600000	-5394.889345
9.610000	-5123.523471
9.620000	-4830.414918
9.630000	-4573.638546
9.640000	-4336.924597
9.650000	-4058.149484
9.660000	-3667.936302
9.670000	-3453.160961
9.680000	-3335.801274
9.690000	-3251.732829
9.700000	-3066.662453
9.710000	-2914.898053
9.720000	-2858.848451
9.730000	-2835.574612
9.740000	-2816.317238
9.750000	-2751.048283
9.760000	-2683.900101
9.770000	-2675.422416
9.780000	-2780.656437
9.790000	-2879.503997
9.800000	-2890.039291
9.810000	-2838.738164
9.820000	-2817.790649
9.830000	-2882.726132
9.840000	-3005.834332
9.850000	-3124.137958
9.860000	-3164.035981
9.870000	-3190.116213
9.880000	-3220.296046
9.890000	-3310.719089
9.900000	-3402.425947
9.910000	-3484.974187
9.920000	-3532.699309
9.930000	-3481.976577
9.940000	-3398.178118
9.950000	-3225.831110
9.960000	-3015.799260
9.970000	-2806.835515
9.980000	-2633.926034
9.990000	-2490.909041
10.000000	-2356.860540
10.010000	-2181.750360
10.020000	-1942.048341
10.030000	-1574.328707
10.040000	-1076.918436
10.050000	-638.274682
10.060000	-290.203090
10.070000	-168.015813
10.080000	-13.918296
10.090000	126.567012
10.100000	142.009804
10.110000	-11.172199
10.120000	-264.261420
10.130000	-500.620269
10.140000	-764.815255
10.150000	-934.114737
10.160000	-994.840550
10.170000	-876.290556
10.180000	-742.347483
10.190000	-580.819464
10.200000	-478.629355
10.210000	-437.282494
10.220000	-382.872172
10.230000	-327.148196
10.240000	-220.112142
10.250000	-122.484081
10.260000	-48.723808
10.270000	-2.956334
10.280000	-17.911457
10.290000	-42.027154
10.300000	-80.417518
10.310000	-178.036141
10.320000	-301.202345
10.330000	-442.611644
10.340000	-514.258922
10.350000	-555.362636
10.360000	-587.759810
10.370000	-591.824451
10.380000	-587.861060
10.390000	-573.714584
10.400000	-570.181329
10.410000	-603.441459
10.420000	-615.090538
10.430000	-581.417512
10.440000	-505.225758
10.450000	-293.950777
10.460000	-66.760952
10.470000	298.360672
10.480000	649.467720
10.490000	1005.324701
10.500000	1189.678519
10.510000	1275.491685
10.520000	1380.865798
10.530000	1466.746896
10.540000	1488.224213
10.550000	1318.632131
10.560000	1169.700632
10.570000	1003.353826
10.580000	893.340745
10.590000	845.412632
10.600000	837.763016
10.610000	814.569828
10.620000	798.927817
10.630000	811.580302
10.640000	865.264317
10.650000	819.363884
10.660000	812.897100
10.670000	862.339746
10.680000	954.644913
10.690000	1072.834855
10.700000	1172.848973
10.710000	1262.336535
10.720000	1292.763843
10.730000	1283.222977
10.740000	1141.238535
10.750000	919.040333
10.760000	636.825930
10.770000	405.641766
10.780000	227.983602
10.790000	75.360373
10.800000	-60.266410
10.810000	-206.772172
10.820000	-261.621049
10.830000	-255.065047
10.840000	-319.384343
10.850000	-473.173578
10.860000	-613.942440
10.870000	-664.478377
10.880000	-531.917190
10.890000	-404.681523
10.900000	-169.521937
10.910000	103.487133
10.920000	398.899214
10.930000	620.978340
10.940000	589.298043
10.950000	600.323530
10.960000	520.059283
10.970000	503.674842
10.980000	350.054401
10.990000	151.043767
11.000000	-83.629191
11.010000	-323.315820
11.020000	-417.769747
11.030000	-492.885439
11.040000	-520.605191
11.050000	-671.116753
11.060000	-791.001826
11.070000	-878.547535
11.080000	-938.531879
11.090000	-956.373524
11.100000	-953.608962
11.110000	-885.798911
11.120000	-785.343800
11.130000	-685.004764
11.140000	-618.861162
11.150000	-639.707011
11.160000	-742.330283
11.170000	-898.790655
11.180000	-1090.601935
11.190000	-1277.256453
11.200000	-1460.765738
11.210000	-1652.857028
11.220000	-1831.277021
11.230000	-1975.569390
11.240000	-2085.282798
11.250000	-2157.045969
11.260000	-2223.158123
11.270000	-2315.291730
11.280000	-2420.347365
11.290000	-2462.133724
11.300000	-2428.481253
11.310000	-2313.761763
11.320000	-2146.810465
11.330000	-1808.082172
11.340000	-1347.704834
11.350000	-893.714914
11.360000	-536.259358
11.370000	-410.568232
11.380000	-194.988292
11.390000	25.700358
11.400000	195.935381
11.410000	172.969329
11.420000	-7.409926
11.430000	-88.580351
11.440000	-227.315025
11.450000	-325.854492
11.460000	-386.918835
11.470000	-297.566209
11.480000	-157.527864
11.490000	-100.792291
11.500000	-110.809544
11.510000	-152.051538
11.520000	-108.287366
11.530000	-10.799579
11.540000	116.171346
11.550000	218.621987
11.560000	298.034635
11.570000	392.396826
11.580000	482.661777
11.590000	544.411574
11.600000	549.200004
11.610000	532.524917
11.620000	507.600812
11.630000	454.137500
11.640000	350.924499
11.650000	204.418954
11.660000	94.376522
11.670000	35.449415
11.680000	23.371872
11.690000	-2.411978
11.700000	-59.250555
11.710000	-124.900277
11.720000	-186.633970
11.730000	-135.190824
11.740000	-23.529517
11.750000	209.098484
11.760000	641.225465
11.770000	1125.703766
11.780000	1631.569507
11.790000	1841.125593
11.800000	2072.598363
11.810000	2275.807878
11.820000	2415.608257
11.830000	2477.153086
11.840000	2358.653935
11.850000	2214.811395
11.860000	1992.070302
11.870000	1964.312410
11.880000	2051.792798
11.890000	2218.210810
11.900000	2277.716600
11.910000	2290.063140
11.920000	2295.533586
11.930000	2259.657431
11.940000	2243.895268
11.950000	2145.415616
11.960000	2082.145656
11.970000	2085.552602
11.980000	2146.568192
11.990000	2183.440640
12.000000	2172.434612
12.010000	2157.131946
12.020000	2121.088371
12.030000	2034.739904
12.040000	1897.441375
12.050000	1757.435741
12.060000	1599.574316
12.070000	1486.633416
12.080000	1409.130354
12.090000	1385.195568
12.100000	1378.826748
12.110000	1399.505405
12.120000	1437.760896
12.130000	1453.019997
12.140000	1452.450044
12.150000	1414.413038
12.160000	1509.959672
12.170000	1648.378712
12.180000	1944.993766
12.190000	2289.015577
12.200000	2636.169750
12.210000	2957.320184
12.220000	3037.461673
12.230000	3200.398045
12.240000	3258.642920
12.250000	3367.711835
12.260000	3267.309501
12.270000	3112.794827
12.280000	2933.257017
12.290000	2768.200986
12.300000	2770.142947
12.310000	2760.325406
12.320000	2894.910313
12.330000	2856.778218
12.340000	2853.747813
12.350000	2786.014511
12.360000	2717.998113
12.370000	2685.801445
12.380000	2663.372772
12.390000	2732.512978
12.400000	2830.311627
12.410000	2924.603882
12.420000	2966.833642
12.430000	2946.427187
12.440000	2865.685647
12.450000	2742.253795
12.460000	2553.053477
12.470000	2309.469226
12.480000	2094.578865
12.490000	1892.038699
12.500000	1745.228514
12.510000	1611.331420
12.520000	1489.954434
12.530000	1412.002934
12.540000	1327.082958
12.550000	1250.814719
12.560000	1104.577985
12.570000	959.663297
12.580000	797.116568
12.590000	777.629733
12.600000	831.981146
12.610000	1017.902007
12.620000	1292.860507
12.630000	1585.718881
12.640000	1918.953153
12.650000	2062.798783
12.660000	2286.371484
12.670000	2444.027960
12.680000	2575.587265
12.690000	2558.097748
12.700000	2436.551584
12.710000	2328.319843
12.720000	2257.880507
12.730000	2338.070578
12.740000	2374.651513
12.750000	2441.843663
12.760000	2429.868330
12.770000	2441.818750
12.780000	2337.366711
12.790000	2137.185640
12.800000	1926.658533
12.810000	1743.369721
12.820000	1647.627325
12.830000	1659.724526
12.840000	1690.575720
12.850000	1630.635875
12.860000	1469.074018
12.870000	1296.102886
12.880000	1185.805504
12.890000	1128.951236
12.900000	1127.510590
12.910000	1115.221009
12.920000	1138.800802
12.930000	1167.218029
12.940000	1256.603847
12.950000	1316.084020
12.960000	1348.937515
12.970000	1331.146345
12.980000	1260.601942
12.990000	1166.898927
13.000000	1056.471866
13.010000	978.370249
13.020000	1034.755269
13.030000	1179.701680
13.040000	1485.295537
13.050000	1776.285744
13.060000	2062.274698
13.070000	2283.609979
13.080000	2418.621092
13.090000	2642.737660
13.100000	2722.773123
13.110000	2776.757069
13.120000	2701.243077
13.130000	2658.431441
13.140000	2621.117264
13.150000	2588.435025
13.160000	2634.453202
13.170000	2717.709622
13.180000	2889.965885
13.190000	3026.753242
13.200000	3128.406740
13.210000	3156.274157
13.220000	3199.448467
13.230000	3318.632720
13.240000	3426.665291
13.250000	3523.143033
13.260000	3510.193424
13.270000	3452.343938
13.280000	3423.323554
13.290000	3452.999922
13.300000	3494.818134
13.310000	3475.488942
13.320000	3396.088853
13.330000	3319.050438
13.340000	3213.673114
13.350000	3046.505745
13.360000	2876.410961
13.370000	2751.831127
13.380000	2757.813342
13.390000	2800.561247
13.400000	2888.390725
13.410000	3001.440434
13.420000	3197.071896
13.430000	3437.949765
13.440000	3730.762744
13.450000	3944.635198
13.460000	4244.819348
13.470000	4620.387622
13.480000	5008.950593
13.490000	5370.749932
13.500000	5510.199956
13.510000	5782.168564
13.520000	5951.371198
13.530000	6113.370285
13.540000	6057.239953
13.550000	5817.115936
13.560000	5553.324322
13.570000	5253.253761
13.580000	5190.058829
13.590000	5197.046836
13.600000	5340.962511
13.610000	5431.660365
13.620000	5532.085312
13.630000	5655.659796
13.640000	5749.545944
13.650000	5895.212460
13.660000	5995.030182
13.670000	6133.779432
13.680000	6298.757738
13.690000	6478.191067
13.700000	6628.905514
13.710000	6704.096835
13.720000	6753.152526
13.730000	6754.974941
13.740000	6748.728501
13.750000	6726.217228
13.760000	6645.704046
13.770000	6503.720374
13.780000	6355.995286
13.790000	6273.081313
13.800000	6198.418416
13.810000	6120.042985
13.820000	6055.063497
13.830000	5997.747843
13.840000	5923.459689
13.850000	5844.688110
13.860000	5812.425446
13.870000	5933.576091
13.880000	6153.739277
13.890000	6507.162257
13.900000	6901.490317
13.910000	7289.654584
13.920000	7697.219440
13.930000	7976.112029
13.940000	8332.025623
13.950000	8547.843616
13.960000	8719.791135
13.970000	8724.066169
13.980000	8667.281304
13.990000	8577.160319
14.000000	8403.642516
14.010000	8309.252728
14.020000	8224.443674
14.030000	8317.405034
14.040000	8321.787807
14.050000	8337.295347
14.060000	8335.508756
14.070000	8388.854065
14.080000	8524.827054
14.090000	8658.153077
14.100000	8876.332474
14.110000	9139.143042
14.120000	9427.600425
14.130000	9693.084868
14.140000	9831.745606
14.150000	9881.106192
14.160000	9880.248485
14.170000	9821.681842
14.180000	9705.115475
14.190000	9627.865278
14.200000	9565.650164
14.210000	9525.464868
14.220000	9443.315312
14.230000	9418.834432
14.240000	9453.693695
14.250000	9415.479688
14.260000	9408.695034
14.270000	9369.964324
14.280000	9439.550981
14.290000	9504.042291
14.300000	9619.490493
14.310000	9765.857372
14.320000	10035.679899
14.330000	10378.548406
14.340000	10819.004870
14.350000	11222.058720
14.360000	11566.560976
14.370000	11941.450802
14.380000	12280.263865
14.390000	12622.367974
14.400000	12688.988093
14.410000	11814.444944
14.420000	9796.520776
14.430000	4862.982410
14.440000	-755.652346
14.450000	-5608.687102
14.460000	-12682.838426
14.470000	-22782.493747
14.480000	-23052.551985
14.490000	-19393.519767
14.500000	-21153.243334
14.510000	-24576.741032
14.520000	-24251.248225
14.530000	-23998.070704
14.540000	-24278.088800
14.550000	-24490.146989
14.560000	-24240.031414
14.570000	-24165.596664
14.580000	-24253.395508
14.590000	-24014.622504
14.600000	-24063.007528
14.610000	-24270.501863
14.620000	-24019.837730
14.630000	-23474.759028
14.640000	-23159.227353
14.650000	-23351.582170
14.660000	-23495.903276
14.670000	-23708.833797
14.680000	-24197.077899
14.690000	-24796.989524
14.700000	-25196.435794
14.710000	-25246.186767
14.720000	-25177.769725
14.730000	-25016.751261
14.740000	-24383.258880
14.750000	-23284.984722
14.760000	-22072.630172
14.770000	-20740.514785
14.780000	-19358.820510
14.790000	-18180.158367
14.800000	-17512.777776
14.810000	-17075.799505
14.820000	-16234.379910
14.830000	-15507.561575
14.840000	-15127.480261
14.850000	-14558.836484
14.860000	-13500.846383
14.870000	-12329.927273
14.880000	-11327.909429
14.890000	-10347.463456
14.900000	-9418.751404
14.910000	-8685.938111
14.920000	-8137.792446
14.930000	-7707.887502
14.940000	-7409.345384
14.950000	-7172.904382
14.960000	-6841.952476
14.970000	-6550.012466
14.980000	-6366.678526
14.990000	-6078.638241
15.000000	-5840.376271
15.010000	-5573.251990
15.020000	-5210.067100
15.030000	-4896.411854
15.040000	-4682.457511
15.050000	-4649.284888
15.060000	-4644.167279
15.070000	-4670.214020
15.080000	-4711.118329
15.090000	-4745.423448
15.100000	-4834.591365
15.110000	-4819.320547
15.120000	-4703.472965
15.130000	-4325.055584
15.140000	-3794.729920
15.150000	-3118.128293
15.160000	-2347.741346
15.170000	-1651.810966
15.180000	-980.111032
15.190000	-382.392772
15.200000	89.222007
15.210000	335.271747
15.220000	297.043759
15.230000	138.926272
15.240000	-13.864388
15.250000	-126.957248
15.260000	-132.969952
15.270000	-194.092279
15.280000	-305.905107
15.290000	-404.350255
15.300000	-461.225042
15.310000	-430.846069
15.320000	-456.014730
15.330000	-521.860436
15.340000	-620.107015
15.350000	-681.658448
15.360000	-643.165312
15.370000	-575.441377
15.380000	-499.703343
15.390000	-458.899472
15.400000	-383.881827
15.410000	-260.790607
15.420000	-105.088214
15.430000	76.729339
15.440000	211.910365
15.450000	276.102983
15.460000	300.115031
15.470000	300.826782
15.480000	181.396243
15.490000	121.031485
15.500000	-66.603343
15.510000	-184.320091
15.520000	-269.188845
15.530000	-281.402545
15.540000	-232.189396
15.550000	-379.771111
15.560000	-378.806122
15.570000	-310.584873
15.580000	-188.509317
15.590000	-76.142177
15.600000	-40.159675
15.610000	23.832260
15.620000	113.960475
15.630000	176.393530
15.640000	399.141563
15.650000	476.328836
15.660000	551.621710
15.670000	545.716586
15.680000	527.908664
15.690000	516.697309
15.700000	394.889230
15.710000	273.037000
15.720000	115.535620
15.730000	29.503087
15.740000	-19.806094
15.750000	-11.141690
15.760000	-38.729163
15.770000	-95.772727
15.780000	-203.325305
15.790000	-404.393508
15.800000	-632.884104
15.810000	-831.633986
15.820000	-954.400925
15.830000	-996.917297
15.840000	-998.297293
15.850000	-914.565635
15.860000	-777.327324
15.870000	-631.175220
15.880000	-493.206905
15.890000	-352.632765
15.900000	-256.836969
15.910000	-91.235639
15.920000	95.829147
15.930000	348.158759
15.940000	516.710317
15.950000	673.238163
15.960000	889.336806
15.970000	1067.265417
15.980000	1166.199744
15.990000	1135.345920
16.000000	1010.381312
16.010000	857.926369
16.020000	748.990382
16.030000	723.838305
16.040000	802.627297
16.050000	798.264558
16.060000	871.971560
16.070000	873.252461
16.080000	884.039132
16.090000	929.168928
16.100000	990.741813
16.110000	1136.406627
16.120000	1192.535175
16.130000	1249.122180
16.140000	1280.097303
16.150000	1226.502032
16.160000	1129.355729
16.170000	992.201049
16.180000	863.493335
16.190000	746.198000
16.200000	617.650464
16.210000	547.873146
16.220000	458.490665
16.230000	393.642477
16.240000	401.767391
16.250000	465.656574
16.260000	560.114274
16.270000	619.652452
16.280000	645.737848
16.290000	768.427987
16.300000	914.563420
16.310000	1087.841769
16.320000	1215.272513
16.330000	1312.259476
16.340000	1410.120112
16.350000	1554.812505
16.360000	1787.717218
16.370000	1958.935881
16.380000	2019.353797
16.390000	1970.628309
16.400000	1912.690155
16.410000	1847.147469
16.420000	1778.464713
16.430000	1640.235891
16.440000	1449.900354
16.450000	1076.013057
16.460000	675.893635
16.470000	301.933409
16.480000	-23.096212
16.490000	-268.024770
16.500000	-544.713666
16.510000	-728.902343
16.520000	-884.749708
16.530000	-964.038836
16.540000	-992.222142
16.550000	-979.701189
16.560000	-948.627187
16.570000	-920.261240
16.580000	-864.791894
16.590000	-807.873356
16.600000	-761.150967
16.610000	-737.053579
16.620000	-733.368887
16.630000	-679.277529
16.640000	-595.403222
16.650000	-474.991300
16.660000	-386.208107
16.670000	-260.895171
16.680000	-73.360569
16.690000	181.580615
16.700000	511.262440
16.710000	720.269357
16.720000	904.789772
16.730000	967.196098
16.740000	1115.594065
16.750000	1277.121957
16.760000	1336.051675
16.770000	1409.792760
16.780000	1412.723145
16.790000	1409.982688
16.800000	1345.500283
16.810000	1352.798797
16.820000	1471.124114
16.830000	1592.984355
16.840000	1634.919931
16.850000	1601.852131
16.860000	1563.332883
16.870000	1495.235707
16.880000	1453.405375
16.890000	1383.757368
16.900000	1350.576435
16.910000	1369.585879
16.920000	1439.474363
16.930000	1504.371612
16.940000	1574.327159
16.950000	1628.513086
16.960000	1694.085688
16.970000	1729.907642
16.980000	1728.042766
16.990000	1697.790257
17.000000	1589.612313
17.010000	1502.187368
17.020000	1439.027886
17.030000	1444.804916
17.040000	1430.517019
17.050000	1425.855798
17.060000	1364.516450
17.070000	1436.049984
17.080000	1530.132770
17.090000	1705.482236
17.100000	1875.791140
17.110000	2014.853176
17.120000	2232.931184
17.130000	2327.137433
17.140000	2557.449142
17.150000	2752.343026
17.160000	2914.217789
17.170000	2942.705863
17.180000	2920.261219
17.190000	2908.784697
17.200000	2876.820465
17.210000	2880.877123
17.220000	2922.667613
17.230000	3004.074809
17.240000	2954.144553
17.250000	2907.549448
17.260000	2834.273025
17.270000	2761.952620
17.280000	2663.353941
17.290000	2606.052297
17.300000	2633.136638
17.310000	2710.709143
17.320000	2802.013002
17.330000	2906.566691
17.340000	2973.852541
17.350000	2981.936197
17.360000	2962.605917
17.370000	2932.028561
17.380000	2901.110067
17.390000	2830.079738
17.400000	2771.298019
17.410000	2777.562278
17.420000	2858.129269
17.430000	2988.046450
17.440000	3119.994030
17.450000	3320.938798
17.460000	3502.525784
17.470000	3632.076959
17.480000	3892.408244
17.490000	4142.082627
17.500000	4475.362059
17.510000	4656.605388
17.520000	4695.746074
17.530000	4439.768796
17.540000	3687.752503
17.550000	3002.115194
17.560000	2502.628666
17.570000	2207.266539
17.580000	2216.481602
17.590000	2158.536897
17.600000	2225.965933
17.610000	2424.040160
17.620000	2645.219957
17.630000	2913.984516
17.640000	2851.777781
17.650000	2745.499621
17.660000	2694.896840
17.670000	2566.113940
17.680000	2517.558314
17.690000	2598.166137
17.700000	2766.375281
17.710000	3064.518301
17.720000	3390.196418
17.730000	3789.345015
17.740000	4205.134544
17.750000	4480.962352
17.760000	4784.359643
17.770000	5165.318939
17.780000	5482.787439
17.790000	5736.454809
17.800000	5901.205102
17.810000	6153.200078
17.820000	6335.763715
17.830000	6475.836612
17.840000	6667.558975
17.850000	6837.730703
17.860000	7107.938118
17.870000	7384.413872
17.880000	7606.119349
17.890000	7769.966659
17.900000	7863.984843
17.910000	8054.382319
17.920000	8232.132655
17.930000	8260.424668
17.940000	8260.690769
17.950000	8221.467656
17.960000	8381.633357
17.970000	8506.905828
17.980000	8743.647310
17.990000	8978.654738
18.000000	8838.634929
18.010000	7762.907983
18.020000	5621.334270
18.030000	1991.606141
18.040000	-2027.774694
18.050000	-7501.636152
18.060000	-16114.926537
18.070000	-17505.770899
18.080000	-17218.762788
18.090000	-16714.787271
18.100000	-17492.972771
18.110000	-18387.874025
18.120000	-18817.124939
18.130000	-19204.734132
18.140000	-19662.430526
18.150000	-19655.832498
18.160000	-19482.368537
18.170000	-19628.800168
18.180000	-19704.915196
18.190000	-19427.079131
18.200000	-19200.038908
18.210000	-19311.724612
18.220000	-19432.153723
18.230000	-19332.002234
18.240000	-19057.381356
18.250000	-18709.454563
18.260000	-18196.436275
18.270000	-17923.629701
18.280000	-18071.564856
18.290000	-18207.143866
18.300000	-18173.810652
18.310000	-18241.520308
18.320000	-18427.720129
18.330000	-18566.416393
18.340000	-18238.290124
18.350000	-17640.695216
18.360000	-16894.672106
18.370000	-15843.231140
18.380000	-14498.204204
18.390000	-13181.972042
18.400000	-12194.358546
18.410000	-11260.484084
18.420000	-10108.536244
18.430000	-9285.926368
18.440000	-8883.806154
18.450000	-8396.406309
18.460000	-7943.135364
18.470000	-7416.938119
18.480000	-6956.812527
18.490000	-6275.970860
18.500000	-5429.764639
18.510000	-4679.235258
18.520000	-3935.086005
18.530000	-3092.787373
18.540000	-2288.395757
18.550000	-1466.806733
18.560000	-647.901744
18.570000	144.173931
18.580000	948.780452
18.590000	1598.268483
18.600000	2134.388932
18.610000	2590.693690
18.620000	2950.548092
18.630000	3204.161550
18.640000	3541.281136
18.650000	3802.030282
18.660000	4095.449201
18.670000	4347.761907
18.680000	4550.162624
18.690000	4684.169077
18.700000	4796.759812
18.710000	4945.310595
18.720000	4961.444536
18.730000	4957.265152
18.740000	5078.933879
18.750000	5322.185997
18.760000	5695.171768
18.770000	6144.654320
18.780000	6676.957597
18.790000	7222.968036
18.800000	7644.608128
18.810000	8024.610492
18.820000	8136.466349
18.830000	8072.854729
18.840000	7795.691873
18.850000	7488.435194
18.860000	7177.882782
18.870000	6798.826486
18.880000	6406.134839
18.890000	6012.501060
18.900000	5659.533163
18.910000	5359.496252
18.920000	5104.611969
18.930000	4829.402785
18.940000	4518.231733
18.950000	4204.515671
18.960000	3968.719865
18.970000	3715.552466
18.980000	3503.370781
18.990000	3363.255897
19.000000	3248.884740
19.010000	3368.067029
19.020000	3467.877003
19.030000	3696.390646
19.040000	3978.668510
19.050000	4233.776886
19.060000	4453.740112
19.070000	4416.655867
19.080000	4447.728595
19.090000	4457.811559
19.100000	4408.271092
19.110000	4275.089828
19.120000	4024.870722
19.130000	3700.661388
19.140000	3384.661625
19.150000	3106.171778
19.160000	3028.571939
19.170000	2920.683307
19.180000	2862.087591
19.190000	2861.084501
19.200000	2921.008668
19.210000	3032.202670
19.220000	3080.729571
19.230000	3099.142986
19.240000	3027.616757
19.250000	2897.754621
19.260000	2767.329522
19.270000	2682.755582
19.280000	2528.351071
19.290000	2300.485075
19.300000	2050.277206
19.310000	1853.035297
19.320000	1723.457906
19.330000	1537.960138
19.340000	1289.045254
19.350000	1087.965638
19.360000	976.529736
19.370000	946.588478
19.380000	865.426649
19.390000	718.289872
19.400000	550.242424
19.410000	342.236404
19.420000	219.208212
19.430000	193.628574
19.440000	121.498762
19.450000	32.251588
19.460000	-104.620838
19.470000	-112.468630
19.480000	-25.565313
19.490000	26.971745
19.500000	226.764750
19.510000	424.256895
19.520000	595.527578
19.530000	706.267854
19.540000	693.298763
19.550000	642.442345
19.560000	559.604712
19.570000	498.502375
19.580000	470.214404
19.590000	363.647657
19.600000	240.720047
19.610000	153.519988
19.620000	95.151012
19.630000	72.183249
19.640000	44.875335
19.650000	14.045078
19.660000	-4.605682
19.670000	-43.137217
19.680000	-50.772175
19.690000	21.094804
19.700000	91.793159
19.710000	300.350413
19.720000	524.393988
19.730000	752.664598
19.740000	886.508115
19.750000	1000.207040
19.760000	1248.930946
19.770000	1329.911524
19.780000	1349.564022
19.790000	1302.729200
19.800000	1302.274147
19.810000	1321.917473
19.820000	1289.611240
19.830000	1340.761418
19.840000	1389.760394
19.850000	1385.786531
19.860000	1337.825964
19.870000	1270.606879
19.880000	1188.921951
19.890000	1130.602974
19.900000	1071.599469
19.910000	1097.651932
19.920000	1165.674277
19.930000	1288.939943
19.940000	1403.955627
19.950000	1485.750935
19.960000	1518.345291
19.970000	1540.127987
19.980000	1559.736395
19.990000	1546.145679
20.000000	1540.073867
20.010000	1522.414781
20.020000	1500.231995
20.030000	1450.015070
20.040000	1597.489534
20.050000	1739.184433
20.060000	1930.539104
20.070000	2084.376012
20.080000	2211.270750
20.090000	2277.191650
20.100000	2198.612672
20.110000	2220.990039
20.120000	2279.848802
20.130000	2271.759827
20.140000	2210.484780
20.150000	2103.924397
20.160000	2045.098314
20.170000	2048.282673
20.180000	2050.576051
20.190000	2122.416203
20.200000	2036.644951
20.210000	1997.141635
20.220000	1928.688127
20.230000	1908.358987
20.240000	1905.508531
20.250000	1850.876146
20.260000	1832.833848
20.270000	1820.804649
20.280000	1861.442069
20.290000	1861.753116
20.300000	1829.730554
20.310000	1784.467675
20.320000	1779.515308
20.330000	1772.987755
20.340000	1725.373567
20.350000	1638.688203
20.360000	1524.657454
20.370000	1394.117804
20.380000	1343.908447
20.390000	1329.221875
20.400000	1303.885145
20.410000	1481.100394
20.420000	1628.365665
20.430000	1864.003045
20.440000	1971.653433
20.450000	1973.285988
20.460000	1764.318544
20.470000	1372.991206
20.480000	1058.675139
20.490000	785.942588
20.500000	579.251244
20.510000	347.965391
20.520000	127.226171
20.530000	-36.260847
20.540000	-26.222809
20.550000	62.316754
20.560000	217.941184
20.570000	306.606715
20.580000	533.752582
20.590000	878.322067
20.600000	1266.799865
20.610000	1664.857498
20.620000	1988.756367
20.630000	2339.277123
20.640000	2638.598850
20.650000	2840.158238
20.660000	3052.909880
20.670000	3196.560056
20.680000	3149.814518
20.690000	3136.281108
20.700000	3095.977886
20.710000	2583.647275
20.720000	1037.971415
20.730000	-2411.869574
20.740000	-7500.449715
20.750000	-12577.719673
20.760000	-19606.554773
20.770000	-19985.951050
20.780000	-18567.459079
20.790000	-18508.936633
20.800000	-18913.598042
20.810000	-18761.504381
20.820000	-18425.963108
20.830000	-18592.569611
20.840000	-18890.399659
20.850000	-18919.528569
20.860000	-18501.417612
20.870000	-18071.146078
20.880000	-17855.503086
20.890000	-17506.825035
20.900000	-16462.628981
20.910000	-15189.453045
20.920000	-14834.642837
20.930000	-14752.276959
20.940000	-14293.275424
20.950000	-13923.130162
20.960000	-14159.685406
20.970000	-14425.273548
20.980000	-14688.894669
20.990000	-15173.744892
21.000000	-15634.779546
21.010000	-15730.578329
21.020000	-15604.955648
21.030000	-15500.305948
21.040000	-15180.438874
21.050000	-14291.663843
21.060000	-13055.118552
21.070000	-11710.354506
21.080000	-10543.873840
21.090000	-9755.083662
21.100000	-9090.995269
21.110000	-8503.314616
21.120000	-8058.702867
21.130000	-7724.206529
21.140000	-7495.755090
21.150000	-7078.562617
21.160000	-6468.866579
21.170000	-5865.064493
21.180000	-5115.604662
21.190000	-4263.017692
21.200000	-3426.134374
21.210000	-2606.561432
21.220000	-1896.489133
21.230000	-1202.836288
21.240000	-569.122762
21.250000	-13.274897
21.260000	373.812124
21.270000	638.435215
21.280000	987.295801
21.290000	1309.049666
21.300000	1797.063910
21.310000	2185.520085
21.320000	2570.278850
21.330000	2744.281584
21.340000	2744.957970
21.350000	2775.293390
21.360000	2705.187412
21.370000	2473.295430
21.380000	2092.424782
21.390000	1666.688701
21.400000	1260.362695
21.410000	1027.474605
21.420000	928.919092
21.430000	997.610064
21.440000	1204.125497
21.450000	1641.238487
21.460000	2279.489649
21.470000	3113.429103
21.480000	3925.436744
21.490000	4922.955626
21.500000	5846.606181
21.510000	6465.734929
21.520000	6773.567079
21.530000	6898.397750
21.540000	6976.398087
21.550000	6764.871021
21.560000	6317.229276
21.570000	5927.193690
21.580000	5738.172765
21.590000	5674.442035
21.600000	6042.027997
21.610000	6702.669001
21.620000	7477.974190
21.630000	7815.070851
21.640000	7786.510455
21.650000	7503.453200
21.660000	6713.257415
21.670000	5807.149285
21.680000	5004.078531
21.690000	5857.727286
21.700000	6214.602191
21.710000	5732.937318
21.720000	-1964.376062
21.730000	-707.058929
21.740000	-204.192468
21.750000	-266.525771
21.760000	-554.095611
21.770000	54.718387
21.780000	794.718221
21.790000	1716.437422
21.800000	2055.864397
21.810000	1452.837020
21.820000	5.174944
21.830000	-1787.752217
21.840000	-3853.105630
21.850000	-6630.737646
21.860000	-9586.866572
21.870000	-11059.298015
21.880000	-12237.251691
21.890000	-12487.995945
21.900000	-12037.436369
21.910000	-8689.610985
21.920000	-6881.668870
21.930000	-5259.722344
21.940000	-4273.595774
21.950000	-3591.487088
21.960000	-3936.819747
21.970000	-4680.934684
21.980000	-5238.891189
21.990000	-5604.028879
22.000000	-5687.125063
22.010000	-5931.973763
22.020000	-6170.729898
22.030000	-6596.959616
22.040000	-7175.084445
22.050000	-7921.464575
22.060000	-8810.698076
22.070000	-9594.729074
22.080000	-10179.101896
22.090000	-10357.384854
22.100000	-10452.656013
22.110000	-10272.317314
22.120000	-9922.721242
22.130000	-9458.461238
22.140000	-8969.233381
22.150000	-8524.229487
22.160000	-8103.177194
22.170000	-7639.544773
22.180000	-7092.529074
22.190000	-6778.174161
22.200000	-6578.686592
22.210000	-6533.896848
22.220000	-6085.524852
22.230000	-5693.736687
22.240000	-4695.594714
22.250000	-3159.300884
22.260000	-998.644510
22.270000	627.319097
22.280000	1977.194214
22.290000	3040.980605
22.300000	3557.598478
22.310000	3998.029185
22.320000	4538.239256
22.330000	6025.304839
22.340000	6535.323488
22.350000	6403.844040
22.360000	6798.755201
22.370000	6838.653207
22.380000	5171.483934
22.390000	4172.145793
22.400000	4672.783371
22.410000	5364.652290
22.420000	4976.744731
22.430000	4878.330523
22.440000	5462.191509
22.450000	5674.126683
22.460000	4805.683343
22.470000	4001.444335
22.480000	4052.639850
22.490000	4300.217022
22.500000	4371.156786
22.510000	4452.305345
22.520000	5231.163146
22.530000	6062.851582
22.540000	5714.006940
22.550000	5216.409287
22.560000	4863.281936
22.570000	4945.088706
22.580000	5216.550994
22.590000	5520.144193
22.600000	6091.036483
22.610000	6202.364719
22.620000	6179.889841
22.630000	6396.193323
22.640000	6331.775194
22.650000	5993.953682
22.660000	5685.292212
22.670000	5554.447978
22.680000	5504.961847
22.690000	5310.747921
22.700000	4914.258523
22.710000	4687.059687
22.720000	4576.893424
22.730000	4601.067172
22.740000	4384.958845
22.750000	4103.426468
22.760000	4093.982574
22.770000	4150.473021
22.780000	4091.590581
22.790000	3818.597923
22.800000	3560.619488
22.810000	3298.563629
22.820000	2979.078968
22.830000	2648.663684
22.840000	2355.739248
22.850000	2117.542332
22.860000	2120.396896
22.870000	2435.640148
22.880000	2821.732206
22.890000	3022.904553
22.900000	2887.561289
22.910000	2745.032816
22.920000	2659.874722
22.930000	2590.750413
22.940000	2552.892284
22.950000	2377.513244
22.960000	2283.861488
22.970000	2078.029050
22.980000	1907.324128
22.990000	1727.242796
23.000000	1447.888684
23.010000	1401.176816
23.020000	1186.003492
23.030000	964.890880
23.040000	742.585410
23.050000	529.188550
23.060000	604.812938
23.070000	569.189940
23.080000	666.050127
23.090000	572.210218
23.100000	198.507787
23.110000	-220.968869
23.120000	-556.072149
23.130000	-560.913766
23.140000	-332.342054
23.150000	26.042592
23.160000	458.440885
23.170000	715.390352
23.180000	986.020183
23.190000	1221.344262
23.200000	1366.177689
23.210000	1521.657833
23.220000	1630.833037
23.230000	1830.771400
23.240000	1971.301617
23.250000	2107.385577
23.260000	2403.008530
23.270000	2723.119003
23.280000	2964.411549
23.290000	3048.197274
23.300000	2952.248514
23.310000	2914.604212
23.320000	2803.351471
23.330000	2735.645577
23.340000	2607.131276
23.350000	2482.437862
23.360000	2330.603520
23.370000	2121.188082
23.380000	1976.787425
23.390000	1917.282341
23.400000	1908.450357
23.410000	1881.243367
23.420000	1898.773474
23.430000	2005.451662
23.440000	2200.606157
23.450000	2322.184846
23.460000	2373.529304
23.470000	2318.781281
23.480000	2253.117969
23.490000	2140.323810
23.500000	2283.948141
23.510000	2465.074325
23.520000	2583.749345
23.530000	2729.323699
23.540000	2803.682536
23.550000	3017.736643
23.560000	2950.529647
23.570000	2813.537234
23.580000	2714.744353
23.590000	2564.113645
23.600000	2454.114544
23.610000	2246.712338
23.620000	2197.890126
23.630000	2275.844928
23.640000	2317.630955
23.650000	2435.727203
23.660000	2396.749477
23.670000	2396.115921
23.680000	2220.408197
23.690000	2024.179444
23.700000	1989.808515
23.710000	2069.944853
23.720000	2260.661959
23.730000	2333.762468
23.740000	2326.246280
23.750000	2270.905313
23.760000	2159.722921
23.770000	2025.833188
23.780000	1915.241173
23.790000	1813.268224
23.800000	1679.028840
23.810000	1545.581966
23.820000	1468.554977
23.830000	1304.693473
23.840000	1366.678234
23.850000	1440.370401
23.860000	1562.837988
23.870000	1701.871081
23.880000	1766.183662
23.890000	1897.026088
23.900000	1729.823158
23.910000	1702.402183
23.920000	1840.348404
23.930000	2045.457044
23.940000	2052.768493
23.950000	1879.306648
23.960000	1775.851592
23.970000	1611.797110
23.980000	1597.226153
23.990000	1517.143153
24.000000	1501.572111
24.010000	1388.712123
24.020000	1248.579880
24.030000	1208.798407
24.040000	1261.575461
24.050000	1357.129741
24.060000	1407.159580
24.070000	1421.091117
24.080000	1444.872915
24.090000	1492.995599
24.100000	1561.900110
24.110000	1667.651334
24.120000	1839.327645
24.130000	1992.694342
24.140000	2015.711197
24.150000	2011.695109
24.160000	2103.849497
24.170000	2568.149457
24.180000	3199.367293
24.190000	3918.652558
24.200000	4431.996264
24.210000	4636.048564
24.220000	4639.911760
24.230000	4301.457963
24.240000	4046.758318
24.250000	3876.737140
24.260000	3894.255986
24.270000	3880.838501
24.280000	3650.213810
24.290000	3363.599548
24.300000	3016.421783
24.310000	2790.912715
24.320000	2612.964925
24.330000	2703.074421
24.340000	2706.300451
24.350000	2669.044769
24.360000	2474.560982
24.370000	2163.487250
24.380000	1872.124199
24.390000	1100.643470
