Time(s)	GREEN_denoised_median
0.000000	-1555.848019
0.010000	-1566.197138
0.020000	-1570.970533
0.030000	-1593.658709
0.040000	-1603.719550
0.050000	-1603.719550
0.060000	-1603.719550
0.070000	-1575.469797
0.080000	-1528.715777
0.090000	-1476.468552
0.100000	-1414.716044
0.110000	-1341.522768
0.120000	-1259.778275
0.130000	-1167.611568
0.140000	-1070.908406
0.150000	-973.740912
0.160000	-869.052419
0.170000	-766.960790
0.180000	-660.190935
0.190000	-552.251465
0.200000	-446.368753
0.210000	-339.564070
0.220000	-230.589188
0.230000	-116.909896
0.240000	-10.886173
0.250000	93.760944
0.260000	93.760944
0.270000	93.760944
0.280000	-73.739040
0.290000	-324.900400
0.300000	-578.079042
0.310000	-793.277680
0.320000	-955.514472
0.330000	-1069.735294
0.340000	-1149.999407
0.350000	-1208.210330
0.360000	-1245.064242
0.370000	-1245.064242
0.380000	-1245.064242
0.390000	-1219.155768
0.400000	-1219.155768
0.410000	-1219.155768
0.420000	-1228.147043
0.430000	-1255.175993
0.440000	-1269.273657
0.450000	-1269.273657
0.460000	-1269.273657
0.470000	-1238.251224
0.480000	-1193.843259
0.490000	-1133.806688
0.500000	-1059.428038
0.510000	-976.378426
0.520000	-886.003911
0.530000	-789.952701
0.540000	-682.560134
0.550000	-569.557433
0.560000	-456.112685
0.570000	-339.136073
0.580000	-223.682906
0.590000	-109.694673
0.600000	6.764812
0.610000	119.728111
0.620000	233.249939
0.630000	342.136672
0.640000	453.782113
0.650000	566.534159
0.660000	674.317201
0.670000	781.977997
0.680000	781.977997
0.690000	781.977997
0.700000	668.295618
0.710000	441.007993
0.720000	194.901828
0.730000	-10.343718
0.740000	-162.597290
0.750000	-269.723826
0.760000	-344.080962
0.770000	-403.088793
0.780000	-422.845652
0.790000	-422.845652
0.800000	-422.845652
0.810000	-404.091407
0.820000	-404.091407
0.830000	-404.091407
0.840000	-438.414244
0.850000	-479.323638
0.860000	-515.633582
0.870000	-533.506806
0.880000	-533.506806
0.890000	-533.506806
0.900000	-515.994386
0.910000	-487.792221
0.920000	-459.098739
0.930000	-413.806300
0.940000	-357.211016
0.950000	-293.765888
0.960000	-225.262496
0.970000	-147.654642
0.980000	-60.267118
0.990000	31.497346
1.000000	101.730695
1.010000	136.742965
1.020000	179.946738
1.030000	233.939193
1.040000	295.210034
1.050000	366.217159
1.060000	443.523801
1.070000	527.573756
1.080000	620.912625
1.090000	718.981433
1.100000	820.382028
1.110000	922.458854
1.120000	1029.946222
1.130000	1131.969189
1.140000	1231.625865
1.150000	1320.526321
1.160000	1407.432239
1.170000	1496.150732
1.180000	1585.306521
1.190000	1671.853945
1.200000	1762.291645
1.210000	1846.597638
1.220000	1846.597638
1.230000	1846.597638
1.240000	1840.694253
1.250000	1640.070378
1.260000	1399.218005
1.270000	1169.985690
1.280000	997.818312
1.290000	867.830586
1.300000	734.430701
1.310000	710.207485
1.320000	710.207485
1.330000	710.207485
1.340000	710.826427
1.350000	733.714096
1.360000	769.282445
1.370000	812.533107
1.380000	867.869597
1.390000	927.424817
1.400000	996.600679
1.410000	1072.402029
1.420000	1153.445830
1.430000	1241.498601
1.440000	1327.372664
1.450000	1419.757096
1.460000	1515.380518
1.470000	1608.122674
1.480000	1702.533615
1.490000	1791.573376
1.500000	1879.836633
1.510000	1972.143663
1.520000	2066.240174
1.530000	2155.823759
1.540000	2249.807397
1.550000	2352.614368
1.560000	2452.453868
1.570000	2452.453868
1.580000	2452.453868
1.590000	2350.642364
1.600000	2128.007659
1.610000	1888.028674
1.620000	1678.984973
1.630000	1520.466118
1.640000	1406.021524
1.650000	1344.075989
1.660000	1296.061379
1.670000	1294.009402
1.680000	1294.009402
1.690000	1294.009402
1.700000	1323.340562
1.710000	1323.340562
1.720000	1323.340562
1.730000	1304.844866
1.740000	1255.810517
1.750000	1215.641208
1.760000	1175.110581
1.770000	1172.167053
1.780000	1172.167053
1.790000	1172.167053
1.800000	1872.292238
1.810000	1961.507775
1.820000	2039.574975
1.830000	2114.367613
1.840000	2199.017586
1.850000	2265.259824
1.860000	2370.843138
1.870000	2423.888381
1.880000	2423.888381
1.890000	2423.888381
1.900000	1487.558243
1.910000	1470.331723
1.920000	1470.331723
1.930000	1470.331723
1.940000	1479.703898
1.950000	1479.703898
1.960000	1479.703898
1.970000	1401.478181
1.980000	1367.093669
1.990000	1302.401802
2.000000	1282.046231
2.010000	1252.499455
2.020000	1252.499455
2.030000	1252.499455
2.040000	1275.431548
2.050000	1289.981334
2.060000	1336.804656
2.070000	1376.261673
2.080000	1438.527057
2.090000	1496.542751
2.100000	1572.543159
2.110000	1633.831646
2.120000	1716.908369
2.130000	1795.106456
2.140000	1875.526074
2.150000	1955.514565
2.160000	2039.323150
2.170000	2120.052767
2.180000	2210.334885
2.190000	2291.666760
2.200000	2380.604487
2.210000	2467.370259
2.220000	2551.060541
2.230000	2551.060541
2.240000	2551.060541
2.250000	2548.135409
2.260000	2331.469695
2.270000	2035.369872
2.280000	1749.620614
2.290000	1501.596277
2.300000	1308.908200
2.310000	1176.952728
2.320000	1078.269240
2.330000	1004.525509
2.340000	951.806292
2.350000	950.206579
2.360000	943.444763
2.370000	940.287741
2.380000	940.287741
2.390000	900.267816
2.400000	842.365413
2.410000	779.495283
2.420000	719.593768
2.430000	665.874168
2.440000	633.018042
2.450000	631.031694
2.460000	631.031694
2.470000	631.031694
2.480000	657.357647
2.490000	692.862266
2.500000	742.289837
2.510000	804.842123
2.520000	868.355315
2.530000	943.047950
2.540000	1020.534177
2.550000	1108.462279
2.560000	1199.837257
2.570000	1290.047560
2.580000	1387.340021
2.590000	1480.744382
2.600000	1576.053093
2.610000	1676.598652
2.620000	1777.908862
2.630000	1871.606248
2.640000	1967.979861
2.650000	2064.743162
2.660000	2159.213513
2.670000	2159.213513
2.680000	2159.213513
2.690000	2083.496447
2.700000	1843.052414
2.710000	1565.323206
2.720000	1321.779211
2.730000	1131.167735
2.740000	1003.644776
2.750000	914.077483
2.760000	848.703483
2.770000	812.374570
2.780000	812.374570
2.790000	812.374570
2.800000	843.347615
2.810000	854.466992
2.820000	854.466992
2.830000	854.466992
2.840000	808.505778
2.850000	761.256296
2.860000	716.337924
2.870000	682.217938
2.880000	678.457092
2.890000	678.457092
2.900000	678.457092
2.910000	704.577856
2.920000	738.757322
2.930000	774.979452
2.940000	828.272227
2.950000	890.473908
2.960000	957.955806
2.970000	1032.138121
2.980000	1114.795909
2.990000	1201.941710
3.000000	1290.794176
3.010000	1379.903448
3.020000	1459.924884
3.030000	1540.069901
3.040000	1630.210774
3.050000	1714.318188
3.060000	1792.694091
3.070000	1872.738129
3.080000	1946.286399
3.090000	1946.286399
3.100000	1946.286399
3.110000	1838.014411
3.120000	1595.902990
3.130000	1316.986907
3.140000	1074.066004
3.150000	887.965103
3.160000	755.310496
3.170000	667.075194
3.180000	610.692164
3.190000	610.692164
3.200000	610.692164
3.210000	623.818666
3.220000	659.789763
3.230000	659.789763
3.240000	659.789763
3.250000	656.166833
3.260000	613.556153
3.270000	572.047879
3.280000	536.654413
3.290000	515.077177
3.300000	515.077177
3.310000	515.077177
3.320000	527.136655
3.330000	549.685397
3.340000	597.582979
3.350000	651.124421
3.360000	706.208952
3.370000	769.729836
3.380000	847.968841
3.390000	928.418638
3.400000	1011.899719
3.410000	1097.235722
3.420000	1185.971217
3.430000	1268.153750
3.440000	1350.219615
3.450000	1433.188146
3.460000	1517.597289
3.470000	1574.301830
3.480000	1574.301830
3.490000	1574.301830
3.500000	1391.022444
3.510000	1110.564219
3.520000	826.196281
3.530000	580.814054
3.540000	406.465407
3.550000	258.978905
3.560000	168.061074
3.570000	101.095480
3.580000	58.870655
3.590000	32.306381
3.600000	-64.291709
3.610000	-64.291709
3.620000	-64.291709
3.630000	-21.910443
3.640000	38.284524
3.650000	97.219509
3.660000	179.095902
3.670000	251.308992
3.680000	328.150905
3.690000	401.450862
3.700000	494.405405
3.710000	576.557976
3.720000	662.896586
3.730000	747.719380
3.740000	837.531663
3.750000	881.026519
3.760000	881.026519
3.770000	881.026519
3.780000	676.356237
3.790000	383.393891
3.800000	90.656824
3.810000	-163.270890
3.820000	-360.996587
3.830000	-508.897535
3.840000	-617.558917
3.850000	-700.430194
3.860000	-759.990042
3.870000	-764.275558
3.880000	-764.275558
3.890000	-764.596424
3.900000	-764.596424
3.910000	-764.596424
3.920000	-793.502194
3.930000	-842.862122
3.940000	-896.367644
3.950000	-937.031699
3.960000	-956.813953
3.970000	-956.813953
3.980000	-956.813953
3.990000	-929.229730
4.000000	-889.377299
4.010000	-842.211330
4.020000	-775.805031
4.030000	-709.189404
4.040000	-631.061582
4.050000	-549.132517
4.060000	-451.176871
4.070000	-364.097266
4.080000	-364.097266
4.090000	-364.097266
4.100000	-383.539615
4.110000	-618.585194
4.120000	-800.464290
4.130000	-940.195950
4.140000	-1033.265114
4.150000	-1108.818626
4.160000	-1154.873081
4.170000	-1154.873081
4.180000	-1154.873081
4.190000	-1156.737759
4.200000	-1156.737759
4.210000	-1156.737759
4.220000	-1196.752874
4.230000	-1252.316447
4.240000	-1299.756019
4.250000	-1341.893508
4.260000	-1347.375670
4.270000	-1347.375670
4.280000	-1347.375670
4.290000	-1320.010768
4.300000	-1279.068191
4.310000	-1229.469604
4.320000	-1164.658633
4.330000	-1088.888090
4.340000	-1007.181663
4.350000	-919.222881
4.360000	-825.638750
4.370000	-727.490819
4.380000	-622.017774
4.390000	-521.733626
4.400000	-424.289361
4.410000	-320.892591
4.420000	-217.535878
4.430000	-113.969194
4.440000	8.332553
4.450000	170.024347
4.460000	344.134009
4.470000	411.127962
4.480000	411.127962
4.490000	411.127962
4.500000	202.087505
4.510000	-2.522850
4.520000	-146.865933
4.530000	-322.517963
4.540000	-523.491295
4.550000	-711.364354
4.560000	-853.072196
4.570000	-941.222549
4.580000	-954.388681
4.590000	-954.388681
4.600000	-954.388681
4.610000	-954.388681
4.620000	-954.388681
4.630000	-970.047547
4.640000	-1002.457383
4.650000	-1044.558528
4.660000	-1044.558528
4.670000	-1044.558528
4.680000	-1027.254465
4.690000	-968.388475
4.700000	-880.599114
4.710000	-785.787190
4.720000	-704.888693
4.730000	-627.046532
4.740000	-553.158872
4.750000	-474.227368
4.760000	-372.353640
4.770000	-282.502784
4.780000	-245.514278
4.790000	-206.465266
4.800000	-146.725027
4.810000	-71.443841
4.820000	32.162362
4.830000	137.518018
4.840000	242.164185
4.850000	335.505381
4.860000	440.305139
4.870000	549.457870
4.880000	652.483642
4.890000	738.455599
4.900000	738.455599
4.910000	738.455599
4.920000	587.971074
4.930000	372.662184
4.940000	154.339578
4.950000	-13.080758
4.960000	-129.395536
4.970000	-212.830786
4.980000	-271.058508
4.990000	-320.562239
5.000000	-357.623593
5.010000	-357.623593
5.020000	-357.623593
5.030000	-367.137978
5.040000	-367.137978
5.050000	-395.638470
5.060000	-479.022522
5.070000	-571.172456
5.080000	-651.412563
5.090000	-689.641437
5.100000	-704.320477
5.110000	-704.320477
5.120000	-704.320477
5.130000	-680.391012
5.140000	-638.737114
5.150000	-585.706038
5.160000	-528.118306
5.170000	-454.935592
5.180000	-368.500146
5.190000	-261.101747
5.200000	-119.832232
5.210000	33.672385
5.220000	180.879060
5.230000	331.558805
5.240000	482.589180
5.250000	606.412040
5.260000	712.434446
5.270000	820.326769
5.280000	926.248122
5.290000	1036.301473
5.300000	1149.073490
5.310000	1239.242512
5.320000	1248.743077
5.330000	1248.743077
5.340000	1248.743077
5.350000	1077.369122
5.360000	825.698837
5.370000	555.603863
5.380000	333.697086
5.390000	146.648111
5.400000	10.805534
5.410000	-93.377942
5.420000	-177.035014
5.430000	-241.349174
5.440000	-251.629159
5.450000	-251.629159
5.460000	-251.629159
5.470000	-214.234902
5.480000	-187.424385
5.490000	-175.102218
5.500000	-159.134326
5.510000	-145.010050
5.520000	-136.816433
5.530000	-123.853670
5.540000	-113.525046
5.550000	-87.604062
5.560000	-49.270000
5.570000	-11.358907
5.580000	20.025227
5.590000	63.976768
5.600000	113.269091
5.610000	139.274213
5.620000	160.663035
5.630000	215.645111
5.640000	304.973509
5.650000	396.945890
5.660000	486.375447
5.670000	586.315017
5.680000	666.676759
5.690000	766.892557
5.700000	881.872865
5.710000	973.395770
5.720000	1062.247310
5.730000	1145.850676
5.740000	1145.850676
5.750000	1145.850676
5.760000	1145.066837
5.770000	944.669668
5.780000	704.645700
5.790000	470.137395
5.800000	271.195913
5.810000	125.583710
5.820000	28.696570
5.830000	-36.994064
5.840000	-82.258648
5.850000	-82.258648
5.860000	-82.258648
5.870000	-42.039419
5.880000	-41.299910
5.890000	-41.299910
5.900000	-41.299910
5.910000	-70.927406
5.920000	-101.776003
5.930000	-133.390634
5.940000	-148.623189
5.950000	-148.623189
5.960000	-148.623189
5.970000	-122.383717
5.980000	-87.070345
5.990000	-46.857871
6.000000	6.520175
6.010000	69.638910
6.020000	143.124410
6.030000	228.139294
6.040000	313.696945
6.050000	397.665205
6.060000	491.307016
6.070000	580.120632
6.080000	670.975599
6.090000	757.539145
6.100000	855.704100
6.110000	942.850272
6.120000	1027.516092
6.130000	1027.516092
6.140000	1027.516092
6.150000	902.371582
6.160000	667.120953
6.170000	406.694665
6.180000	182.041964
6.190000	-1.139630
6.200000	-139.048382
6.210000	-247.033198
6.220000	-329.114813
6.230000	-400.966495
6.240000	-400.966495
6.250000	-400.966495
6.260000	-400.807109
6.270000	-400.807109
6.280000	-400.807109
6.290000	-448.498207
6.300000	-489.391979
6.310000	-549.020593
6.320000	-575.777332
6.330000	-605.908564
6.340000	-605.908564
6.350000	-605.908564
6.360000	-574.688489
6.370000	-568.528619
6.380000	-568.528619
6.390000	-568.528619
6.400000	-972.479227
6.410000	-1053.712429
6.420000	-1082.535128
6.430000	-1148.119012
6.440000	-1160.116075
6.450000	-1166.389887
6.460000	-1166.389887
6.470000	-1166.389887
6.480000	-1122.310646
6.490000	-1089.759270
6.500000	-1024.937623
6.510000	-964.607891
6.520000	-877.398971
6.530000	-805.680945
6.540000	-715.673451
6.550000	-629.931396
6.560000	-533.868965
6.570000	-442.285972
6.580000	-348.027964
6.590000	-262.716268
6.600000	-163.115741
6.610000	-76.309639
6.620000	18.903870
6.630000	107.973200
6.640000	203.973414
6.650000	203.973414
6.660000	203.973414
6.670000	94.192760
6.680000	-127.781103
6.690000	-375.716580
6.700000	-587.548034
6.710000	-754.801578
6.720000	-878.369513
6.730000	-963.928895
6.740000	-1017.220695
6.750000	-1034.456833
6.760000	-1034.456833
6.770000	-1034.456833
6.780000	-994.762790
6.790000	-994.762790
6.800000	-994.762790
6.810000	-1036.459899
6.820000	-1070.967889
6.830000	-1119.226954
6.840000	-1141.367292
6.850000	-1142.432725
6.860000	-1142.432725
6.870000	-1142.432725
6.880000	-1099.712600
6.890000	-1063.901772
6.900000	-991.602174
6.910000	-944.694496
6.920000	-849.153225
6.930000	-782.939645
6.940000	-669.314583
6.950000	-591.659996
6.960000	-472.068576
6.970000	-405.892051
6.980000	-405.892051
6.990000	-405.892051
7.000000	-897.024019
7.010000	-962.039128
7.020000	-965.224305
7.030000	-975.481637
7.040000	-975.481637
7.050000	-975.481637
7.060000	-927.454394
7.070000	-907.674926
7.080000	-832.974093
7.090000	-782.541750
7.100000	-690.132505
7.110000	-609.777226
7.120000	-507.086505
7.130000	-420.250621
7.140000	-311.871598
7.150000	-212.950707
7.160000	-100.547487
7.170000	-6.841255
7.180000	99.913006
7.190000	196.076770
7.200000	308.472663
7.210000	395.768052
7.220000	447.936943
7.230000	447.936943
7.240000	447.936943
7.250000	242.533918
7.260000	-21.080822
7.270000	-279.148659
7.280000	-493.208513
7.290000	-665.984935
7.300000	-790.349856
7.310000	-887.941061
7.320000	-958.471950
7.330000	-1013.972103
7.340000	-1016.637021
7.350000	-1016.637021
7.360000	-1016.637021
7.370000	-1016.637021
7.380000	-1016.637021
7.390000	-1051.735042
7.400000	-1090.723634
7.410000	-1128.164366
7.420000	-1152.757638
7.430000	-1152.757638
7.440000	-1152.757638
7.450000	-1145.264890
7.460000	-1107.861350
7.470000	-1062.939240
7.480000	-1000.907430
7.490000	-929.703900
7.500000	-847.970151
7.510000	-767.546990
7.520000	-666.983609
7.530000	-579.582632
7.540000	-477.872299
7.550000	-382.793379
7.560000	-271.683347
7.570000	-184.217436
7.580000	-79.314660
7.590000	7.104978
7.600000	114.218275
7.610000	196.151812
7.620000	305.981026
7.630000	376.994829
7.640000	376.994829
7.650000	376.994829
7.660000	221.469255
7.670000	-62.168220
7.680000	-302.484218
7.690000	-575.051482
7.700000	-1275.358137
7.710000	-1355.010768
7.720000	-1368.676711
7.730000	-1419.442755
7.740000	-1419.442755
7.750000	-1419.442755
7.760000	-1405.754065
7.770000	-1403.062410
7.780000	-1333.575788
7.790000	-1298.564008
7.800000	-1211.924117
7.810000	-1151.557195
7.820000	-1040.889200
7.830000	-975.062933
7.840000	-851.351613
7.850000	-771.170025
7.860000	-640.317283
7.870000	-553.837281
7.880000	-420.812440
7.890000	-341.068524
7.900000	-201.763432
7.910000	-134.009594
7.920000	3.995528
7.930000	73.238582
7.940000	218.494622
7.950000	273.593572
7.960000	439.964360
7.970000	439.964360
7.980000	439.964360
7.990000	348.450491
8.000000	-1038.644025
8.010000	-1038.644025
8.020000	-1038.644025
8.030000	-1025.432748
8.040000	-897.046987
8.050000	-865.685133
8.060000	-737.371789
8.070000	-682.976842
8.080000	-555.861597
8.090000	-493.084628
8.100000	-366.660128
8.110000	-296.910904
8.120000	-173.862425
8.130000	-96.346777
8.140000	15.389886
8.150000	95.782533
8.160000	197.932640
8.170000	282.623002
8.180000	400.687649
8.190000	494.129685
8.200000	606.687408
8.210000	606.687408
8.220000	606.687408
8.230000	457.379988
8.240000	227.088927
8.250000	-19.602707
8.260000	-221.578210
8.270000	-374.775463
8.280000	-481.295452
8.290000	-554.010799
8.300000	-607.048951
8.310000	-609.560203
8.320000	-609.560203
8.330000	-609.560203
8.340000	-578.657834
8.350000	-578.657834
8.360000	-578.657834
8.370000	-601.044073
8.380000	-646.579566
8.390000	-675.165136
8.400000	-704.775161
8.410000	-704.775161
8.420000	-704.775161
8.430000	-683.062663
8.440000	-655.796053
8.450000	-592.719257
8.460000	-549.740145
8.470000	-465.081747
8.480000	-404.062187
8.490000	-295.096840
8.500000	-248.823044
8.510000	-216.620925
8.520000	-216.620925
8.530000	-216.620925
8.540000	-216.620925
8.550000	-177.114291
8.560000	-155.222884
8.570000	-26.850807
8.580000	23.226715
8.590000	184.414441
8.600000	1262.343147
8.610000	1394.325546
8.620000	1446.930549
8.630000	1475.979037
8.640000	1475.979037
8.650000	1475.979037
8.660000	1226.481605
8.670000	994.472454
8.680000	733.834313
8.690000	577.433980
8.700000	443.574427
8.710000	407.804313
8.720000	360.783848
8.730000	351.587052
8.740000	351.587052
8.750000	351.587052
8.760000	363.239145
8.770000	421.961019
8.780000	421.961019
8.790000	421.961019
8.800000	412.685734
8.810000	372.109526
8.820000	309.616079
8.830000	231.837942
8.840000	171.597630
8.850000	171.597630
8.860000	171.597630
8.870000	190.219268
8.880000	226.306588
8.890000	268.820504
8.900000	322.216446
8.910000	377.364824
8.920000	448.170120
8.930000	531.844000
8.940000	636.133586
8.950000	760.280819
8.960000	900.068698
8.970000	1034.653257
8.980000	1191.116866
8.990000	1326.815740
9.000000	1469.339611
9.010000	1590.807661
9.020000	1732.734856
9.030000	1838.512074
9.040000	1952.389205
9.050000	1952.389205
9.060000	1952.389205
9.070000	1822.979372
9.080000	1605.522601
9.090000	1289.751107
9.100000	902.211702
9.110000	902.211702
9.120000	902.211702
9.130000	974.504354
9.140000	1094.434884
9.150000	1179.096344
9.160000	1294.048181
9.170000	1294.048181
9.180000	1294.048181
9.190000	1178.155490
9.200000	939.114984
9.210000	667.978967
9.220000	461.475606
9.230000	280.411113
9.240000	160.022572
9.250000	56.608283
9.260000	4.766348
9.270000	-40.431300
9.280000	-40.431300
9.290000	-40.431300
9.300000	-19.096411
9.310000	-19.096411
9.320000	-19.096411
9.330000	-64.609852
9.340000	-101.696287
9.350000	-160.414535
9.360000	-184.076973
9.370000	-209.245377
9.380000	-209.245377
9.390000	-209.245377
9.400000	-180.142479
9.410000	-158.576694
9.420000	-91.729615
9.430000	-60.689000
9.440000	34.159884
9.450000	90.624663
9.460000	191.537743
9.470000	240.425955
9.480000	240.425955
9.490000	240.425955
9.500000	-301.996218
9.510000	-319.151514
9.520000	-334.765399
9.530000	-389.656345
9.540000	-409.582366
9.550000	-468.188395
9.560000	-476.544378
9.570000	-487.708759
9.580000	-487.708759
9.590000	-487.708759
9.600000	-449.215674
9.610000	-416.519789
9.620000	-352.164841
9.630000	-295.562932
9.640000	-223.964313
9.650000	-152.731837
9.660000	-61.687297
9.670000	22.950654
9.680000	114.677585
9.690000	114.677585
9.700000	114.677585
9.710000	-49.181233
9.720000	-279.633136
9.730000	-459.810433
9.740000	-600.150471
9.750000	-704.442888
9.760000	-788.722992
9.770000	-847.036535
9.780000	-847.036535
9.790000	-847.036535
9.800000	-324.565238
9.810000	-233.352105
9.820000	-122.911845
9.830000	-49.472481
9.840000	71.105362
9.850000	142.890843
9.860000	270.652074
9.870000	291.196203
9.880000	291.196203
9.890000	291.196203
9.900000	-1168.036450
9.910000	-1186.356128
9.920000	-1221.351308
9.930000	-1221.737552
9.940000	-1221.760735
9.950000	-1299.949064
9.960000	-1317.764175
9.970000	-1368.819954
9.980000	-1368.819954
9.990000	-1368.819954
10.000000	-1364.538466
10.010000	-1334.676590
10.020000	-1296.703206
10.030000	-1236.219127
10.040000	-1180.002412
10.050000	-1100.634089
10.060000	-1038.509058
10.070000	-923.767309
10.080000	-858.508978
10.090000	-727.323976
10.100000	-211.321626
10.110000	-211.321626
10.120000	-211.321626
10.130000	-420.657167
10.140000	-644.370095
10.150000	-769.293892
10.160000	-897.028378
10.170000	-948.454058
10.180000	-1009.158697
10.190000	-1009.158697
10.200000	-1009.158697
10.210000	-950.757107
10.220000	-916.425018
10.230000	-916.425018
10.240000	-916.425018
10.250000	-917.992688
10.260000	-956.772729
10.270000	-977.839394
10.280000	-977.839394
10.290000	-977.839394
10.300000	-976.855400
10.310000	-950.207062
10.320000	-913.517306
10.330000	-843.810950
10.340000	-777.358475
10.350000	-695.279657
10.360000	-606.291487
10.370000	-504.724641
10.380000	-402.287758
10.390000	-294.139436
10.400000	-188.334450
10.410000	-80.534926
10.420000	29.593399
10.430000	139.046225
10.440000	242.500963
10.450000	351.660491
10.460000	460.346039
10.470000	525.831078
10.480000	525.831078
10.490000	525.831078
10.500000	343.895016
10.510000	107.589137
10.520000	-124.299947
10.530000	-305.699269
10.540000	-436.632810
10.550000	-526.023153
10.560000	-577.963192
10.570000	-587.720872
10.580000	-587.720872
10.590000	-587.720872
10.600000	-536.659095
10.610000	-496.102699
10.620000	-496.102699
10.630000	-496.102699
10.640000	-520.371396
10.650000	-546.782911
10.660000	-559.114055
10.670000	-559.114055
10.680000	-559.114055
10.690000	-529.525624
10.700000	-492.543658
10.710000	-439.845112
10.720000	-377.017722
10.730000	-308.166470
10.740000	-230.478414
10.750000	-143.499620
10.760000	-52.961088
10.770000	44.186671
10.780000	136.512109
10.790000	232.924797
10.800000	330.950326
10.810000	432.672046
10.820000	526.347493
10.830000	626.488645
10.840000	725.681993
10.850000	781.145945
10.860000	781.145945
10.870000	781.145945
10.880000	582.168873
10.890000	329.208730
10.900000	76.417961
10.910000	-123.733473
10.920000	-296.546640
10.930000	-398.486417
10.940000	-482.776519
10.950000	-537.058473
10.960000	-580.740126
10.970000	-580.740126
10.980000	-580.740126
10.990000	-546.487130
11.000000	-546.487130
11.010000	-546.487130
11.020000	-598.604935
11.030000	-627.042912
11.040000	-683.005545
11.050000	-685.231092
11.060000	-689.856641
11.070000	-689.856641
11.080000	-689.856641
11.090000	-625.832290
11.100000	-372.774659
11.110000	-372.774659
11.120000	-372.774659
11.130000	-451.243672
11.140000	-554.321922
11.150000	-584.183644
11.160000	-623.976944
11.170000	-623.976944
11.180000	-623.976944
11.190000	-573.587701
11.200000	-573.587701
11.210000	-573.587701
11.220000	-591.057176
11.230000	-623.625901
11.240000	-661.399416
11.250000	-669.924804
11.260000	-669.924804
11.270000	-669.924804
11.280000	-654.540883
11.290000	-612.820528
11.300000	-570.319500
11.310000	-510.587624
11.320000	-450.175086
11.330000	-369.240683
11.340000	-292.137547
11.350000	-201.764953
11.360000	-107.156430
11.370000	-9.251206
11.380000	93.848695
11.390000	200.268825
11.400000	305.864659
11.410000	416.834767
11.420000	523.855924
11.430000	634.465376
11.440000	737.815474
11.450000	850.189704
11.460000	959.717315
11.470000	1065.965477
11.480000	1065.965477
11.490000	1065.965477
11.500000	921.500483
11.510000	664.596252
11.520000	395.581026
11.530000	164.460347
11.540000	-22.435642
11.550000	-160.657608
11.560000	-268.491270
11.570000	-356.731137
11.580000	-425.493350
11.590000	-469.945716
11.600000	-469.945716
11.610000	-469.945716
11.620000	-469.945716
11.630000	-469.945716
11.640000	-482.143313
11.650000	-509.025263
11.660000	-545.017043
11.670000	-570.939200
11.680000	-570.939200
11.690000	-570.939200
11.700000	-561.800053
11.710000	-528.651155
11.720000	-484.667128
11.730000	-432.457277
11.740000	-362.470313
11.750000	-280.274015
11.760000	-194.249895
11.770000	-100.023963
11.780000	-2.021464
11.790000	92.250231
11.800000	193.289458
11.810000	297.519230
11.820000	404.643280
11.830000	510.812788
11.840000	613.034193
11.850000	722.179592
11.860000	834.420309
11.870000	944.578685
11.880000	1053.860362
11.890000	1168.027101
11.900000	1282.308696
11.910000	1402.542252
11.920000	1524.768108
11.930000	1590.678014
11.940000	1590.678014
11.950000	1590.678014
11.960000	1378.667207
11.970000	1096.460463
11.980000	819.312395
11.990000	586.183657
12.000000	409.926617
12.010000	273.866805
12.020000	172.613188
12.030000	98.585601
12.040000	41.333837
12.050000	41.333837
12.060000	41.333837
12.070000	65.162815
12.080000	100.942110
12.090000	122.835900
12.100000	122.835900
12.110000	122.835900
12.120000	74.774958
12.130000	39.873296
12.140000	32.681676
12.150000	30.832736
12.160000	30.832736
12.170000	30.832736
12.180000	40.842392
12.190000	69.866869
12.200000	115.982901
12.210000	173.938848
12.220000	233.156058
12.230000	305.118996
12.240000	394.357978
12.250000	480.278288
12.260000	571.689095
12.270000	672.472770
12.280000	791.081768
12.290000	928.696561
12.300000	1072.485510
12.310000	1214.984917
12.320000	1364.983978
12.330000	1513.274183
12.340000	1648.527213
12.350000	1770.645124
12.360000	1886.139662
12.370000	2003.071600
12.380000	2105.738334
12.390000	2186.572107
12.400000	2186.572107
12.410000	2186.572107
12.420000	2099.319014
12.430000	1857.387580
12.440000	1531.235983
12.450000	1234.215445
12.460000	993.970257
12.470000	792.972042
12.480000	635.818193
12.490000	523.772460
12.500000	456.718758
12.510000	456.718758
12.520000	456.718758
12.530000	501.365958
12.540000	554.852275
12.550000	562.033171
12.560000	562.033171
12.570000	562.033171
12.580000	527.360601
12.590000	486.864681
12.600000	454.800288
12.610000	435.525805
12.620000	435.525805
12.630000	435.525805
12.640000	471.014971
12.650000	504.271580
12.660000	561.896990
12.670000	600.880041
12.680000	668.079748
12.690000	740.350150
12.700000	832.420468
12.710000	903.722324
12.720000	1005.066116
12.730000	1088.878227
12.740000	1210.047126
12.750000	1306.767553
12.760000	1432.398355
12.770000	1536.425469
12.780000	1536.425469
12.790000	1536.425469
12.800000	1214.400449
12.810000	977.507768
12.820000	810.370822
12.830000	659.861611
12.840000	589.715618
12.850000	504.832556
12.860000	491.619179
12.870000	491.619179
12.880000	491.619179
12.890000	520.166075
12.900000	752.455684
12.910000	781.105591
12.920000	818.045786
12.930000	824.408759
12.940000	870.989446
12.950000	942.527802
12.960000	1032.007842
12.970000	1095.597680
12.980000	1215.423999
12.990000	1306.259559
13.000000	1420.269004
13.010000	1501.676293
13.020000	1615.496916
13.030000	1696.787043
13.040000	1817.150632
13.050000	1892.520791
13.060000	2023.361520
13.070000	2090.701962
13.080000	2090.701962
13.090000	2090.701962
13.100000	1597.618358
13.110000	1597.618358
13.120000	1597.618358
13.130000	1667.578272
13.140000	1805.946587
13.150000	1889.020414
13.160000	2011.923378
13.170000	2011.923378
13.180000	2011.923378
13.190000	1985.578802
13.200000	1798.261903
13.210000	1533.976460
13.220000	1311.626138
13.230000	1118.056305
13.240000	992.177849
13.250000	884.938595
13.260000	832.005851
13.270000	832.005851
13.280000	832.005851
13.290000	836.249369
13.300000	893.267025
13.310000	932.780155
13.320000	932.780155
13.330000	932.780155
13.340000	905.009839
13.350000	866.948051
13.360000	835.444682
13.370000	835.444682
13.380000	835.444682
13.390000	836.276075
13.400000	860.378900
13.410000	904.033364
13.420000	948.816781
13.430000	1011.923777
13.440000	1074.189559
13.450000	1151.945902
13.460000	1226.499807
13.470000	1324.124643
13.480000	1409.673910
13.490000	1409.673910
13.500000	1409.673910
13.510000	1336.761713
13.520000	1040.265763
13.530000	809.057062
13.540000	611.515936
13.550000	480.558032
13.560000	369.575434
13.570000	293.254463
13.580000	234.574324
13.590000	233.081729
13.600000	232.389456
13.610000	228.118472
13.620000	204.196395
13.630000	156.168334
13.640000	85.989047
13.650000	20.358528
13.660000	-40.269043
13.670000	-86.405769
13.680000	-114.523450
13.690000	-114.523450
13.700000	-114.523450
13.710000	-99.877946
13.720000	-67.015379
13.730000	-18.565817
13.740000	40.737848
13.750000	103.755236
13.760000	179.550477
13.770000	257.035190
13.780000	340.418729
13.790000	422.296206
13.800000	503.321429
13.810000	587.578309
13.820000	673.218850
13.830000	745.836276
13.840000	828.228157
13.850000	908.006642
13.860000	993.302189
13.870000	1068.118441
13.880000	1068.118441
13.890000	1068.118441
13.900000	1006.773340
13.910000	748.862992
13.920000	453.396106
13.930000	148.579185
13.940000	-81.825722
13.950000	-277.040303
13.960000	-395.825174
13.970000	-522.002619
13.980000	-592.421004
13.990000	-669.310069
14.000000	-1069.128585
14.010000	-1069.128585
14.020000	-1069.128585
14.030000	-1056.245982
14.040000	-999.092813
14.050000	-963.213500
14.060000	-890.723667
14.070000	-834.491512
14.080000	-753.102537
14.090000	-685.999233
14.100000	-597.282758
14.110000	-520.707193
14.120000	-434.319552
14.130000	-359.544511
14.140000	-275.250319
14.150000	-204.514746
14.160000	-125.068663
14.170000	-43.577208
14.180000	44.129366
14.190000	127.305347
14.200000	127.305347
14.210000	127.305347
14.220000	-18.397944
14.230000	-266.166572
14.240000	-525.984491
14.250000	-752.442535
14.260000	-922.651318
14.270000	-1051.842253
14.280000	-1138.291250
14.290000	-1198.311802
14.300000	-1198.311802
14.310000	-1198.311802
14.320000	-1195.525410
14.330000	-1166.976232
14.340000	-1166.976232
14.350000	-1166.976232
14.360000	-1209.804037
14.370000	-1258.560575
14.380000	-1303.466672
14.390000	-1333.166643
14.400000	-1333.166643
14.410000	-1333.166643
14.420000	-1323.961955
14.430000	-1290.415071
14.440000	-1244.785781
14.450000	-1195.080411
14.460000	-1130.587829
14.470000	-1049.801141
14.480000	-966.462339
14.490000	-882.520524
14.500000	-787.333768
14.510000	-691.329730
14.520000	-597.216394
14.530000	-505.164808
14.540000	-405.104167
14.550000	-308.091627
14.560000	-204.970562
14.570000	-102.095616
14.580000	-4.869336
14.590000	-4.869336
14.600000	-4.869336
14.610000	-161.289596
14.620000	-422.716132
14.630000	-711.347838
14.640000	-970.609282
14.650000	-1175.530841
14.660000	-1337.641043
14.670000	-1461.734121
14.680000	-1555.720539
14.690000	-1631.989270
14.700000	-1657.991925
14.710000	-1657.991925
14.720000	-1662.233836
14.730000	-1662.233836
14.740000	-1662.233836
14.750000	-1698.867397
14.760000	-1744.512532
14.770000	-1797.213490
14.780000	-1831.770047
14.790000	-1833.140232
14.800000	-1833.140232
14.810000	-1833.140232
14.820000	-1801.464624
14.830000	-1759.675991
14.840000	-1701.847104
14.850000	-1635.292583
14.860000	-1557.246574
14.870000	-1469.967854
14.880000	-1373.685538
14.890000	-1274.705066
14.900000	-1168.139186
14.910000	-1065.532999
14.920000	-963.597838
14.930000	-858.405070
14.940000	-755.127524
14.950000	-660.327130
14.960000	-551.624025
14.970000	-454.426876
14.980000	-351.048715
14.990000	-257.666305
15.000000	-257.666305
15.010000	-257.666305
15.020000	-332.728552
15.030000	-594.764248
15.040000	-873.755200
15.050000	-1142.565163
15.060000	-1355.779087
15.070000	-1536.602088
15.080000	-1656.709074
15.090000	-1770.915077
15.100000	-2065.573796
15.110000	-2065.573796
15.120000	-2065.573796
15.130000	-2045.296646
15.140000	-1991.873347
15.150000	-1937.465254
15.160000	-1854.055590
15.170000	-1775.852733
15.180000	-1680.129396
15.190000	-1591.417918
15.200000	-1484.113353
15.210000	-1389.186293
15.220000	-1282.995047
15.230000	-1175.093500
15.240000	-1062.890959
15.250000	-956.081929
15.260000	-839.766700
15.270000	-734.214225
15.280000	-630.609722
15.290000	-523.402529
15.300000	-415.522958
15.310000	-307.631392
15.320000	-201.485873
15.330000	-90.884926
15.340000	-74.684553
15.350000	-74.684553
15.360000	-74.684553
15.370000	-282.530966
15.380000	-540.752831
15.390000	-784.795208
15.400000	-991.981708
15.410000	-1148.128207
15.420000	-1271.344566
15.430000	-1359.450609
15.440000	-1438.830851
15.450000	-1485.679963
15.460000	-1485.679963
15.470000	-1485.679963
15.480000	-1486.885921
15.490000	-1486.885921
15.500000	-1489.346787
15.510000	-1513.808832
15.520000	-1568.706357
15.530000	-1586.395776
15.540000	-1604.663401
15.550000	-1604.663401
15.560000	-1604.663401
15.570000	-1559.537678
15.580000	-1546.383861
15.590000	-1462.905809
15.600000	-516.264790
15.610000	-397.135948
15.620000	-318.380741
15.630000	-215.390765
15.640000	-120.803646
15.650000	-17.548579
15.660000	90.677221
15.670000	90.677221
15.680000	90.677221
15.690000	57.695975
15.700000	-781.471242
15.710000	-806.851640
15.720000	-808.803120
15.730000	-823.364279
15.740000	-829.644130
15.750000	-866.398727
15.760000	-866.398727
15.770000	-866.398727
15.780000	-847.799845
15.790000	-830.834974
15.800000	-769.905853
15.810000	-734.132135
15.820000	-650.655432
15.830000	-586.847580
15.840000	-484.091707
15.850000	-409.941897
15.860000	-294.181514
15.870000	-213.471146
15.880000	-201.062596
15.890000	-106.238444
15.900000	-90.880586
15.910000	-23.674955
15.920000	-23.674955
15.930000	-23.674955
15.940000	-15.385395
15.950000	-0.924672
15.960000	-0.820038
15.970000	11.102875
15.980000	32.504510
15.990000	32.504510
16.000000	46.672184
16.010000	61.017298
16.020000	83.956995
16.030000	151.803975
16.040000	229.415220
16.050000	313.431428
16.060000	426.922392
16.070000	517.829303
16.080000	616.633444
16.090000	711.087406
16.100000	828.430939
16.110000	964.236922
16.120000	1109.193803
16.130000	1255.369402
16.140000	1403.961302
16.150000	1547.457898
16.160000	1668.682562
16.170000	1725.357087
16.180000	1725.357087
16.190000	1725.357087
16.200000	1518.351933
16.210000	1229.336168
16.220000	951.374456
16.230000	721.142994
16.240000	534.267141
16.250000	380.918037
16.260000	267.187032
16.270000	194.664476
16.280000	116.959173
16.290000	57.587229
16.300000	57.587229
16.310000	57.587229
16.320000	67.152044
16.330000	88.604309
16.340000	143.777327
16.350000	215.473654
16.360000	287.391275
16.370000	370.404115
16.380000	483.012914
16.390000	604.213079
16.400000	715.629044
16.410000	816.056737
16.420000	921.279619
16.430000	1037.863117
16.440000	1174.925492
16.450000	1319.597634
16.460000	1468.586427
16.470000	1631.356178
16.480000	1801.192132
16.490000	1956.062068
16.500000	2028.375953
16.510000	2028.375953
16.520000	2028.375953
16.530000	1811.464817
16.540000	1527.061029
16.550000	1239.268192
16.560000	983.658302
16.570000	803.082239
16.580000	673.061442
16.590000	575.905827
16.600000	507.492840
16.610000	444.668231
16.620000	444.668231
16.630000	444.668231
16.640000	439.270464
16.650000	439.270464
16.660000	424.286825
16.670000	383.428907
16.680000	335.941049
16.690000	335.941049
16.700000	335.941049
16.710000	346.492309
16.720000	381.311985
16.730000	448.942043
16.740000	515.919121
16.750000	580.470933
16.760000	641.520335
16.770000	709.022342
16.780000	775.064741
16.790000	824.546317
16.800000	862.657230
16.810000	913.113559
16.820000	976.177717
16.830000	1068.718853
16.840000	1172.594498
16.850000	1253.271598
16.860000	1343.187695
16.870000	1440.723276
16.880000	1542.769264
16.890000	1626.112181
16.900000	1710.461142
16.910000	1744.895114
16.920000	1744.895114
16.930000	1744.895114
16.940000	1553.503731
16.950000	1316.441893
16.960000	1093.100103
16.970000	916.909315
16.980000	782.581968
16.990000	695.397480
17.000000	651.029048
17.010000	646.359366
17.020000	646.359366
17.030000	646.359366
17.040000	691.857226
17.050000	712.209263
17.060000	712.209263
17.070000	712.209263
17.080000	665.799210
17.090000	625.621909
17.100000	582.216117
17.110000	557.109658
17.120000	557.109658
17.130000	557.109658
17.140000	567.864877
17.150000	599.070042
17.160000	641.209939
17.170000	695.510070
17.180000	762.541916
17.190000	829.902978
17.200000	908.927399
17.210000	985.213304
17.220000	1065.358452
17.230000	1148.490790
17.240000	1230.768801
17.250000	1318.784153
17.260000	1409.138697
17.270000	1494.052220
17.280000	1530.780725
17.290000	1530.780725
17.300000	1530.780725
17.310000	1359.566594
17.320000	1120.115950
17.330000	886.007588
17.340000	686.313708
17.350000	531.381612
17.360000	423.473399
17.370000	339.670289
17.380000	283.689733
17.390000	283.689733
17.400000	283.689733
17.410000	292.114537
17.420000	313.143034
17.430000	313.143034
17.440000	313.143034
17.450000	268.654302
17.460000	216.277724
17.470000	168.886004
17.480000	162.341214
17.490000	162.341214
17.500000	162.341214
17.510000	187.433230
17.520000	226.261625
17.530000	275.710569
17.540000	328.147609
17.550000	399.028943
17.560000	466.909504
17.570000	551.437086
17.580000	635.547106
17.590000	635.547106
17.600000	635.547106
17.610000	536.379224
17.620000	286.681671
17.630000	91.838284
17.640000	-56.857248
17.650000	-176.752484
17.660000	-275.395736
17.670000	-361.372972
17.680000	-397.836691
17.690000	-416.208605
17.700000	-578.864463
17.710000	-578.864463
17.720000	-578.864463
17.730000	-533.514690
17.740000	-460.714703
17.750000	-400.137454
17.760000	-316.389015
17.770000	-240.974570
17.780000	-150.944729
17.790000	-67.965547
17.800000	22.567503
17.810000	107.936406
17.820000	201.117927
17.830000	280.711205
17.840000	371.762837
17.850000	455.331748
17.860000	455.331748
17.870000	455.331748
17.880000	320.219494
17.890000	62.065703
17.900000	-213.736985
17.910000	-466.757509
17.920000	-656.729901
17.930000	-819.827018
17.940000	-933.598521
17.950000	-1037.102540
17.960000	-1102.320340
17.970000	-1149.879042
17.980000	-1151.376626
17.990000	-1155.565072
18.000000	-1272.844992
18.010000	-1272.844992
18.020000	-1272.844992
18.030000	-1220.826578
18.040000	-1142.641587
18.050000	-1066.533658
18.060000	-978.362381
18.070000	-894.365059
18.080000	-807.059181
18.090000	-725.282705
18.100000	-636.739613
18.110000	-548.294907
18.120000	-454.428207
18.130000	-363.387349
18.140000	-328.904859
18.150000	-328.904859
18.160000	-328.904859
18.170000	-515.813930
18.180000	-758.588230
18.190000	-983.947185
18.200000	-1173.466327
18.210000	-1298.095538
18.220000	-1398.580620
18.230000	-1448.103024
18.240000	-1469.493192
18.250000	-1469.493192
18.260000	-1469.493192
18.270000	-1412.747408
18.280000	-1412.747408
18.290000	-1412.747408
18.300000	-1423.420842
18.310000	-1441.495353
18.320000	-1503.008313
18.330000	-1503.008313
18.340000	-1505.277891
18.350000	-1505.277891
18.360000	-1501.574136
18.370000	-1446.159319
18.380000	-1437.752596
18.390000	-1335.921669
18.400000	-328.738987
18.410000	-328.738987
18.420000	-328.738987
18.430000	-389.399470
18.440000	-666.911055
18.450000	-894.060221
18.460000	-1154.741643
18.470000	-1309.153705
18.480000	-1309.153705
18.490000	-1309.153705
18.500000	-1197.213810
18.510000	-1075.124202
18.520000	-978.845407
18.530000	-866.969857
18.540000	-753.676781
18.550000	-648.850787
18.560000	-530.467548
18.570000	-437.947469
18.580000	-437.947469
18.590000	-437.947469
18.600000	-883.018522
18.610000	-883.018522
18.620000	-883.018522
18.630000	-796.429361
18.640000	-663.423103
18.650000	-573.423478
18.660000	-447.411470
18.670000	-358.882830
18.680000	-358.882830
18.690000	-358.882830
18.700000	-427.489856
18.710000	-668.975464
18.720000	-912.512330
18.730000	-1143.434652
18.740000	-1304.463427
18.750000	-1444.230283
18.760000	-1531.239883
18.770000	-1607.272477
18.780000	-1655.901640
18.790000	-1655.901640
18.800000	-1655.901640
18.810000	-1647.808815
18.820000	-1622.484068
18.830000	-1622.484068
18.840000	-1622.484068
18.850000	-1662.018422
18.860000	-1683.791265
18.870000	-1703.010610
18.880000	-1703.010610
18.890000	-1703.010610
18.900000	-1669.085342
18.910000	-1634.346955
18.920000	-1573.039886
18.930000	-1517.885837
18.940000	-1426.830679
18.950000	-1352.726704
18.960000	-1240.365673
18.970000	-1153.936173
18.980000	-1037.611371
18.990000	-947.493055
19.000000	-816.558540
19.010000	-734.519705
19.020000	-603.028108
19.030000	-526.140830
19.040000	-385.926149
19.050000	-310.475481
19.060000	-164.137225
19.070000	-100.641985
19.080000	-100.641985
19.090000	-100.641985
19.100000	-829.010246
19.110000	-836.691037
19.120000	-836.691037
19.130000	-836.691037
19.140000	-836.691037
19.150000	-843.841876
19.160000	-847.021732
19.170000	-875.742971
19.180000	-875.742971
19.190000	-875.742971
19.200000	-860.122293
19.210000	-839.121233
19.220000	-776.193808
19.230000	-729.704073
19.240000	-643.982190
19.250000	-577.630384
19.260000	-481.503793
19.270000	-397.836368
19.280000	-293.847590
19.290000	-201.247237
19.300000	-93.057483
19.310000	2.162545
19.320000	110.857359
19.330000	208.406212
19.340000	320.886060
19.350000	421.479689
19.360000	522.999168
19.370000	522.999168
19.380000	522.999168
19.390000	449.283975
19.400000	255.384053
19.410000	49.162954
19.420000	-121.348436
19.430000	-255.108325
19.440000	-342.076954
19.450000	-396.466500
19.460000	-423.510032
19.470000	-423.510032
19.480000	-423.510032
19.490000	-374.275038
19.500000	-321.274297
19.510000	-297.123480
19.520000	-297.123480
19.530000	-297.123480
19.540000	-313.793430
19.550000	-336.615497
19.560000	-336.615497
19.570000	-336.615497
19.580000	-310.176223
19.590000	-271.803353
19.600000	-219.831133
19.610000	-159.471332
19.620000	-92.488796
19.630000	-15.135898
19.640000	66.816163
19.650000	166.240000
19.660000	259.009252
19.670000	359.712477
19.680000	461.133190
19.690000	571.217828
19.700000	678.194685
19.710000	788.766119
19.720000	894.206489
19.730000	1008.369586
19.740000	1123.151616
19.750000	1249.018154
19.760000	1249.018154
19.770000	1249.018154
19.780000	1205.609729
19.790000	997.726355
19.800000	754.252433
19.810000	547.822102
19.820000	381.701780
19.830000	281.978106
19.840000	205.960213
19.850000	166.284464
19.860000	103.018127
19.870000	73.913253
19.880000	46.828745
19.890000	44.693298
19.900000	7.927680
19.910000	-0.610298
19.920000	-41.622005
19.930000	-60.284536
19.940000	-151.159254
19.950000	-186.861308
19.960000	-226.870671
19.970000	-226.870671
19.980000	-226.870671
19.990000	-212.918023
20.000000	800.737410
20.010000	946.733830
20.020000	1016.824368
20.030000	1154.611119
20.040000	1222.144049
20.050000	1363.268798
20.060000	1393.568936
20.070000	1513.992086
20.080000	1605.121462
20.090000	1721.200248
20.100000	1721.200248
20.110000	1721.200248
20.120000	1614.189074
20.130000	1393.625445
20.140000	1125.986424
20.150000	912.772977
20.160000	728.444980
20.170000	599.072677
20.180000	490.749498
20.190000	428.545324
20.200000	347.818850
20.210000	295.335455
20.220000	275.185475
20.230000	274.550160
20.240000	266.759607
20.250000	250.134114
20.260000	210.417218
20.270000	174.123928
20.280000	90.105653
20.290000	27.457540
20.300000	-10.372429
20.310000	-46.267133
20.320000	-59.187806
20.330000	-59.187806
20.340000	-59.187806
20.350000	-27.609101
20.360000	17.402827
20.370000	81.766042
20.380000	152.958588
20.390000	239.214216
20.400000	355.549252
20.410000	474.562409
20.420000	596.231883
20.430000	723.936953
20.440000	837.868076
20.450000	941.392644
20.460000	1038.523763
20.470000	1138.881683
20.480000	1226.126317
20.490000	1307.453751
20.500000	1388.743850
20.510000	1471.031304
20.520000	1571.424516
20.530000	1672.533274
20.540000	1672.533274
20.550000	1672.533274
20.560000	1638.440594
20.570000	1407.025752
20.580000	1126.229199
20.590000	863.771870
20.600000	646.926889
20.610000	485.490273
20.620000	366.582690
20.630000	288.259195
20.640000	249.260958
20.650000	249.260958
20.660000	249.260958
20.670000	263.655049
20.680000	263.655049
20.690000	263.655049
20.700000	235.698373
20.710000	177.212626
20.720000	126.508720
20.730000	63.988314
20.740000	-4.589852
20.750000	-33.103622
20.760000	-42.852010
20.770000	-42.852010
20.780000	-42.852010
20.790000	-20.180432
20.800000	17.762394
20.810000	62.823144
20.820000	129.634586
20.830000	200.760778
20.840000	280.588931
20.850000	366.702012
20.860000	459.573579
20.870000	558.662899
20.880000	656.561876
20.890000	754.670557
20.900000	852.567815
20.910000	943.684032
20.920000	1031.624459
20.930000	1120.722318
20.940000	1217.710551
20.950000	1316.748965
20.960000	1316.748965
20.970000	1316.748965
20.980000	1275.968584
20.990000	1069.770830
21.000000	825.259428
21.010000	607.926397
21.020000	435.441876
21.030000	311.065315
21.040000	227.618563
21.050000	166.194897
21.060000	166.194897
21.070000	166.194897
21.080000	176.108673
21.090000	214.533496
21.100000	214.533496
21.110000	214.533496
21.120000	199.590674
21.130000	156.126514
21.140000	109.833510
21.150000	68.490231
21.160000	48.458717
21.170000	48.458717
21.180000	48.458717
21.190000	70.134870
21.200000	105.842749
21.210000	145.442501
21.220000	201.310861
21.230000	261.706081
21.240000	328.839444
21.250000	405.994707
21.260000	483.354094
21.270000	565.344458
21.280000	649.872786
21.290000	737.724007
21.300000	830.415322
21.310000	925.113377
21.320000	1020.985053
21.330000	1020.985053
21.340000	1020.985053
21.350000	931.724961
21.360000	727.465957
21.370000	491.008284
21.380000	274.415476
21.390000	100.231593
21.400000	-20.646041
21.410000	-104.599183
21.420000	-153.647386
21.430000	-153.647386
21.440000	-153.647386
21.450000	-120.475092
21.460000	-66.206432
21.470000	-65.840703
21.480000	-65.840703
21.490000	-65.840703
21.500000	-84.015549
21.510000	-128.312643
21.520000	-129.739948
21.530000	-129.739948
21.540000	-129.739948
21.550000	-128.046719
21.560000	-75.071672
21.570000	-46.451689
21.580000	35.035428
21.590000	73.687272
21.600000	178.724143
21.610000	232.221038
21.620000	350.073637
21.630000	401.094640
21.640000	543.235634
21.650000	587.032291
21.660000	741.510255
21.670000	777.785215
21.680000	777.785215
21.690000	777.785215
21.700000	-550.364634
21.710000	-611.050601
21.720000	-611.050601
21.730000	-637.613230
21.740000	-625.448899
21.750000	-637.613230
21.760000	-637.613230
21.770000	-712.071924
21.780000	-728.680457
21.790000	-810.109930
21.800000	-811.351463
21.810000	-819.925611
21.820000	-819.925611
21.830000	-819.925611
21.840000	-780.255681
21.850000	-751.754460
21.860000	-687.246414
21.870000	-639.918383
21.880000	-558.935703
21.890000	-490.332687
21.900000	-394.373802
21.910000	-296.911573
21.920000	-186.694484
21.930000	-105.620983
21.940000	-20.794329
21.950000	68.596841
21.960000	157.103945
21.970000	253.870007
21.980000	265.577291
21.990000	265.577291
22.000000	265.577291
22.010000	64.773645
22.020000	-220.746290
22.030000	-494.400629
22.040000	-759.328859
22.050000	-942.350432
22.060000	-1122.314187
22.070000	-1229.878464
22.080000	-1353.718806
22.090000	-1407.912266
22.100000	-1462.355892
22.110000	-1462.355892
22.120000	-1483.595075
22.130000	-1493.191171
22.140000	-1526.827575
22.150000	-1527.543410
22.160000	-1628.473846
22.170000	-1635.833330
22.180000	-1635.833330
22.190000	-1628.473846
22.200000	-167.574047
22.210000	-167.574047
22.220000	-167.574047
22.230000	-290.752368
22.240000	-615.244520
22.250000	-853.729681
22.260000	-1152.089396
22.270000	-1320.770180
22.280000	-1515.868004
22.290000	-1611.019151
22.300000	-1749.370997
22.310000	-1804.511783
22.320000	-1878.441846
22.330000	-1879.488101
22.340000	-1897.956169
22.350000	-1900.123291
22.360000	-1945.070490
22.370000	-1984.095091
22.380000	-2057.274116
22.390000	-2104.936704
22.400000	-2164.727402
22.410000	-2188.524888
22.420000	-2189.191062
22.430000	-2189.191062
22.440000	-2189.191062
22.450000	-2153.156529
22.460000	-2107.074263
22.470000	-2045.318446
22.480000	-1988.008226
22.490000	-1909.333916
22.500000	-1831.052169
22.510000	-1745.246848
22.520000	-1664.129967
22.530000	-1562.033913
22.540000	-1470.342223
22.550000	-1375.675374
22.560000	-1286.591644
22.570000	-1187.226226
22.580000	-1091.899995
22.590000	-992.691556
22.600000	-893.215133
22.610000	-796.128893
22.620000	-700.494551
22.630000	-595.512821
22.640000	-491.805991
22.650000	-384.827784
22.660000	-384.827784
22.670000	-384.827784
22.680000	-392.346913
22.690000	-611.574784
22.700000	-882.374205
22.710000	-1133.817258
22.720000	-1340.495695
22.730000	-1502.097317
22.740000	-1623.599847
22.750000	-1715.359749
22.760000	-1791.681900
22.770000	-1848.538334
22.780000	-1849.748293
22.790000	-1855.852942
22.800000	-1857.745000
22.810000	-1857.745000
22.820000	-1887.768081
22.830000	-1940.879011
22.840000	-1987.687349
22.850000	-2024.933340
22.860000	-2049.568228
22.870000	-2049.568228
22.880000	-2049.568228
22.890000	-2025.870215
22.900000	-1996.343115
22.910000	-1953.673942
22.920000	-1903.249499
22.930000	-1833.386880
22.940000	-1759.184780
22.950000	-1683.019446
22.960000	-1605.067813
22.970000	-1514.574991
22.980000	-1427.977734
22.990000	-1337.014093
23.000000	-1247.877933
23.010000	-1158.379916
23.020000	-1069.736396
23.030000	-976.675986
23.040000	-883.568554
23.050000	-786.896747
23.060000	-690.366040
23.070000	-587.032882
23.080000	-483.143499
23.090000	-369.068280
23.100000	-369.068280
23.110000	-369.068280
23.120000	-435.920568
23.130000	-621.531878
23.140000	-827.797092
23.150000	-986.947102
23.160000	-1115.842691
23.170000	-1187.176743
23.180000	-1255.046690
23.190000	-1255.046690
23.200000	-1255.046690
23.210000	-1245.546339
23.220000	-1210.209653
23.230000	-1147.627062
23.240000	-1147.627062
23.250000	-1147.627062
23.260000	-1165.126211
23.270000	-1169.633044
23.280000	-1169.633044
23.290000	-1165.126211
23.300000	-579.208976
23.310000	-564.628236
23.320000	-562.745984
23.330000	-562.745984
23.340000	-562.745984
23.350000	-512.689344
23.360000	-512.689344
23.370000	-512.689344
23.380000	-546.908630
23.390000	-563.940752
23.400000	-604.370793
23.410000	-604.370793
23.420000	-604.370793
23.430000	-598.477419
23.440000	-576.695089
23.450000	-529.849961
23.460000	-483.455008
23.470000	-417.001769
23.480000	-345.216299
23.490000	-265.008168
23.500000	-174.884427
23.510000	-86.953297
23.520000	12.618400
23.530000	103.107450
23.540000	204.334451
23.550000	297.164148
23.560000	411.288637
23.570000	501.119187
23.580000	501.119187
23.590000	501.119187
23.600000	335.983348
23.610000	201.795374
23.620000	130.311811
23.630000	54.971673
23.640000	15.043524
23.650000	-5.052459
23.660000	-5.052459
23.670000	-5.052459
23.680000	1.244245
23.690000	1.244245
23.700000	1.244245
23.710000	-33.307322
23.720000	-61.830332
23.730000	-97.407630
23.740000	-97.407630
23.750000	-97.407630
23.760000	-92.326583
23.770000	-70.506714
23.780000	-29.790313
23.790000	15.533754
23.800000	72.935255
23.810000	134.663016
23.820000	203.822304
23.830000	280.917860
23.840000	364.838700
23.850000	450.296073
23.860000	542.018511
23.870000	637.792176
23.880000	730.322377
23.890000	819.446928
23.900000	912.787728
23.910000	1010.221553
23.920000	1103.372593
23.930000	1198.178703
23.940000	1310.127923
23.950000	1446.257895
23.960000	1604.003138
23.970000	1773.464205
23.980000	1950.041163
23.990000	1950.041163
24.000000	1950.041163
24.010000	1916.159571
24.020000	1726.743808
24.030000	1539.855527
24.040000	1379.279880
24.050000	1224.584918
24.060000	1050.959706
24.070000	948.787375
24.080000	922.358130
24.090000	914.539159
24.100000	914.539159
24.110000	922.358130
24.120000	922.358130
24.130000	912.222475
24.140000	912.222475
24.150000	874.902086
24.160000	841.981773
24.170000	841.981773
24.180000	841.981773
24.190000	894.174111
24.200000	972.816339
24.210000	1060.124995
24.220000	1149.935652
24.230000	1252.290536
24.240000	1331.099197
24.250000	1408.788523
24.260000	1482.365425
24.270000	1557.483530
24.280000	1610.725841
24.290000	1640.413026
24.300000	1695.400581
24.310000	1738.281853
24.320000	1783.394419
24.330000	1856.359363
24.340000	1937.442076
24.350000	1996.587607
24.360000	2065.840050
24.370000	2137.888182
24.380000	2216.449391
24.390000	2294.340534
24.400000	2353.087976
24.410000	2353.087976
24.420000	2353.087976
24.430000	2198.812444
24.440000	1969.364316
24.450000	1765.998599
24.460000	1576.514848
24.470000	1404.414215
24.480000	1259.870562
24.490000	1154.019837
24.500000	1044.266562
24.510000	933.939950
24.520000	875.987682
24.530000	858.872268
24.540000	839.812780
24.550000	815.102161
24.560000	779.825277
24.570000	706.461139
24.580000	637.220923
24.590000	571.895677
24.600000	514.821565
24.610000	469.520930
24.620000	448.509556
24.630000	448.509556
24.640000	448.509556
24.650000	486.521376
24.660000	560.564486
24.670000	652.800379
24.680000	743.811002
24.690000	845.361366
24.700000	947.193778
24.710000	1024.078381
24.720000	1082.862204
24.730000	1144.030795
24.740000	1189.623361
24.750000	1241.290713
24.760000	1308.550272
24.770000	1385.708297
24.780000	1452.637342
24.790000	1506.373171
24.800000	1565.985422
24.810000	1650.238030
24.820000	1736.420734
24.830000	1808.322195
24.840000	1808.322195
24.850000	1808.322195
24.860000	1783.770737
24.870000	1590.360731
24.880000	1352.679182
24.890000	1157.469233
24.900000	974.469605
24.910000	852.999878
24.920000	762.243718
24.930000	700.815361
24.940000	612.070271
24.950000	559.164301
24.960000	513.965659
24.970000	507.833871
24.980000	477.373812
24.990000	454.402132
25.000000	365.746568
25.010000	312.539752
25.020000	201.791896
25.030000	159.484717
25.040000	65.367026
25.050000	62.358776
25.060000	25.396181
25.070000	25.396181
25.080000	25.396181
25.090000	48.807207
25.100000	903.330549
25.110000	903.330549
25.120000	903.330549
25.130000	718.274744
25.140000	463.075319
25.150000	329.184637
25.160000	170.099977
25.170000	114.057373
25.180000	22.600540
25.190000	-2.200729
25.200000	-11.337327
25.210000	-11.337327
25.220000	-11.768024
25.230000	-11.768024
25.240000	-35.588426
25.250000	-70.069496
25.260000	-137.903767
25.270000	-171.934191
25.280000	-218.320530
25.290000	-230.333805
25.300000	-230.333805
25.310000	-230.333805
25.320000	-218.086764
25.330000	-183.074494
25.340000	-138.310127
25.350000	-75.510301
25.360000	-12.393915
25.370000	70.366787
25.380000	142.597633
25.390000	235.624241
25.400000	326.652141
25.410000	429.193167
25.420000	525.833615
25.430000	625.045245
25.440000	716.174760
25.450000	812.174499
25.460000	908.680826
25.470000	1012.547176
25.480000	1107.335665
25.490000	1107.335665
25.500000	1107.335665
25.510000	1042.946557
25.520000	832.318037
25.530000	592.030247
25.540000	364.702889
25.550000	183.300890
25.560000	51.220078
25.570000	-49.272870
25.580000	-135.046651
25.590000	-203.579587
25.600000	-203.579587
25.610000	-203.579587
25.620000	-201.915090
25.630000	-201.915090
25.640000	-201.915090
25.650000	-241.254854
25.660000	-301.026278
25.670000	-356.611406
25.680000	-396.290224
25.690000	-404.747574
25.700000	-404.747574
25.710000	-404.747574
25.720000	-378.188731
25.730000	-341.472439
25.740000	-294.828083
25.750000	-234.972457
25.760000	-164.267634
25.770000	-92.276841
25.780000	-9.439138
25.790000	81.600883
25.800000	175.597957
25.810000	265.690020
25.820000	358.889122
25.830000	456.980874
25.840000	548.359686
25.850000	637.532265
25.860000	727.041243
25.870000	817.294279
25.880000	902.923516
25.890000	990.305218
25.900000	1085.020361
25.910000	1181.502376
25.920000	1277.342789
25.930000	1277.342789
25.940000	1277.342789
25.950000	1156.459035
25.960000	925.693472
25.970000	686.386927
25.980000	484.721209
25.990000	326.420918
26.000000	220.976526
26.010000	151.599985
26.020000	99.443451
26.030000	65.575107
26.040000	65.575107
26.050000	65.575107
26.060000	103.195208
26.070000	108.287645
26.080000	108.287645
26.090000	108.287645
