2025-07-21 15:25:48    绿光---红外光---红光---X轴---Y轴---Z轴
50853 305602 363441 -8838 13342 -993
50766 305406 363288 -8843 13332 -1001
50609 305201 363150 -8837 13309 -1001
50420 305037 363058 -8844 13322 -1004
50244 304900 362989 -8858 13337 -991
50100 304793 362920 -8852 13339 -973
49995 304719 362901 -8827 13292 -949
49930 304687 362889 -8813 13239 -945
49896 304678 362894 -8839 13269 -937
49877 304686 362899 -8872 13321 -900
49873 304675 362891 -8899 13352 -907
49885 304702 362912 -8885 13336 -926
49900 304736 362955 -8845 13299 -927
49918 304727 362960 -8832 13324 -935
49925 304713 362924 -8812 13362 -932
49917 304701 362908 -8775 13355 -940
49902 304700 362925 -8745 13341 -947
49888 304698 362938 -8736 13354 -945
49879 304697 362943 -8744 13379 -947
49878 304701 362938 -8750 13381 -957
49885 304726 362958 -8797 13412 -1016
49901 304737 362981 -8800 13394 -990
49919 304766 362995 -8815 13397 -968
49954 304794 362995 -8814 13383 -976
49994 304816 362995 -8780 13354 -984
50038 304849 363021 -8755 13371 -999
50083 304895 363055 -8751 13389 -1004
50130 304937 363062 -8744 13375 -1015
50178 304977 363104 -8744 13338 -1022
50232 305030 363112 -8788 13363 -1015
50285 305076 363138 -8829 13411 -1012
50329 305142 363177 -8811 13412 -1008
50374 305192 363222 -8781 13405 -1006
50420 305255 363274 -8772 13376 -1003
50468 305294 363278 -8762 13342 -996
50515 305342 363314 -8751 13364 -986
50561 305406 363356 -8748 13400 -976
50617 305445 363357 -8740 13403 -986
50676 305497 363366 -8732 13382 -988
50716 305514 363365 -8748 13373 -980
50702 305404 363266 -8774 13408 -993
50598 305202 363103 -8775 13439 -998
50424 305012 362976 -8757 13441 -989
50233 304842 362881 -8748 13414 -994
50056 304693 362803 -8741 13393 -989
49921 304601 362749 -8735 13407 -977
49829 304561 362742 -8721 13393 -982
49770 304528 362747 -8712 13355 -1002
49743 304526 362753 -8742 13348 -988
49729 304505 362733 -8797 13381 -949
49731 304505 362727 -8822 13434 -979
49754 304518 362713 -8786 13441 -1026
49779 304545 362719 -8737 13400 -1014
49792 304524 362714 -8732 13375 -997
49797 304507 362682 -8723 13372 -1009
49783 304478 362686 -8694 13402 -1030
49768 304450 362663 -8684 13426 -1035
49760 304408 362612 -8698 13423 -1037
49752 304382 362578 -8720 13417 -1032
49747 304378 362567 -8745 13406 -1020
49757 304364 362552 -8794 13438 -1052
49768 304350 362501 -8781 13406 -1039
49791 304322 362426 -8783 13375 -1042
49819 304300 362394 -8772 13365 -1063
49852 304298 362386 -8735 13358 -1074
49890 304291 362336 -8722 13330 -1055
49933 304249 362234 -8731 13319 -1028
49972 304196 362109 -8729 13383 -1033
50013 304124 361959 -8713 13451 -1047
50055 304059 361832 -8725 13473 -1052
50102 303984 361692 -8703 13441 -1044
50151 303872 361469 -8696 13432 -1042
50197 303768 361285 -8710 13439 -1042
50239 303672 361098 -8695 13400 -1044
50283 303592 360952 -8673 13366 -1027
50323 303499 360788 -8665 13386 -1015
50362 303386 360572 -8650 13402 -1021
50415 303240 360303 -8651 13391 -1022
50466 303140 360111 -8668 13432 -1022
50488 303044 359991 -8674 13493 -1013
50440 302847 359798 -8656 13498 -999
50311 302598 359534 -8641 13486 -1000
50128 302364 359337 -8626 13511 -1004
49946 302172 359192 -8587 13562 -994
49792 302021 359080 -8554 13558 -983
49685 301896 358969 -8550 13502 -993
49618 301826 358923 -8566 13479 -1015
49583 301798 358899 -8596 13484 -994
49569 301759 358854 -8639 13483 -958
49567 301704 358784 -8668 13494 -965
49583 301708 358753 -8639 13491 -974
49617 301736 358787 -8594 13473 -963
49645 301738 358792 -8589 13469 -958
49664 301701 358742 -8575 13468 -965
49667 301676 358721 -8547 13474 -968
49667 301659 358706 -8554 13480 -961
49661 301637 358696 -8577 13496 -948
49651 301623 358691 -8584 13519 -947
49651 301651 358722 -8592 13517 -955
49669 301691 358764 -8627 13516 -964
49686 301750 358834 -8660 13512 -932
49716 301793 358873 -8660 13490 -898
49756 301825 358907 -8647 13498 -920
49794 301854 358901 -8624 13497 -940
49836 301882 358894 -8592 13470 -945
49877 301905 358893 -8594 13464 -954
49920 301937 358898 -8608 13486 -951
49979 301962 358885 -8610 13492 -927
50036 301990 358874 -8601 13465 -912
50092 302036 358885 -8657 13486 -933
50147 302083 358934 -8649 13477 -924
50201 302146 358986 -8642 13474 -921
50255 302207 359022 -8639 13494 -924
50306 302242 359047 -8612 13498 -930
50355 302290 359082 -8576 13493 -945
50402 302337 359133 -8553 13519 -956
50457 302389 359144 -8542 13543 -965
50518 302434 359153 -8544 13538 -959
50571 302494 359201 -8602 13565 -971
50584 302450 359148 -8599 13544 -953
50518 302269 358959 -8599 13517 -934
50380 302048 358756 -8608 13515 -947
50208 301863 358650 -8594 13533 -950
50039 301732 358581 -8576 13519 -939
49907 301641 358538 -8564 13471 -961
49822 301596 358523 -8589 13460 -952
49781 301590 358496 -8637 13495 -904
49765 301591 358525 -8660 13520 -910
49771 301605 358544 -8653 13520 -933
49793 301621 358551 -8628 13479 -918
49831 301637 358552 -8611 13445 -906
49874 301693 358602 -8613 13466 -918
49902 301689 358597 -8609 13497 -935
49919 301690 358594 -8599 13492 -960
49916 301676 358593 -8606 13462 -972
49902 301654 358579 -8633 13459 -954
49895 301655 358593 -8651 13467 -953
49896 301676 358627 -8649 13462 -972
49906 301697 358645 -8677 13475 -973
49924 301732 358700 -8694 13480 -951
49953 301780 358732 -8680 13446 -933
49987 301819 358790 -8695 13463 -927
50024 301870 358835 -8684 13489 -930
50065 301951 358903 -8634 13453 -936
50113 302010 358962 -8617 13434 -917
50162 302052 359031 -8618 13444 -901
50211 302139 359088 -8615 13449 -911
50263 302201 359165 -8622 13458 -913
50319 302257 359189 -8671 13537 -932
50371 302320 359250 -8653 13488 -925
50425 302367 359296 -8649 13460 -923
50475 302417 359337 -8655 13474 -925
50524 302486 359383 -8638 13483 -931
50575 302552 359459 -8616 13493 -944
50626 302623 359526 -8605 13491 -954
50689 302693 359564 -8598 13470 -957
50751 302768 359645 -8601 13460 -954
50803 302851 359742 -8647 13508 -976
50813 302806 359697 -8638 13483 -990
50750 302650 359554 -8634 13476 -992
50615 302455 359429 -8662 13530 -979
50447 302335 359371 -8642 13522 -988
50293 302265 359364 -8607 13468 -1013
50168 302236 359413 -8641 13480 -983
50091 302223 359468 -8698 13499 -932
50058 302249 359516 -8695 13485 -948
50054 302260 359530 -8662 13484 -991
50062 302285 359552 -8650 13494 -993
50087 302314 359578 -8647 13472 -968
50129 302359 359615 -8634 13476 -979
50170 302399 359652 -8606 13539 -1019
50203 302412 359641 -8593 13571 -1024
50227 302387 359621 -8606 13558 -998
50230 302376 359607 -8613 13507 -980
50225 302349 359579 -8603 13437 -983
50223 302346 359580 -8601 13383 -999
50222 302367 359607 -8634 13387 -994
50233 302397 359638 -8700 13452 -989
50252 302463 359725 -8731 13458 -984
50280 302532 359810 -8722 13407 -965
50326 302565 359829 -8734 13406 -950
50372 302607 359833 -8735 13429 -933
50420 302628 359856 -8727 13408 -900
50466 302663 359862 -8735 13372 -880
50513 302691 359868 -8734 13394 -894
50561 302735 359885 -8724 13447 -909
50610 302770 359900 -8712 13452 -913
50660 302810 359916 -8754 13443 -916
50707 302815 359889 -8725 13426 -907
50758 302815 359836 -8711 13435 -928
50801 302806 359798 -8708 13422 -947
50844 302820 359797 -8675 13389 -938
50892 302870 359836 -8655 13396 -949
50934 302937 359898 -8659 13419 -968
50987 302960 359911 -8648 13414 -974
51046 302988 359869 -8638 13368 -974
51100 303029 359894 -8705 13368 -962
51114 302952 359813 -8724 13388 -951
51056 302778 359660 -8716 13463 -957
50921 302583 359530 -8697 13530 -975
50756 302441 359456 -8687 13504 -983
50605 302332 359399 -8705 13457 -942
50493 302251 359374 -8728 13423 -887
50418 302197 359347 -8722 13390 -897
50377 302181 359338 -8692 13380 -942
50359 302175 359358 -8684 13398 -960
50358 302168 359373 -8697 13439 -945
50370 302164 359350 -8668 13465 -941
50399 302190 359368 -8650 13491 -954
50433 302220 359403 -8656 13507 -979
50461 302212 359377 -8646 13470 -990
50476 302198 359375 -8655 13437 -961
50476 302186 359350 -8655 13432 -951
50474 302151 359331 -8647 13426 -969
50475 302136 359310 -8652 13421 -961
50479 302111 359292 -8673 13428 -944
50494 302120 359286 -8703 13471 -950
50513 302155 359318 -8702 13498 -960
50548 302193 359337 -8680 13497 -972
50584 302211 359355 -8675 13511 -987
50629 302246 359377 -8679 13512 -969
50676 302289 359418 -8676 13484 -935
50724 302329 359448 -8671 13459 -923
50771 302364 359461 -8674 13461 -910
50821 302382 359482 -8661 13455 -906
50871 302435 359501 -8647 13444 -919
50926 302467 359538 -8701 13477 -943
50984 302511 359557 -8683 13444 -925
51036 302552 359584 -8682 13451 -948
51087 302594 359612 -8687 13454 -966
51140 302637 359629 -8678 13429 -938
51192 302670 359643 -8677 13425 -920
51246 302712 359666 -8680 13421 -923
51296 302752 359706 -8678 13415 -933
51352 302808 359734 -8664 13414 -943
51412 302829 359721 -8711 13467 -952
51469 302879 359730 -8702 13450 -938
51510 302871 359736 -8711 13451 -922
51487 302737 359616 -8723 13479 -923
51394 302528 359416 -8685 13456 -947
51252 302334 359277 -8661 13440 -950
51094 302192 359195 -8683 13464 -905
50964 302099 359137 -8690 13453 -889
50875 302025 359123 -8681 13421 -907
50821 302004 359112 -8669 13430 -923
50794 301984 359124 -8661 13470 -917
50781 301969 359108 -8646 13466 -894
50770 301960 359114 -8635 13453 -909
50773 301932 359076 -8654 13487 -945
50792 301947 359082 -8668 13515 -952
50818 301993 359122 -8679 13504 -946
50839 301963 359108 -8688 13466 -930
50850 301955 359104 -8680 13420 -923
50851 301943 359109 -8672 13384 -930
50850 301946 359114 -8687 13390 -913
50854 301931 359100 -8728 13428 -905
50858 301935 359108 -8739 13435 -918
50873 301939 359106 -8712 13434 -933
50900 301964 359112 -8708 13471 -950
50931 301991 359146 -8709 13492 -949
50964 302011 359163 -8706 13469 -928
51009 302048 359187 -8705 13438 -914
51054 302085 359206 -8685 13413 -916
51100 302119 359252 -8669 13404 -910
51150 302180 359291 -8671 13412 -896
51198 302225 359338 -8698 13455 -876
51246 302266 359370 -8676 13405 -846
51293 302312 359415 -8683 13405 -842
51343 302369 359458 -8676 13423 -876
51392 302418 359488 -8653 13427 -903
51445 302472 359532 -8649 13426 -890
51488 302499 359526 -8651 13421 -880
51536 302527 359546 -8661 13414 -883
51587 302551 359544 -8671 13426 -895
51636 302608 359573 -8699 13479 -908
51689 302671 359650 -8713 13492 -910
51739 302726 359666 -8683 13463 -903
51803 302771 359685 -8667 13457 -913
51851 302815 359726 -8685 13450 -927
51857 302746 359656 -8694 13429 -908
51800 302562 359488 -8669 13391 -914
51679 302371 359317 -8673 13379 -920
51529 302211 359214 -8712 13420 -888
51386 302084 359142 -8736 13459 -884
51283 302005 359122 -8734 13485 -935
51215 301975 359097 -8690 13451 -913
51180 301970 359122 -8677 13439 -897
51167 301979 359171 -8672 13456 -926
51165 301998 359196 -8655 13451 -940
51163 301982 359186 -8633 13415 -942
51172 302010 359199 -8645 13398 -943
51193 302053 359244 -8665 13390 -924
51212 302066 359264 -8660 13372 -917
51225 302036 359226 -8737 13427 -951
51225 302019 359222 -8757 13440 -936
51222 301992 359199 -8749 13452 -953
51216 301979 359196 -8747 13493 -971
51218 301974 359184 -8736 13524 -964
51230 301984 359184 -8705 13492 -963
51245 302018 359203 -8693 13441 -969
51269 302048 359252 -8694 13409 -956
51295 302083 359301 -8698 13386 -941
51329 302151 359355 -8773 13413 -948
51363 302180 359389 -8761 13425 -949
51394 302220 359408 -8729 13395 -932
51423 302282 359466 -8730 13387 -939
51465 302331 359503 -8732 13406 -944
51504 302372 359541 -8706 13413 -942
51550 302425 359598 -8680 13420 -939
51592 302459 359625 -8662 13404 -949
51632 302492 359644 -8674 13398 -955
51674 302530 359651 -8692 13421 -961
51713 302572 359681 -8709 13442 -964
51750 302622 359721 -8705 13441 -962
51789 302667 359754 -8690 13430 -966
51827 302702 359781 -8702 13466 -987
51869 302760 359825 -8712 13498 -1007
51905 302825 359881 -8691 13459 -1007
51948 302865 359894 -8687 13441 -996
51988 302927 359946 -8695 13454 -987
52028 302987 359995 -8667 13408 -1006
52028 302900 359910 -8660 13355 -1013
51965 302724 359723 -8734 13407 -976
51827 302520 359565 -8776 13457 -943
51668 302351 359461 -8739 13430 -962
51528 302216 359380 -8714 13416 -983
51417 302140 359332 -8705 13417 -978
51339 302104 359329 -8675 13407 -972
51300 302074 359317 -8642 13407 -967
51274 302089 359338 -8633 13424 -965
51263 302115 359377 -8637 13417 -975
51261 302121 359379 -8657 13407 -973
51275 302140 359401 -8746 13485 -959
51286 302171 359426 -8733 13432 -962
51295 302176 359421 -8736 13419 -951
51290 302148 359403 -8756 13443 -957
51279 302124 359383 -8748 13436 -964
51265 302118 359366 -8724 13434 -951
51253 302106 359369 -8716 13426 -947
51239 302113 359378 -8718 13386 -941
51237 302130 359390 -8722 13364 -935
51244 302144 359414 -8770 13451 -939
51263 302174 359442 -8748 13448 -946
51285 302208 359459 -8706 13425 -939
51309 302253 359499 -8731 13422 -930
51335 302291 359521 -8755 13432 -906
51363 302331 359554 -8732 13416 -884
51396 302372 359583 -8707 13388 -877
51429 302419 359616 -8673 13369 -893
51465 302472 359657 -8656 13371 -898
51505 302530 359697 -8676 13404 -903
51543 302562 359732 -8704 13446 -930
51580 302603 359764 -8703 13459 -931
51617 302636 359767 -8687 13456 -925
51656 302665 359768 -8702 13482 -942
51687 302697 359792 -8718 13495 -950
51719 302730 359813 -8702 13477 -935
51757 302770 359823 -8680 13458 -930
51792 302809 359846 -8665 13447 -938
51827 302867 359879 -8656 13433 -937
51860 302917 359904 -8677 13442 -938
51900 302953 359905 -8722 13490 -946
51945 303004 359941 -8707 13456 -970
51980 303040 359969 -8666 13396 -972
51961 302926 359838 -8706 13429 -916
51868 302713 359647 -8753 13453 -889
51712 302475 359444 -8726 13426 -911
51525 302304 359335 -8677 13399 -925
51356 302175 359253 -8652 13388 -904
51222 302077 359198 -8643 13381 -886
51120 302038 359197 -8641 13402 -908
51055 302011 359202 -8696 13518 -966
51007 302006 359222 -8690 13502 -958
50968 302002 359242 -8702 13479 -956
50951 301994 359229 -8741 13465 -965
50943 302021 359279 -8754 13439 -961
50948 302068 359339 -8739 13427 -934
50946 302086 359349 -8736 13428 -917
50941 302067 359334 -8721 13417 -934
50926 302039 359307 -8707 13412 -956
50908 302020 359303 -8709 13428 -977
50887 302004 359292 -8712 13449 -990
50874 301996 359289 -8697 13439 -977
50868 302009 359284 -8697 13404 -953
50875 302036 359317 -8720 13406 -959
50889 302067 359356 -8730 13431 -955
50908 302106 359400 -8724 13417 -928
50932 302149 359431 -8712 13400 -903
50961 302187 359467 -8703 13388 -891
50994 302233 359488 -8693 13375 -903
51030 302264 359509 -8703 13391 -910
51065 302305 359552 -8719 13439 -918
51101 302357 359588 -8701 13459 -925
51137 302390 359609 -8684 13434 -934
51174 302430 359624 -8699 13439 -945
51206 302469 359658 -8717 13452 -937
51243 302510 359679 -8718 13446 -923
51279 302543 359710 -8719 13441 -915
51316 302590 359715 -8724 13419 -907
51348 302622 359737 -8708 13385 -909
51292 302329 359389 -8765 13394 -896
51097 302159 359269 -8681 13397 -909
50919 302025 359218 -8639 13396 -888
50771 301932 359174 -8612 13445 -902
50673 301879 359156 -8619 13511 -951
50612 301850 359140 -8631 13542 -984
50570 301827 359135 -8644 13539 -978
50537 301817 359144 -8669 13515 -926
50519 301805 359121 -8677 13455 -902
50515 301812 359133 -8671 13402 -916
50524 301842 359180 -8674 13477 -901
50526 301844 359181 -8649 13488 -921
50524 301825 359145 -8617 13485 -943
50515 301803 359155 -8625 13503 -955
50500 301801 359157 -8639 13499 -944
50485 301808 359161 -8644 13482 -933
50483 301807 359180 -8655 13481 -942
50489 301824 359173 -8674 13472 -936
50503 301828 359160 -8682 13460 -933
50523 301826 359130 -8686 13465 -935
50545 301817 359124 -8722 13490 -927
50572 301826 359115 -8720 13482 -904
50604 301854 359097 -8666 13438 -894
50638 301867 359099 -8648 13440 -924
50676 301901 359138 -8644 13471 -944
50717 301957 359184 -8622 13477 -938
50762 302010 359223 -8615 13471 -925
50806 302066 359287 -8620 13461 -905
50849 302133 359329 -8624 13465 -900
50891 302178 359374 -8629 13461 -921
50931 302218 359413 -8657 13462 -939
50972 302264 359438 -8677 13453 -928
51014 302303 359466 -8666 13421 -898
51054 302344 359504 -8677 13430 -907
51096 302397 359541 -8709 13461 -927
51133 302446 359572 -8715 13441 -930
51176 302494 359590 -8694 13406 -923
51216 302546 359637 -8683 13419 -923
51255 302606 359702 -8682 13462 -929
51307 302642 359682 -8649 13453 -961
51358 302672 359674 -8657 13462 -939
51407 302754 359772 -8677 13453 -928
51438 302744 359734 -8666 13421 -898
51398 302592 359553 -8677 13430 -907
51284 302359 359355 -8709 13461 -927
51114 302150 359202 -8715 13441 -930
50929 301992 359102 -8694 13406 -923
50773 301876 359023 -8683 13419 -923
50668 301821 359005 -8682 13462 -929
50605 301816 359036 -8649 13453 -961
50577 301816 359076 -8713 13477 -999
50571 301835 359115 -8752 13505 -929
50571 301855 359137 -8764 13504 -932
50582 301872 359152 -8759 13502 -975
50608 301933 359223 -8700 13486 -999
50637 301954 359244 -8627 13460 -1003
50653 301961 359246 -8587 13442 -993
50654 301950 359244 -8561 13423 -992
50646 301933 359237 -8566 13412 -998
50633 301927 359258 -8614 13452 -1014
50624 301919 359256 -8659 13488 -1030
50622 301932 359259 -8657 13459 -1031
50626 301944 359280 -8657 13435 -1047
50632 301972 359326 -8693 13468 -1060
50650 302021 359361 -8715 13494 -1048
50677 302055 359386 -8718 13468 -1030
50704 302080 359415 -8719 13430 -1029
50738 302104 359435 -8725 13408 -1036
50780 302131 359431 -8742 13389 -1014
50821 302170 359434 -8760 13377 -974
50859 302203 359468 -8790 13389 -953
50907 302249 359502 -8792 13393 -944
50956 302285 359514 -8765 13390 -922
51007 302304 359509 -8767 13411 -921
51055 302347 359527 -8762 13415 -920
51100 302395 359582 -8737 13408 -893
51144 302460 359626 -8722 13444 -872
51183 302500 359649 -8708 13471 -859
51230 302547 359681 -8692 13457 -858
51269 302581 359699 -8688 13448 -864
51311 302636 359741 -8714 13486 -876
51353 302670 359738 -8717 13497 -877
51403 302718 359733 -8678 13452 -862
51451 302767 359789 -8672 13450 -862
51485 302754 359778 -8697 13467 -877
51462 302613 359597 -8704 13449 -874
51356 302403 359417 -8699 13412 -854
51200 302221 359277 -8678 13393 -842
51034 302059 359169 -8664 13395 -847
50889 301943 359097 -8678 13405 -851
50790 301876 359068 -8711 13461 -861
50739 301863 359056 -8700 13451 -888
50721 301862 359078 -8679 13368 -906
50715 301882 359111 -8731 13381 -884
50725 301898 359138 -8800 13447 -857
50741 301922 359143 -8803 13448 -879
50772 301949 359167 -8761 13407 -904
50804 301984 359214 -8729 13378 -895
50831 301990 359215 -8711 13370 -886
50844 301979 359211 -8694 13375 -897
50845 301972 359183 -8747 13437 -949
50845 301956 359190 -8752 13419 -934
50845 301949 359173 -8773 13403 -918
50851 301984 359207 -8807 13406 -908
50869 302018 359267 -8807 13403 -917
50896 302060 359293 -8778 13394 -934
50930 302101 359328 -8768 13387 -914
50972 302154 359364 -8766 13388 -897
51018 302195 359395 -8748 13384 -918
51061 302255 359464 -8775 13447 -915
51106 302323 359549 -8773 13433 -915
51156 302371 359576 -8757 13390 -910
51209 302401 359593 -8778 13403 -913
51263 302458 359607 -8794 13429 -912
51311 302509 359637 -8783 13407 -888
51361 302554 359694 -8775 13351 -865
51414 302608 359729 -8768 13293 -849
51465 302651 359756 -8737 13293 -858
51514 302710 359776 -8722 13380 -879
51562 302755 359813 -8749 13484 -902
51609 302808 359857 -8747 13492 -908
51655 302876 359900 -8719 13441 -898
51710 302921 359936 -8736 13406 -885
51759 302987 360002 -8761 13386 -881
51806 303049 360035 -8749 13374 -886
51863 303101 360071 -8738 13377 -885
51916 303167 360127 -8732 13401 -897
51950 303143 360093 -8725 13411 -923
51924 302981 359892 -8735 13403 -926
51821 302749 359670 -8751 13424 -930
51671 302557 359507 -8729 13424 -928
51510 302407 359417 -8689 13393 -909
51377 302306 359377 -8691 13411 -896
51281 302265 359375 -8710 13430 -896
51235 302256 359406 -8709 13419 -914
51216 302260 359419 -8711 13424 -892
51220 302287 359443 -8735 13431 -853
51227 302292 359455 -8745 13417 -857
51239 302298 359462 -8716 13392 -870
51264 302329 359473 -8673 13443 -900
51289 302355 359491 -8647 13432 -887
51316 302344 359461 -8643 13452 -907
51329 302323 359424 -8669 13487 -940
51337 302310 359413 -8686 13481 -957
51339 302287 359399 -8696 13449 -953
51341 302290 359407 -8708 13419 -922
51350 302307 359434 -8706 13389 -905
51371 302328 359455 -8709 13364 -919
51395 302376 359495 -8782 13441 -943
51433 302432 359543 -8758 13433 -949
51476 302463 359570 -8740 13422 -959
51526 302498 359575 -8739 13435 -964
51572 302534 359603 -8738 13434 -948
51625 302562 359616 -8724 13413 -931
51680 302624 359657 -8715 13408 -925
51735 302650 359688 -8718 13397 -915
51786 302699 359705 -8729 13375 -897
51843 302731 359727 -8750 13387 -894
51896 302771 359742 -8770 13426 -898
51949 302821 359769 -8758 13417 -882
52000 302861 359790 -8723 13377 -869
52054 302896 359810 -8721 13386 -875
52107 302953 359855 -8733 13410 -885
52162 303010 359891 -8734 13404 -873
52216 303048 359906 -8724 13397 -869
52266 303090 359941 -8707 13403 -886
52323 303139 359955 -8693 13403 -901
52377 303186 359991 -8697 13420 -914
52429 303248 360053 -8728 13472 -932
52488 303297 360070 -8737 13470 -928
52555 303342 360095 -8722 13439 -898
52605 303381 360133 -8735 13454 -887
52631 303279 360016 -8752 13476 -878
52585 303078 359789 -8725 13456 -867
52485 302868 359600 -8696 13413 -861
52348 302674 359454 -8704 13400 -850
52218 302563 359384 -8703 13407 -834
52117 302479 359351 -8680 13378 -835
52055 302443 359324 -8761 13493 -875
52027 302430 359325 -8769 13506 -849
52021 302424 359326 -8753 13472 -861
52021 302428 359320 -8738 13445 -866
52031 302426 359331 -8707 13420 -848
52050 302449 359340 -8674 13405 -837
52079 302458 359339 -8651 13410 -849
52102 302466 359330 -8638 13433 -871
52112 302438 359290 -8652 13445 -889
52122 302397 359260 -8740 13480 -928
52126 302367 359211 -8740 13438 -913
52127 302342 359174 -8731 13394 -911
52134 302322 359153 -8763 13401 -924
52145 302317 359147 -8774 13406 -912
52163 302326 359155 -8749 13391 -899
52194 302312 359114 -8725 13387 -906
52228 302304 359078 -8702 13386 -914
52269 302307 359027 -8686 13388 -909
52317 302315 359008 -8703 13411 -910
52366 302337 359018 -8747 13442 -926
52418 302351 358979 -8780 13445 -901
52468 302387 358966 -8778 13426 -865
52522 302384 358958 -8780 13432 -865
52572 302396 358934 -8779 13433 -871
52627 302404 358893 -8745 13397 -862
52674 302429 358885 -8714 13362 -851
52724 302465 358902 -8701 13350 -847
52775 302501 358937 -8704 13373 -846
52827 302544 358974 -8714 13402 -838
52881 302576 358981 -8721 13434 -850
52937 302606 358950 -8725 13439 -849
52989 302624 358939 -8718 13409 -826
53043 302649 358964 -8726 13419 -828
53094 302687 358994 -8747 13449 -845
53143 302741 359045 -8735 13448 -860
53200 302753 359014 -8718 13422 -871
53262 302776 358983 -8714 13401 -864
53316 302817 358990 -8709 13389 -840
53356 302779 358941 -8702 13386 -836
53341 302609 358723 -8712 13437 -860
53272 302407 358535 -8707 13435 -830
53159 302228 358401 -8691 13416 -835
53047 302093 358301 -8700 13407 -867
52957 302016 358258 -8733 13424 -847
52893 301977 358259 -8756 13449 -803
52865 301965 358286 -8737 13447 -818
52860 301961 358304 -8689 13430 -848
52862 301959 358300 -8647 13423 -835
52876 301962 358285 -8662 13477 -859
52893 301970 358298 -8655 13486 -877
52923 302006 358334 -8656 13493 -894
52946 302001 358325 -8692 13496 -908
52965 301979 358292 -8722 13478 -889
52973 301957 358260 -8705 13415 -869
52973 301932 358218 -8691 13375 -870
52971 301922 358208 -8694 13398 -864
52965 301900 358182 -8690 13433 -864
52973 301890 358168 -8732 13481 -913
52984 301908 358170 -8734 13470 -896
53009 301922 358157 -8711 13433 -861
53033 301935 358177 -8731 13428 -860
53059 301962 358188 -8749 13434 -855
53091 301999 358221 -8735 13398 -827
53122 302026 358228 -8726 13368 -809
53153 302051 358239 -8732 13358 -814
53192 302095 358260 -8726 13372 -823
53231 302130 358310 -8718 13393 -829
53270 302180 358334 -8737 13430 -844
53314 302203 358343 -8742 13439 -852
53353 302236 358372 -8722 13411 -864
53395 302273 358399 -8712 13433 -894
53434 302299 358401 -8714 13466 -904
53475 302332 358423 -8709 13438 -886
53515 302370 358449 -8703 13393 -883
53556 302420 358478 -8699 13400 -888
53592 302472 358540 -8698 13410 -883
53632 302515 358555 -8687 13404 -877
53683 302530 358534 -8694 13454 -895
53728 302585 358610 -8714 13470 -909
53765 302609 358622 -8719 13425 -886
53768 302487 358463 -8744 13438 -864
53708 302276 358222 -8751 13451 -869
53593 302093 358068 -8708 13409 -885
53462 301953 357961 -8704 13414 -860
53346 301845 357889 -8744 13472 -806
53247 301774 357856 -8730 13479 -804
53189 301755 357854 -8675 13438 -842
53159 301761 357869 -8663 13447 -888
53146 301765 357893 -8634 13427 -871
53137 301766 357896 -8621 13422 -877
53145 301789 357903 -8658 13438 -892
53158 301832 357936 -8695 13427 -881
53169 301839 357950 -8705 13394 -863
53175 301829 357918 -8712 13363 -840
53172 301794 357882 -8714 13350 -814
53160 301780 357863 -8723 13367 -820
53144 301763 357835 -8745 13410 -843
53128 301734 357813 -8750 13448 -861
53120 301725 357788 -8735 13441 -865
53122 301743 357792 -8727 13427 -858
53132 301757 357810 -8733 13455 -862
53143 301786 357831 -8741 13464 -865
53159 301806 357815 -8732 13431 -859
53179 301808 357799 -8728 13406 -853
53202 301819 357796 -8739 13391 -854
53229 301836 357808 -8743 13381 -866
53261 301842 357785 -8749 13391 -882
53288 301844 357751 -8770 13419 -885
53319 301856 357733 -8767 13397 -877
53348 301862 357721 -8747 13340 -862
53375 301875 357694 -8763 13355 -853
53406 301888 357694 -8784 13381 -855
53436 301936 357704 -8766 13366 -847
53466 301952 357710 -8736 13351 -860
53504 301975 357700 -8731 13354 -885
53537 302017 357738 -8723 13367 -893
53570 302050 357751 -8707 13399 -901
53600 302088 357752 -8737 13447 -915
53630 302132 357796 -8744 13462 -910
53663 302185 357844 -8705 13442 -895
53711 302219 357839 -8707 13455 -891
53751 302273 357888 -8712 13493 -897
53775 302260 357877 -8678 13493 -896
53746 302090 357707 -8660 13489 -871
53642 301893 357491 -8645 13487 -862
53479 301681 357351 -8628 13447 -884
53286 301524 357244 -8636 13434 -881
53105 301394 357173 -8738 13505 -873
52956 301316 357128 -8705 13464 -880
52850 301279 357137 -8675 13455 -866
52772 301285 357149 -8672 13463 -839
52717 301256 357169 -8654 13443 -831
52672 301255 357167 -8628 13435 -842
52632 301216 357146 -8616 13452 -859
52606 301224 357134 -8615 13462 -875
52582 301215 357160 -8634 13478 -873
52565 301221 357139 -8722 13491 -862
52541 301172 357084 -8719 13440 -855
52510 301150 357062 -8717 13406 -824
52472 301152 357069 -8750 13434 -829
52440 301146 357079 -8741 13456 -861
52415 301139 357096 -8684 13435 -863
52394 301154 357099 -8669 13417 -844
52380 301169 357111 -8689 13403 -820
52379 301182 357134 -8704 13407 -810
52388 301216 357155 -8711 13436 -830
52402 301260 357192 -8744 13468 -848
52423 301282 357201 -8749 13466 -833
52441 301327 357241 -8730 13422 -813
52462 301372 357286 -8733 13420 -830
52491 301410 357308 -8731 13430 -841
52524 301453 357328 -8714 13394 -825
52552 301490 357355 -8713 13377 -789
52585 301522 357371 -8716 13377 -766
52618 301570 357395 -8693 13383 -787
52652 301623 357439 -8685 13408 -815
52678 301661 357475 -8728 13442 -829
52713 301700 357497 -8752 13439 -821
52746 301733 357503 -8729 13410 -822
52778 301760 357506 -8731 13437 -851
52808 301825 357558 -8743 13481 -862
52836 301875 357618 -8723 13477 -846
52879 301931 357635 -8689 13430 -841
52920 301974 357669 -8670 13399 -845
52951 302012 357696 -8681 13402 -813
52947 301915 357585 -8694 13390 -806
52863 301715 357374 -8707 13413 -905
52711 301493 357182 -8731 13470 -866
52524 301313 357029 -8746 13522 -848
52343 301170 356924 -8740 13537 -881
52193 301079 356896 -8695 13499 -900
52088 301038 356872 -8643 13451 -874
52022 301002 356848 -8608 13433 -854
51970 300998 356872 -8599 13450 -850
51942 301006 356909 -8608 13458 -860
51923 300998 356910 -8711 13468 -906
51909 300993 356902 -8750 13460 -883
51909 301023 356949 -8744 13430 -874
51910 301031 356959 -8747 13419 -897
51903 301016 356938 -8757 13426 -891
51885 300988 356913 -8745 13418 -870
51867 300956 356891 -8720 13423 -873
51845 300956 356898 -8706 13437 -868
51824 300965 356918 -8702 13435 -867
51819 300973 356940 -8715 13446 -866
51822 301000 356974 -8757 13479 -853
51832 301033 357013 -8764 13463 -845
51856 301076 357041 -8749 13413 -849
51883 301106 357094 -8770 13411 -858
51912 301153 357134 -8766 13408 -836
51943 301190 357160 -8729 13365 -793
51970 301238 357194 -8725 13353 -790
52002 301275 357227 -8728 13369 -799
52032 301309 357253 -8711 13375 -798
52067 301354 357279 -8701 13383 -813
52098 301383 357314 -8729 13418 -837
52131 301421 357342 -8745 13421 -841
52159 301456 357390 -8721 13378 -830
52186 301476 357386 -8722 13371 -835
52216 301516 357404 -8739 13395 -850
52244 301541 357417 -8729 13406 -853
52274 301586 357434 -8708 13398 -842
52311 301606 357434 -8701 13387 -835
52349 301624 357403 -8714 13390 -827
52381 301677 357466 -8731 13398 -815
52404 301664 357434 -8732 13414 -843
52381 301531 357282 -8720 13416 -874
52266 301334 357093 -8731 13418 -856
52109 301156 356970 -8763 13472 -824
51933 300989 356871 -8750 13520 -854
51788 300881 356776 -8707 13526 -904
51681 300809 356739 -8676 13524 -905
51626 300778 356724 -8648 13528 -896
51594 300772 356725 -8625 13541 -912
51573 300769 356755 -8620 13534 -937
51565 300781 356747 -8654 13521 -965
51567 300807 356770 -8679 13499 -940
51585 300834 356814 -8682 13458 -921
51601 300870 356861 -8688 13435 -922
51613 300866 356866 -8707 13416 -904
51613 300868 356868 -8725 13380 -890
51598 300860 356873 -8732 13366 -889
51592 300859 356886 -8719 13387 -890
51581 300882 356928 -8700 13416 -908
51582 300903 356958 -8697 13429 -923
51591 300918 356978 -8739 13452 -910
51611 300961 357021 -8770 13448 -871
51637 300991 357035 -8769 13413 -850
51665 301040 357071 -8791 13421 -863
51704 301084 357124 -8799 13441 -873
51739 301141 357179 -8765 13417 -869
51775 301194 357208 -8740 13393 -864
51817 301257 357271 -8734 13374 -851
51859 301310 357343 -8734 13344 -840
51900 301368 357383 -8733 13330 -849
51944 301407 357419 -8745 13360 -872
51991 301448 357457 -8750 13400 -880
52038 301492 357482 -8737 13409 -864
52082 301533 357525 -8751 13414 -863
52123 301575 357545 -8767 13423 -865
52166 301615 357571 -8746 13424 -865
52212 301665 357607 -8717 13419 -870
52257 301715 357646 -8697 13427 -872
52301 301798 357718 -8684 13428 -868
52353 301839 357743 -8672 13409 -871
52407 301894 357771 -8724 13465 -891
52452 301945 357832 -8693 13433 -902
52465 301883 357757 -8686 13435 -922
52401 301714 357576 -8734 13482 -895
52265 301524 357425 -8750 13483 -863
52095 301356 357320 -8722 13439 -869
51930 301229 357232 -8693 13414 -872
51809 301139 357191 -8667 13426 -864
51729 301105 357178 -8643 13444 -860
51690 301092 357185 -8694 13495 -916
51667 301086 357190 -8701 13469 -906
51655 301071 357214 -8711 13451 -896
51644 301085 357215 -8741 13463 -901
51644 301074 357210 -8734 13449 -894
51656 301110 357260 -8705 13400 -893
51669 301152 357309 -8704 13381 -893
51684 301157 357317 -8719 13385 -879
51689 301147 357316 -8729 13400 -868
51692 301134 357317 -8751 13463 -899
51698 301137 357303 -8750 13452 -888
51705 301140 357335 -8746 13409 -857
51720 301174 357372 -8758 13422 -870
51744 301198 357382 -8764 13443 -879
51773 301232 357421 -8748 13416 -859
51809 301274 357461 -8744 13393 -848
51851 301315 357491 -8739 13377 -838
51894 301354 357523 -8732 13355 -831
51944 301406 357567 -8744 13351 -838
51989 301437 357598 -8771 13392 -860
52038 301497 357618 -8770 13402 -867
52087 301534 357659 -8744 13374 -872
52143 301580 357686 -8751 13397 -888
52195 301626 357710 -8756 13440 -889
52252 301653 357742 -8737 13439 -889
52303 301705 357778 -8719 13419 -885
52350 301760 357787 -8699 13408 -888
52399 301782 357804 -8691 13399 -886
52448 301825 357828 -8690 13399 -876
52501 301867 357853 -8727 13440 -883
52554 301913 357893 -8700 13422 -876
52608 301984 357943 -8704 13450 -865
52661 302046 358000 -8715 13453 -884
52722 302087 358014 -8724 13439 -896
52780 302152 358079 -8747 13440 -862
52817 302143 358083 -8757 13427 -829
52788 302039 357969 -8746 13389 -832
52694 301889 357861 -8714 13361 -843
52564 301781 357845 -8690 13399 -876
52439 301725 357867 -8727 13440 -883
52351 301678 357876 -8700 13422 -876
52307 301673 357865 -8704 13450 -865
52292 301644 357834 -8715 13453 -884
52285 301625 357832 -8724 13439 -896
52290 301619 357817 -8747 13440 -862
52293 301597 357799 -8757 13427 -829
52310 301585 357766 -8746 13389 -832
52332 301596 357769 -8714 13361 -843
52363 301621 357792 -8723 13435 -855
52394 301620 357761 -8690 13441 -870
52417 301604 357747 -8663 13448 -882
52438 301612 357739 -8678 13467 -900
52457 301632 357760 -8706 13462 -894
52475 301651 357780 -8721 13441 -873
52498 301666 357795 -8720 13410 -857
52534 301686 357803 -8720 13371 -856
52576 301708 357813 -8725 13359 -864
52620 301756 357857 -8759 13392 -853
52679 301799 357850 -8780 13419 -857
52732 301825 357868 -8745 13405 -876
52785 301868 357888 -8719 13386 -883
52841 301905 357881 -8745 13404 -896
52902 301913 357848 -8773 13432 -904
52959 301972 357905 -8753 13438 -889
53016 302019 357957 -8731 13427 -878
53073 302054 357957 -8717 13391 -884
53130 302067 357930 -8712 13348 -884
53190 302107 357925 -8726 13349 -881
53251 302143 357959 -8751 13394 -896
53310 302213 358026 -8739 13418 -902
53368 302265 358065 -8706 13374 -878
53432 302328 358105 -8700 13343 -888
53490 302382 358162 -8694 13415 -938
53545 302464 358214 -8676 13536 -980
53609 302511 358262 -8665 13635 -998
53672 302585 358329 -8654 13623 -986
53739 302650 358362 -8645 13525 -955
53807 302682 358362 -8647 13443 -917
53873 302743 358404 -8687 13421 -898
53915 302754 358434 -8716 13446 -903
53910 302669 358336 -8694 13445 -915
53852 302512 358211 -8683 13447 -928
53757 302370 358083 -8691 13468 -941
53651 302256 358019 -8678 13465 -936
53574 302187 357981 -8670 13455 -917
53533 302163 357988 -8668 13464 -909
53520 302181 358016 -8634 13455 -907
53532 302214 358065 -8631 13408 -917
53550 302264 358106 -8736 13465 -891
53576 302262 358081 -8718 13483 -884
53611 302265 358066 -8699 13486 -894
53644 302302 358098 -8704 13476 -891
53678 302349 358154 -8680 13447 -879
53704 302352 358128 -8620 13434 -905
53731 302317 358057 -8576 13460 -950
53751 302312 358034 -8565 13501 -982
53767 302323 358054 -8588 13530 -996
53786 302323 358028 -8666 13554 -963
53810 302316 358001 -8643 13496 -951
53839 302325 357982 -8617 13458 -946
53871 302342 357969 -8635 13489 -949
53909 302358 357969 -8657 13536 -954
53952 302381 357969 -8640 13527 -961
53993 302402 357974 -8622 13484 -972
54036 302424 357988 -8627 13471 -966
54080 302457 358009 -8648 13477 -945
54127 302483 358013 -8674 13481 -926
54173 302496 358004 -8705 13494 -915
54221 302507 358042 -8707 13480 -903
54269 302527 358036 -8684 13463 -883
54312 302551 358024 -8706 13468 -857
54355 302577 358027 -8721 13450 -840
54399 302593 358029 -8696 13416 -835
54445 302641 358039 -8684 13407 -827
54490 302666 358061 -8680 13424 -828
54537 302702 358089 -8698 13424 -815
54584 302741 358092 -8718 13398 -806
54627 302777 358104 -8739 13408 -814
54674 302821 358120 -8760 13401 -804
54721 302851 358157 -8760 13347 -778
54777 302895 358140 -8768 13336 -763
54825 302954 358214 -8780 13368 -785
54871 302978 358244 -8757 13378 -826
54889 302897 358112 -8743 13384 -842
54856 302743 357955 -8770 13389 -825
54775 302617 357835 -8799 13373 -796
54681 302512 357757 -8812 13362 -787
54593 302449 357720 -8817 13385 -857
54533 302429 357732 -8777 13330 -877
54504 302440 357769 -8820 13362 -881
54493 302455 357786 -8888 13455 -866
54497 302478 357827 -8883 13480 -878
54507 302494 357835 -8838 13421 -896
54519 302509 357837 -8795 13351 -881
54545 302541 357870 -8775 13315 -870
54566 302562 357900 -8775 13308 -863
54586 302559 357875 -8799 13334 -874
54593 302537 357860 -8833 13372 -890
54594 302520 357846 -8837 13369 -902
54593 302517 357840 -8846 13343 -903
54595 302532 357856 -8861 13348 -899
54604 302547 357876 -8848 13356 -920
54619 302584 357912 -8841 13355 -920
54642 302619 357938 -8849 13362 -906
54671 302658 357977 -8857 13363 -902
54706 302691 358013 -8865 13363 -910
54735 302716 358016 -8871 13369 -926
54768 302735 358005 -8884 13375 -931
54807 302757 358022 -8872 13350 -914
54842 302787 358044 -8850 13329 -893
54879 302823 358070 -8867 13374 -894
54913 302867 358084 -8885 13397 -887
54949 302883 358093 -8870 13353 -861
54984 302923 358119 -8845 13319 -839
55024 302951 358130 -8823 13300 -829
55063 302976 358139 -8812 13296 -832
55102 303003 358156 -8824 13368 -834
55136 303046 358173 -8792 13378 -837
55172 303074 358183 -8759 13365 -839
55207 303111 358212 -8771 13368 -850
55247 303139 358221 -8805 13408 -860
55283 303178 358254 -8792 13426 -869
55320 303231 358283 -8769 13404 -873
55366 303261 358265 -8782 13377 -877
55411 303311 358320 -8797 13357 -873
55448 303314 358303 -8802 13367 -885
55444 303196 358169 -8807 13416 -902
55381 303039 358015 -8787 13431 -907
55266 302874 357877 -8766 13391 -901
55124 302727 357760 -8773 13383 -893
54990 302606 357664 -8785 13388 -898
54882 302503 357557 -8785 13344 -898
54804 302460 357525 -8787 13327 -864
54742 302406 357462 -8801 13359 -823
54702 302379 357452 -8793 13374 -818
54661 302362 357432 -8777 13383 -821
54627 302342 357418 -8772 13403 -818
54601 302320 357389 -8749 13387 -796
54581 302317 357397 -8706 13365 -769
54558 302309 357379 -8670 13370 -773
54534 302286 357360 -8665 13400 -792
54507 302259 357344 -8667 13422 -809
54478 302248 357349 -8675 13415 -828
54452 302241 357353 -8707 13411 -840
54424 302238 357362 -8734 13395 -849
54406 302236 357360 -8765 13379 -865
54402 302246 357356 -8814 13399 -904
54396 302255 357355 -8851 13417 -939
54400 302280 357386 -8843 13410 -967
54408 302292 357394 -8816 13404 -999
54421 302312 357406 -8819 13417 -1039
54439 302334 357398 -8840 13433 -1064
54461 302353 357389 -8833 13407 -1072
54482 302346 357366 -8812 13376 -1087
54502 302361 357360 -8801 13359 -1074
54524 302374 357357 -8795 13332 -1068
54550 302386 357355 -8841 13376 -1124
54576 302407 357335 -8837 13364 -1116
54598 302416 357337 -8828 13332 -1104
54614 302434 357316 -8850 13339 -1104
54630 302426 357294 -8881 13358 -1120
54644 302431 357250 -8860 13346 -1141
54655 302429 357224 -8830 13337 -1167
54670 302432 357197 -8823 13330 -1183
54687 302444 357201 -8837 13325 -1193
54703 302467 357202 -8879 13356 -1204
54726 302481 357189 -8911 13402 -1228
54752 302484 357160 -8907 13394 -1252
54781 302508 357161 -8878 13357 -1244
54795 302481 357116 -8886 13335 -1234
54762 302323 356935 -8899 13337 -1243
54658 302129 356711 -8881 13339 -1247
54502 301926 356536 -8875 13336 -1214
54323 301754 356426 -8879 13339 -1183
54154 301621 356371 -8855 13311 -1181
54022 301540 356386 -8846 13293 -1209
53928 301494 356372 -8899 13328 -1201
53849 301453 356338 -8924 13366 -1130
53785 301422 356333 -8899 13360 -1112
53727 301393 356306 -8860 13342 -1123
53675 301363 356282 -8838 13353 -1121
53637 301352 356259 -8815 13359 -1116
53616 301359 356280 -8788 13354 -1100
53587 301347 356278 -8779 13352 -1092
53558 301330 356257 -8780 13344 -1096
53522 301278 356210 -8799 13329 -1093
53482 301253 356192 -8871 13382 -1075
53446 301233 356148 -8859 13335 -1069
53415 301224 356149 -8847 13284 -1061
53400 301236 356143 -8892 13301 -1047
53389 301264 356171 -8927 13321 -1031
53386 301275 356196 -8906 13309 -1026
53392 301301 356223 -8875 13307 -1028
53401 301328 356250 -8839 13298 -1029
53411 301355 356264 -8815 13301 -1022
53428 301387 356279 -8860 13402 -1038
53448 301426 356316 -8866 13380 -1018
53469 301449 356340 -8848 13358 -1003
53495 301478 356346 -8847 13362 -997
53515 301512 356364 -8874 13353 -1004
53536 301555 356388 -8886 13315 -996
53560 301590 356428 -8871 13278 -995
53583 301631 356451 -8850 13276 -1009
53608 301669 356486 -8821 13283 -1021
53634 301700 356507 -8828 13318 -1040
53654 301730 356525 -8840 13323 -1052
53679 301759 356551 -8838 13319 -1059
53706 301790 356560 -8837 13342 -1076
53730 301824 356578 -8851 13357 -1091
53759 301859 356608 -8851 13341 -1100
53787 301905 356643 -8840 13325 -1099
53822 301935 356622 -8836 13321 -1101
53858 301969 356659 -8826 13313 -1105
53888 301961 356627 -8827 13310 -1118
53865 301860 356510 -8851 13343 -1121
53772 301690 356341 -8859 13364 -1107
53619 301501 356193 -8841 13346 -1091
53439 301350 356114 -8826 13335 -1108
53276 301236 356044 -8848 13356 -1120
53147 301159 356015 -8887 13391 -1075
53052 301123 356005 -8876 13391 -1057
52987 301114 356012 -8840 13378 -1076
52942 301112 356026 -8798 13361 -1085
52909 301094 356016 -8756 13347 -1082
52886 301086 356003 -8754 13440 -1111
52870 301080 355989 -8737 13419 -1101
52863 301102 356018 -8739 13414 -1094
52853 301093 356017 -8776 13436 -1076
52837 301067 355990 -8796 13431 -1052
52815 301057 355980 -8783 13372 -1035
52792 301041 355967 -8771 13313 -1033
52769 301045 355952 -8777 13303 -1018
52759 301038 355979 -8791 13330 -1004
52753 301045 355981 -8807 13422 -1054
52755 301062 355977 -8785 13395 -1046
52767 301068 355992 -8776 13353 -1048
52780 301092 355992 -8813 13374 -1048
52802 301115 356023 -8842 13412 -1042
52825 301148 356032 -8837 13392 -1041
52854 301196 356072 -8828 13349 -1039
52888 301242 356097 -8823 13328 -1029
52926 301273 356110 -8825 13319 -1017
52963 301300 356130 -8837 13347 -1035
53000 301338 356140 -8828 13348 -1029
53037 301374 356150 -8811 13331 -1018
53077 301414 356183 -8815 13324 -1025
53116 301460 356211 -8826 13350 -1032
53152 301497 356235 -8814 13364 -1050
53192 301522 356251 -8789 13347 -1067
53227 301561 356265 -8772 13327 -1070
53265 301588 356287 -8782 13332 -1067
53299 301637 356304 -8817 13366 -1065
53336 301674 356329 -8853 13428 -1085
53371 301726 356377 -8849 13434 -1077
53409 301773 356414 -8807 13390 -1065
53458 301808 356407 -8788 13372 -1086
53503 301875 356466 -8808 13387 -1104
53548 301913 356495 -8811 13408 -1091
53560 301845 356425 -8776 13390 -1082
53505 301679 356239 -8739 13348 -1107
53386 301511 356082 -8758 13333 -1097
53226 301364 355968 -8813 13369 -1052
53068 301231 355911 -8851 13435 -1040
52943 301145 355846 -8837 13456 -1069
52855 301104 355841 -8783 13418 -1090
52808 301115 355838 -8751 13384 -1074
52785 301129 355869 -8753 13393 -1060
52771 301145 355894 -8746 13417 -1059
52768 301145 355880 -8722 13416 -1063
52777 301170 355908 -8720 13407 -1073
52792 301204 355973 -8748 13398 -1063
52801 301224 355985 -8770 13390 -1038
52802 301215 355967 -8805 13385 -1073
52791 301189 355930 -8795 13370 -1064
52774 301165 355897 -8784 13366 -1041
52764 301135 355857 -8802 13384 -1052
52764 301151 355924 -8822 13404 -1080
52779 301184 355952 -8811 13392 -1084
52796 301263 356041 -8806 13369 -1067
52817 301389 356202 -8814 13355 -1041
52844 301579 356484 -8820 13345 -1015
52880 301738 356720 -8850 13353 -1044
52927 301867 356849 -8828 13342 -1027
52982 301970 356963 -8795 13332 -1011
53033 302075 357058 -8793 13325 -1011
53093 302138 357099 -8802 13336 -1020
53151 302218 357168 -8782 13342 -1016
53210 302271 357192 -8754 13335 -1020
53261 302295 357200 -8744 13337 -1043
53309 302350 357222 -8742 13342 -1053
53360 302415 357269 -8764 13367 -1056
53409 302473 357322 -8807 13403 -1067
53461 302545 357387 -8815 13390 -1066
53510 302598 357436 -8807 13359 -1045
53561 302684 357535 -8803 13357 -1042
53608 302765 357637 -8801 13384 -1066
53661 302855 357698 -8793 13393 -1076
53719 302902 357698 -8787 13379 -1063
53778 303006 357809 -8808 13381 -1040
53838 303118 357949 -8818 13352 -1042
53869 303171 358027 -8791 13293 -1070
53839 303125 358017 -8818 13298 -1075
53750 303093 358078 -8878 13351 -1050
53627 303118 358202 -8875 13373 -1045
53514 303108 358261 -8835 13354 -1072
53429 303125 358310 -8830 13356 -1084
53381 303195 358434 -8826 13378 -1064
53366 303305 358559 -8799 13367 -1056
53374 303420 358715 -8790 13357 -1079
53390 303556 358917 -8786 13368 -1097
53414 303694 359068 -8800 13351 -1095
53450 303822 359226 -8911 13365 -1083
53495 304006 359480 -8908 13316 -1068
53528 304229 359784 -8928 13255 -1067
53556 304437 360122 -8976 13260 -1071
53568 304792 360636 -9012 13281 -1071
53571 305127 361080 -9029 13203 -1067
53587 305423 361443 -9054 13118 -1049
53615 305688 361760 -9062 13124 -1028
53657 305865 361934 -9096 13141 -1032
53705 306004 362057 -9134 13227 -1104
53755 306096 362115 -9128 13234 -1110
53818 306134 362124 -9123 13163 -1106
53887 306172 362096 -9125 13193 -1118
53961 306198 362032 -9135 13266 -1108
54036 306192 361929 -9160 13225 -1062
54117 306223 361915 -9175 13161 -1035
54190 306288 361949 -9189 13154 -1042
54265 306300 361891 -9218 13171 -1017
54340 306263 361725 -9240 13154 -980
54427 306202 361534 -9245 13104 -968
54508 306230 361531 -9235 13074 -977
54585 306309 361615 -9236 13060 -986
54645 306384 361703 -9242 13043 -991
54707 306444 361773 -9252 13064 -1001
54768 306504 361803 -9251 13103 -1002
54836 306558 361842 -9220 13127 -994
54897 306633 361911 -9186 13130 -996
54961 306693 361963 -9169 13111 -1002
55027 306768 362008 -9182 13135 -1007
55103 306811 362026 -9195 13184 -1009
55175 306898 362103 -9166 13169 -1026
55221 306904 362132 -9153 13145 -1046
55205 306806 362051 -9190 13168 -1029
55126 306695 361976 -9213 13221 -1033
55016 306582 361939 -9201 13221 -1045
54906 306501 361906 -9184 13164 -1030
54816 306454 361892 -9161 13141 -1012
54757 306389 361844 -9125 13128 -987
54729 306405 361891 -9110 13109 -983
54719 306466 362022 -9181 13141 -1052
54717 306561 362160 -9214 13115 -1044
54728 306585 362180 -9251 13088 -1004
54746 306594 362156 -9278 13068 -977
54777 306592 362115 -9316 13057 -984
54812 306550 361971 -9358 13048 -982
54853 306434 361751 -9407 12999 -949
54893 306348 361600 -9419 12987 -952
54915 306308 361527 -9393 13041 -994
54935 306254 361442 -9407 13063 -986
54962 306174 361308 -9463 13037 -930
54989 306165 361280 -9506 13014 -888
55021 306157 361264 -9527 12979 -854
55061 306128 361274 -9574 12879 -776
55099 306100 361195 -9641 12795 -711
55141 306083 361143 -9693 12764 -673
55194 306098 361136 -9736 12752 -635
55238 306131 361176 -9787 12711 -608
55289 306186 361234 -9828 12662 -581
55341 306241 361289 -9832 12683 -573
55390 306293 361358 -9823 12723 -571
55442 306350 361414 -9828 12699 -560
55507 306375 361410 -9835 12687 -563
55568 306374 361346 -9846 12719 -558
55625 306391 361323 -9872 12696 -528
55684 306423 361361 -9939 12601 -471
55736 306463 361421 -10005 12510 -448
55775 306509 361529 -9976 12552 -567
55772 306751 361997 -9809 12837 -822
55750 306915 362224 -9678 13242 -908
55760 306765 361867 -9910 13252 -513
55770 306526 361485 -10272 12682 -134
55785 306370 361286 -10386 11983 -233
55785 306491 361567 -10143 11769 -683
55771 306670 361830 -9607 12463 -1149
55782 306576 361625 -9258 13649 -1161
55761 306384 361302 -9229 14245 -848
55701 306066 360815 -9430 13836 -557
55608 305826 360536 -9774 12972 -420
55481 305652 360430 -10042 12213 -424
55364 305530 360338 -10166 12009 -540
55274 305426 360244 -10057 12413 -639
55216 305290 360015 -9905 12737 -693
55183 305069 359628 -9751 12910 -721
55161 304814 359263 -9653 12962 -724
55148 304784 359223 -9701 12916 -649
55120 305081 359772 -9778 12804 -599
55099 305356 360269 -9781 12689 -602
55089 305484 360519 -9704 12669 -609
55086 305503 360511 -9619 12800 -668
55091 305350 360162 -9712 12879 -675
55107 305033 359584 -9925 12761 -603
55143 304753 359104 -10049 12648 -583
55167 304556 358813 -9998 12663 -635
55193 304400 358573 -9885 12685 -695
55231 304302 358383 -9899 12664 -717
55272 304212 358220 -10025 12685 -717
55322 304139 358095 -10127 12710 -692
55378 304094 357943 -10178 12655 -655
55437 304061 357930 -10120 12346 -543
55476 304035 357900 -10143 12342 -473
55507 304027 357887 -10110 12417 -448
55539 303992 357841 -10027 12492 -455
55583 304002 357856 -9889 12540 -485
55614 304084 358012 -9771 12577 -497
55640 304232 358266 -9807 12596 -468
55670 304333 358414 -9904 12604 -424
55709 304394 358489 -9902 12622 -424
55744 304443 358552 -9794 12665 -501
55781 304464 358550 -9697 12755 -563
55821 304424 358406 -9675 12862 -579
55873 304380 358257 -9682 12956 -595
55919 304278 358011 -9662 13023 -600
55970 304134 357695 -9603 13022 -613
56031 304063 357614 -9553 12941 -613
56080 304206 357832 -9532 12858 -593
56134 304337 358021 -9503 12834 -585
56180 304414 358090 -9506 12833 -604
56224 304475 358220 -9556 12841 -643
56230 304529 358367 -9606 12879 -637
56181 304475 358366 -9630 12910 -594
56093 304383 358336 -9591 12883 -612
55985 304303 358343 -9543 12853 -654
55879 304277 358388 -9545 12897 -658
55798 304232 358402 -9538 12963 -649
55740 304152 358310 -9485 12988 -652
55703 304072 358177 -9419 12989 -668
55688 303984 358017 -9381 12982 -696
55686 303899 357874 -9382 12998 -725
55699 303842 357742 -9408 13036 -729
55719 303789 357656 -9434 13027 -716
55737 303759 357610 -9425 12989 -716
55757 303687 357474 -9414 12977 -714
55770 303615 357341 -9445 12995 -701
55775 303572 357297 -9454 13003 -715
55773 303528 357261 -9433 12982 -716
55769 303548 357343 -9423 12978 -699
55764 303612 357482 -9424 13001 -698
55764 303632 357564 -9428 13031 -678
55778 303647 357571 -9383 13125 -656
55792 303667 357585 -9415 13100 -628
55829 303599 357427 -9424 13099 -594
55880 303520 357264 -9387 13145 -612
55937 303426 357049 -9327 13166 -649
55993 303267 356714 -9274 13092 -633
56060 303052 356335 -9290 12934 -564
56131 302820 355903 -9363 12779 -482
56206 302511 355391 -9463 12671 -411
56301 302081 354654 -9531 12549 -442
56384 301888 354398 -9622 12392 -504
56440 301949 354505 -9739 12339 -441
56470 301955 354550 -9759 12403 -308
56490 301927 354552 -9670 12529 -205
56516 301826 354430 -9487 12761 -179
56555 301691 354244 -9219 13021 -252
56591 301588 354108 -8902 13281 -410
56622 301559 354088 -8650 13521 -582
56656 301563 354128 -8541 13607 -655
56702 301568 354159 -8540 13562 -667
56743 301619 354296 -8585 13612 -743
56770 301714 354558 -8705 13846 -797
56763 301676 354627 -8906 14038 -762
56717 301519 354499 -9077 13975 -732
56625 301400 354450 -9204 13722 -735
56520 301358 354604 -9280 13485 -759
56417 301373 354751 -9333 13321 -766
56324 301427 354923 -9412 13169 -747
56255 301515 355114 -9546 12997 -694
56221 301543 355187 -9730 12855 -644
56190 301600 355318 -9828 12780 -698
56155 301706 355504 -9797 12743 -777
56127 301762 355607 -9795 12687 -743
56109 301806 355658 -9927 12618 -678
56102 301803 355660 -10018 12579 -698
56082 301784 355648 -10001 12564 -761
56065 301749 355597 -10012 12519 -787
56042 301676 355511 -10069 12457 -795
56017 301657 355511 -10104 12442 -827
55985 301677 355565 -10075 12470 -877
55960 301697 355622 -9964 12537 -898
55953 301709 355644 -9897 12592 -939
55947 301754 355741 -9793 12706 -1005
55949 301839 355890 -9721 12869 -1040
55953 301891 355958 -9681 12979 -1045
55963 301927 355994 -9646 13003 -1021
55976 301951 356042 -9598 13038 -994
55993 301968 356041 -9552 13055 -977
56011 301963 356010 -9523 12972 -955
56028 302006 356051 -9527 12907 -942
56046 302094 356159 -9535 12958 -929
56065 302145 356215 -9532 13010 -870
56088 302184 356242 -9524 12969 -810
56114 302239 356291 -9492 12924 -812
56141 302321 356389 -9445 12936 -858
56163 302410 356512 -9427 12930 -872
56172 302526 356683 -9453 12911 -816
56146 302714 356959 -9468 12916 -781
56118 302871 357184 -9439 12885 -834
56102 303101 357512 -9410 12862 -915
56087 303255 357745 -9433 12915 -956
55992 303400 358053 -9526 12988 -940
55269 305061 360487 -9608 12954 -1011
54113 307097 363020 -9591 12906 -1074
53044 308103 364086 -9523 12958 -1031
52604 307818 363468 -9479 13015 -1016
52205 307589 363080 -9475 13029 -1055
50486 309150 364872 -9483 12956 -1226
47615 312334 368081 -9458 12902 -1315
45506 315694 371364 -9467 12905 -1198
44018 318470 374423 -9538 12929 -1156
42601 320816 376501 -9510 12864 -1188
41425 322793 377320 -9544 12750 -1358
39499 325650 378898 -9649 12737 -1417
38027 328796 380904 -9743 12729 -1393
37387 331213 382286 -9771 12710 -1492
37115 333003 383074 -9816 12716 -1593
37144 335126 383505 -9819 12696 -1764
37564 337845 383754 -9763 12673 -1906
39245 341652 384696 -9864 12623 -2030
41757 344937 386071 -9958 12631 -2104
44545 347705 387559 -10006 12629 -2200
46759 349257 388292 -10023 12611 -2296
48757 350816 389076 -10007 12594 -2368
50454 352050 389740 -10001 12543 -2436
51903 352994 390323 -10050 12504 -2458
53148 353890 390834 -10085 12510 -2468
54316 354777 391440 -10057 12515 -2460
55351 355572 391987 -10015 12497 -2447
56123 355989 392254 -10019 12495 -2458
56588 356088 392322 -10051 12535 -2469
56773 355896 392194 -10065 12560 -2450
56709 355487 391809 -10013 12574 -2411
56286 354597 390959 -9987 12548 -2418
55478 353358 389647 -10024 12510 -2403
54913 352666 388912 -10054 12522 -2309
54241 351470 387689 -10107 12543 -2216
53192 348965 385948 -10192 12484 -2169
52072 344835 384839 -10267 12428 -2041
52715 342517 387218 -10339 12426 -1812
55127 340861 389758 -10391 12394 -1652
59758 339598 393113 -10387 12359 -1775
64025 338575 395095 -10294 12311 -1768
64234 335953 392931 -10191 12099 -1526
64811 333122 390490 -10140 12184 -1388
65664 331345 388746 -10146 12468 -1261
65233 330015 387342 -10092 12516 -1203
63316 328247 384537 -9989 12468 -1273
58005 326297 379917 -10061 12377 -1353
54806 326451 378501 -10339 12426 -1812
53666 327261 379383 -10391 12394 -1652
53459 327993 380757 -10387 12359 -1775
52060 327996 380038 -10294 12311 -1768
48985 327494 377229 -10191 12099 -1526
46101 328137 375946 -10140 12184 -1388
44340 329105 375805 -10146 12468 -1261
43259 330029 376082 -10092 12516 -1203
41668 331486 376316 -9989 12468 -1273
40171 333440 376514 -10061 12377 -1353
39266 335009 376560 -10199 12746 -1014
39084 337030 376638 -10073 12685 -1197
39574 339266 376965 -9945 12653 -1379
40780 342133 378058 -9928 12605 -1368
42907 346021 380191 -10011 12620 -1234
45199 349401 381975 -10100 12697 -1166
47337 352093 383559 -10092 12657 -1327
49216 354185 384945 -10044 12605 -1458
50783 355756 386060 -10043 12619 -1401
52402 357487 387432 -10067 12618 -1404
54110 359268 388907 -10054 12577 -1449
55728 360856 390313 -10069 12518 -1513
57102 362023 391427 -10129 12497 -1592
58080 362919 392273 -10141 12529 -1625
58834 363530 392817 -10124 12513 -1686
59314 363767 393049 -10119 12469 -1783
59607 363767 393033 -10132 12477 -1877
59707 363501 392756 -10148 12516 -1958
59663 363095 392311 -10128 12537 -2007
59605 362814 391938 -10090 12526 -2029
59555 362565 391588 -10069 12502 -2013
59428 362168 391132 -10073 12504 -1981
59086 361352 390380 -10089 12532 -1993
58435 360122 389307 -10081 12548 -2026
57478 358122 387619 -10055 12546 -2048
55905 354508 384266 -10054 12553 -2069
53391 346976 379673 -10081 12576 -2098
51649 336482 376304 -10106 12587 -2137
58130 339770 390870 -10113 12570 -2168
66497 346457 403974 -10085 12511 -2173
70605 347505 406721 -10111 12496 -2160
68792 343889 402314 -10246 12549 -2127
66133 341118 398973 -10358 12569 -2092
63020 338876 395534 -10353 12548 -2062
59607 337339 392342 -10273 12511 -2023
58119 336861 391542 -10213 12491 -1978
57713 336931 392036 -10245 12478 -1918
55571 336549 391214 -10319 12479 -1813
49927 336222 387367 -10364 12520 -1698
46065 338012 385238 -10420 12527 -1798
44576 340133 384778 -10504 12467 -1844
44020 342061 384598 -10425 12160 -1373
43909 345133 384477 -10430 12321 -1385
45241 349703 386558 -10399 12392 -1325
47064 353377 389044 -10407 12429 -1341
49145 356308 391160 -10440 12337 -1598
51348 358651 392886 -10487 12213 -1906
53350 360476 394337 -10589 12342 -1899
54890 361708 395328 -10638 12492 -1787
56219 362792 396293 -10749 12448 -2071
57412 363679 397146 -10707 12332 -2160
58474 364492 398087 -10644 12194 -2157
59301 364984 398849 -10624 12102 -2216
59771 365053 399196 -10657 12080 -2280
59935 364759 399109 -10707 12009 -2302
59642 363773 397968 -10761 11940 -2305
57839 359027 392799 -10858 11947 -2321
54203 344010 384076 -10881 11880 -2356
61478 343710 393684 -10769 11628 -2399
70222 341680 396375 -10751 11550 -2369
72821 332603 387465 -10706 11451 -2336
71522 331198 387496 -10704 11388 -2297
70563 329865 386210 -10755 11464 -2183
69912 328515 384658 -10764 11685 -1935
69350 327396 383412 -10787 11817 -1701
68782 326348 382301 -10853 11612 -1684
68137 325427 381334 -10891 11432 -1724
67380 324542 380420 -11106 11419 -2611
66551 323858 379738 -10934 11728 -2401
65730 323255 379165 -10568 12175 -1325
64952 322763 378743 -10600 12280 -1435
64245 322300 378285 -10679 12279 -1505
63603 321847 377784 -10760 12367 -1521
63021 321377 377314 -10740 12518 -1585
62482 320913 376834 -10641 12599 -1669
61986 320408 376293 -10575 12544 -1695
61548 319912 375740 -10551 12441 -1672
61157 319495 375292 -10532 12381 -1658
60792 319128 374918 -10523 12242 -1604
60440 318699 374486 -10525 12027 -1517
60107 318209 373948 -10535 11907 -1487
59774 317694 373459 -10544 11897 -1500
59452 317315 373139 -10577 11909 -1491
59158 317097 373045 -10608 11899 -1477
58874 316672 372637 -10633 11953 -1493
58628 316205 372150 -10652 12114 -1517
58435 315932 371856 -10628 12268 -1477
58276 315602 371537 -10590 12182 -1360
58120 314977 370832 -10431 11858 -1311
57949 314338 370101 -10294 12041 -1393
57799 313938 369662 -10128 12309 -1552
57728 313448 369083 -9994 12465 -1659
57702 312600 368084 -9957 12528 -1728
57649 311716 366993 -9955 12558 -1872
57563 310736 365790 -9944 12561 -2043
57507 309808 364561 -9985 12574 -2101
57479 308378 362722 -10098 12598 -2019
57471 306765 360561 -10040 12542 -2004
57618 305211 358449 -9949 12507 -2059
57714 303601 356240 -9931 12411 -2081
57819 302085 354026 -9988 12314 -2018
57955 300324 351754 -10039 12203 -1961
58057 298686 349568 -10116 12106 -1956
58132 297607 348123 -10220 12068 -1916
58156 296987 347333 -10316 12017 -1823
58154 296536 346744 -10424 11859 -1661
58060 296089 346262 -10534 11669 -1456
57783 295807 346065 -10602 11665 -1341
57404 295772 346265 -10553 11827 -1367
57003 296049 346837 -10479 12026 -1427
56617 296636 347821 -10476 12152 -1448
56303 297257 348792 -10528 12211 -1424
56084 297508 349230 -10561 12301 -1401
55893 297482 349332 -10535 12424 -1450
55729 297565 349578 -10492 12477 -1534
55568 297637 349794 -10461 12489 -1592
55425 297827 350124 -10435 12491 -1639
55317 297938 350316 -10402 12425 -1655
55203 297939 350379 -10383 12354 -1687
55092 297907 350412 -10391 12367 -1733
54991 297981 350577 -10408 12386 -1743
54874 298006 350689 -10443 12374 -1717
54761 298015 350763 -10479 12352 -1716
54660 298070 350876 -10477 12330 -1776
54574 298130 350970 -10471 12315 -1799
54502 298088 350872 -10492 12258 -1773
54443 298046 350829 -10507 12169 -1732
54405 298054 350877 -10550 11982 -1686
54369 298052 350898 -10522 11985 -1689
54346 297890 350726 -10515 12009 -1707
54341 297697 350503 -10535 11998 -1734
54342 297646 350459 -10552 11995 -1776
54360 297660 350486 -10561 12005 -1806
54377 297575 350344 -10613 11993 -1809
54380 297455 350193 -10687 12004 -1811
54412 297364 350007 -10708 12043 -1823
54479 297243 349819 -10707 12066 -1862
54539 297075 349571 -10656 12068 -1912
54593 296908 349346 -10620 12122 -1942
54617 296836 349248 -10596 12124 -1931
54654 296684 349017 -10552 12048 -1940
54709 296441 348697 -10512 11979 -1986
54766 296233 348420 -10516 11947 -2006
54818 296085 348160 -10540 11964 -1981
54889 295862 347802 -10550 11953 -1959
54988 295480 347203 -10540 11886 -1966
55070 294525 345937 -10527 11900 -2004
55096 292982 344046 -10506 12022 -2063
55077 291203 341982 -10479 12117 -2108
54991 289894 340415 -10484 12134 -2146
54899 288669 338929 -10506 12155 -2192
54849 287468 337357 -10518 12209 -2223
54729 286949 336583 -10510 12239 -2250
54635 286596 336194 -10512 12234 -2295
54616 286074 335644 -10511 12161 -2335
54573 285422 334852 -10541 12053 -2320
54525 285150 334538 -10645 11979 -2246
54464 285242 334695 -10709 11922 -2190
54428 285341 334800 -10717 11795 -2202
54417 285223 334661 -10742 11688 -2207
54418 284913 334266 -10809 11663 -2192
54405 284569 333834 -10873 11687 -2180
54369 284441 333699 -10905 11812 -2180
54361 284344 333569 -10950 11988 -2169
54360 284245 333445 -10977 12125 -2130
54356 284184 333350 -10922 12166 -2121
54305 284148 333335 -10815 12134 -2159
54278 284228 333484 -10684 12116 -2228
54258 284358 333736 -10565 12096 -2294
54224 284472 333928 -10501 12094 -2330
54187 284574 334084 -10486 12100 -2335
54164 284738 334346 -10501 12095 -2329
54154 284945 334640 -10488 12111 -2340
54156 285116 334873 -10455 12130 -2352
54161 285238 335041 -10449 12178 -2344
54161 285366 335216 -10445 12196 -2347
54160 285506 335434 -10416 12166 -2372
54157 285628 335622 -10372 12183 -2383
54162 285723 335753 -10338 12250 -2364
54159 285861 335968 -10321 12292 -2327
54169 286098 336318 -10310 12284 -2274
54195 286360 336704 -10285 12242 -2223
54218 286530 336920 -10254 12237 -2186
54231 286590 337005 -10226 12277 -2171
54237 286710 337156 -10202 12331 -2240
54244 286930 337472 -10194 12398 -2365
54274 287140 337744 -10312 12550 -2388
54292 287319 337978 -10371 12616 -2279
54289 287484 338226 -10376 12604 -2221
54229 287471 338308 -10315 12549 -2232
54122 287229 338139 -10221 12474 -2261
53976 287019 338024 -10180 12410 -2297
53812 287049 338228 -10198 12402 -2307
53683 287250 338574 -10240 12429 -2292
53589 287451 338886 -10270 12456 -2278
53527 287621 339154 -10172 12448 -2309
53490 287744 339362 -10140 12479 -2280
53455 287799 339484 -10114 12514 -2240
53431 287837 339593 -10042 12518 -2253
53428 287840 339619 -9940 12539 -2293
53455 287889 339705 -9877 12565 -2318
53475 288013 339918 -9840 12590 -2324
53482 288203 340176 -9808 12618 -2312
53493 288318 340356 -9794 12625 -2296
53506 288416 340493 -9740 12634 -2326
53514 288510 340641 -9721 12668 -2308
53526 288659 340877 -9698 12684 -2301
53540 288785 341053 -9671 12681 -2316
53561 288842 341140 -9651 12699 -2348
53592 288898 341199 -9635 12710 -2378
53623 288918 341230 -9619 12698 -2392
53661 288930 341260 -9582 12693 -2400
53708 289010 341367 -9535 12718 -2403
53763 289176 341569 -9510 12769 -2399
53825 289368 341813 -9479 12800 -2402
53879 289577 342058 -9440 12822 -2394
53936 289815 342357 -9403 12842 -2375
53993 290068 342663 -9367 12843 -2378
54059 290320 342983 -9327 12864 -2399
54128 290552 343248 -9276 12902 -2424
54191 290724 343450 -9231 12934 -2430
54248 290831 343558 -9198 12965 -2423
54305 290905 343630 -9153 12988 -2433
54368 290973 343703 -9109 13013 -2451
54436 291069 343799 -9089 13128 -2467
54501 291166 343908 -9048 13125 -2454
54571 291302 344060 -8994 13131 -2448
54632 291408 344161 -8951 13163 -2451
54702 291515 344276 -8947 13204 -2456
54778 291661 344438 -8930 13212 -2436
54826 291680 344487 -8880 13184 -2409
54814 291538 344358 -8860 13154 -2413
54752 291366 344228 -8899 13166 -2393
54661 291217 344154 -8963 13280 -2366
54576 291121 344111 -8925 13220 -2382
54510 291060 344092 -8911 13170 -2364
54480 291047 344106 -8919 13169 -2364
54463 291049 344126 -8948 13191 -2377
54472 291069 344163 -8956 13191 -2377
54492 291104 344243 -8954 13161 -2376
54513 291157 344292 -8974 13125 -2375
54545 291195 344332 -8999 13102 -2367
54585 291251 344407 -9062 13130 -2377
54621 291221 344364 -9076 13155 -2362
54654 291190 344320 -9067 13146 -2326
54677 291148 344293 -9058 13114 -2312
54696 291137 344283 -9059 13111 -2313
54712 291138 344304 -9060 13118 -2321
54733 291184 344371 -9035 13112 -2329
54758 291244 344439 -9023 13129 -2334
54793 291297 344493 -9038 13151 -2315
54833 291358 344550 -9060 13173 -2287
54883 291417 344618 -9080 13204 -2273
54937 291457 344623 -9067 13213 -2271
54991 291458 344619 -9042 13191 -2269
55046 291446 344560 -9037 13158 -2246
55101 291444 344536 -9044 13134 -2220
55161 291451 344525 -9056 13110 -2192
55225 291481 344528 -9058 13071 -2169
55290 291509 344530 -9071 13055 -2155
55357 291562 344552 -9092 13062 -2151
55421 291601 344574 -9123 13069 -2129
55488 291651 344617 -9167 13091 -2084
55552 291713 344633 -9187 13083 -2065
55618 291727 344631 -9179 13047 -2072
55682 291759 344640 -9185 13035 -2071
55753 291784 344613 -9207 13024 -2045
55818 291759 344523 -9235 13031 -2004
55890 291770 344512 -9262 13014 -1989
55963 291773 344471 -9260 12944 -2010
55997 291598 344270 -9283 12914 -2014
55979 291328 343976 -9356 12928 -1968
55922 291097 343753 -9418 12913 -1911
55846 290932 343632 -9399 12863 -1926
55775 290813 343558 -9388 12842 -1918
55728 290734 343461 -9377 12845 -1896
55703 290691 343438 -9370 12855 -1890
55701 290660 343398 -9362 12843 -1892
55715 290643 343365 -9365 12812 -1898
55737 290624 343340 -9402 12817 -1898
55761 290589 343293 -9443 12837 -1875
55793 290561 343244 -9507 12830 -1831
55837 290588 343254 -9539 12800 -1824
55876 290549 343201 -9558 12782 -1800
55902 290510 343120 -9560 12775 -1776
55928 290464 343065 -9561 12776 -1769
55948 290441 343041 -9565 12769 -1759
55967 290425 343021 -9561 12752 -1748
55992 290409 343003 -9575 12745 -1740
56018 290395 342964 -9604 12747 -1746
56052 290380 342907 -9620 12765 -1767
56092 290388 342905 -9614 12779 -1766
56135 290405 342893 -9614 12774 -1737
56183 290408 342878 -9625 12764 -1699
56235 290416 342851 -9623 12755 -1689
56288 290443 342857 -9622 12769 -1701
56346 290466 342860 -9620 12776 -1703
56404 290490 342860 -9628 12756 -1697
56462 290524 342853 -9638 12752 -1704
56520 290533 342831 -9652 12761 -1713
56576 290526 342790 -9673 12755 -1705
56633 290525 342761 -9676 12733 -1702
56691 290532 342718 -9686 12710 -1703
56746 290528 342678 -9710 12695 -1699
56802 290516 342635 -9723 12686 -1702
56855 290531 342597 -9740 12675 -1697
56911 290548 342581 -9772 12670 -1681
56967 290532 342522 -9810 12664 -1666
57029 290553 342498 -9810 12642 -1677
57092 290603 342544 -9806 12638 -1703
57127 290477 342389 -9860 12668 -1661
57106 290201 342061 -9866 12659 -1597
57038 289926 341798 -9851 12638 -1618
56949 289715 341622 -9836 12635 -1607
56864 289579 341506 -9819 12658 -1599
56793 289498 341442 -9798 12677 -1607
56747 289437 341377 -9788 12681 -1613
56721 289394 341351 -9800 12684 -1604
56720 289387 341318 -9828 12687 -1595
56724 289371 341299 -9861 12699 -1588
56858 289032 340780 -9929 12620 -1453
56879 289020 340763 -9927 12617 -1449
56904 289043 340764 -9923 12626 -1462
56933 289083 340795 -9917 12639 -1464
56962 289097 340774 -9901 12647 -1450
56998 289093 340754 -9879 12639 -1446
57033 289108 340737 -9881 12630 -1451
57075 289136 340749 -9894 12636 -1460
57116 289186 340782 -9901 12651 -1481
57154 289220 340802 -9908 12660 -1485
57195 289246 340812 -9908 12634 -1465
57238 289264 340808 -9917 12617 -1448
57277 289287 340800 -9933 12624 -1464
57317 289322 340825 -9927 12621 -1491
57358 289365 340850 -9894 12621 -1497
57397 289407 340883 -9884 12636 -1489
57441 289445 340875 -9922 12636 -1495
57484 289490 340914 -9956 12630 -1515
57531 289554 340961 -9966 12636 -1531
57565 289563 340940 -9931 12632 -1560
57610 289614 340973 -9908 12637 -1573
57660 289665 341026 -9955 12656 -1529
57674 289548 340887 -10004 12654 -1497
57629 289308 340633 -9992 12633 -1529
57541 289100 340440 -9947 12615 -1549
57435 288953 340335 -9911 12617 -1542
57323 288841 340279 -9886 12639 -1541
57236 288785 340242 -9863 12654 -1542
57175 288765 340252 -9858 12657 -1556
57134 288765 340243 -9881 12655 -1566
57112 288755 340240 -9897 12625 -1539
57091 288762 340248 -9917 12617 -1546
57079 288756 340227 -9924 12614 -1567
57082 288782 340250 -9945 12622 -1558
57091 288812 340284 -9955 12633 -1539
57092 288792 340247 -9944 12642 -1546
57086 288755 340191 -9948 12642 -1543
57071 288717 340155 -9949 12634 -1526
57056 288697 340141 -9943 12622 -1525
57038 288661 340110 -9927 12619 -1529
57022 288644 340089 -9916 12622 -1525
57018 288653 340090 -9934 12624 -1510
57019 288661 340098 -9948 12632 -1509
57031 288687 340106 -9956 12643 -1513
57045 288700 340100 -9955 12652 -1511
57060 288702 340090 -9934 12640 -1504
57083 288734 340095 -9932 12620 -1498
57103 288747 340103 -9945 12618 -1493
57126 288765 340095 -9958 12621 -1487
57155 288790 340096 -9963 12620 -1489
57183 288823 340106 -9945 12619 -1489
57214 288850 340120 -9942 12617 -1485
57243 288875 340123 -9959 12618 -1481
57275 288896 340132 -9967 12622 -1473
57308 288919 340122 -9960 12630 -1481
57337 288945 340145 -9947 12633 -1496
57372 288990 340170 -9959 12630 -1490
57399 289022 340184 -9966 12614 -1490
57430 289048 340180 -9964 12585 -1495
57457 289101 340216 -9976 12580 -1494
57491 289178 340287 -9964 12588 -1497
57527 289262 340368 -9967 12606 -1494
57560 289299 340376 -9968 12618 -1511
57596 289347 340423 -9979 12621 -1531
57638 289421 340491 -10025 12639 -1515
57658 289381 340414 -10033 12657 -1482
57626 289183 340226 -10019 12660 -1484
57531 288960 340028 -9997 12646 -1500
57411 288772 339870 -9957 12629 -1494
57280 288634 339778 -9919 12605 -1495
57169 288563 339736 -9964 12588 -1497
57082 288562 339774 -9967 12606 -1494
57025 288577 339824 -9968 12618 -1511
56988 288595 339822 -9979 12621 -1531
56963 288600 339828 -10025 12639 -1515
56947 288591 339814 -10033 12657 -1482
56942 288607 339831 -10019 12660 -1484
56952 288665 339884 -9997 12646 -1500
56950 288643 339853 -9957 12629 -1494
56942 288616 339826 -9919 12605 -1495
56928 288583 339786 -9895 12592 -1483
56900 288547 339752 -9917 12623 -1493
56877 288542 339754 -9940 12644 -1490
56854 288535 339750 -9963 12650 -1460
56843 288531 339747 -9940 12622 -1452
56844 288533 339723 -9925 12602 -1483
56850 288546 339747 -9952 12616 -1468
56864 288616 339817 -9977 12625 -1446
56883 288679 339880 -9982 12625 -1462
56908 288743 339942 -9956 12627 -1472
56935 288823 340028 -9923 12645 -1468
56963 288878 340081 -9927 12665 -1452
56988 288938 340135 -9955 12664 -1431
57010 289002 340214 -9943 12656 -1431
57028 289083 340286 -9904 12668 -1463
57053 289153 340367 -9924 12670 -1504
57081 289245 340476 -10004 12633 -1500
57107 289325 340561 -10068 12606 -1488
57124 289389 340612 -10090 12598 -1507
57143 289448 340670 -10076 12612 -1519
57162 289500 340741 -10039 12622 -1527
57176 289535 340796 -10008 12608 -1514
57196 289590 340846 -10001 12592 -1472
57219 289653 340911 -10011 12577 -1429
57245 289712 340974 -9976 12555 -1399
57272 289757 340991 -9924 12565 -1394
57307 289853 341103 -9893 12620 -1380
57346 289940 341209 -9850 12660 -1369
57350 289854 341106 -9814 12672 -1392
57288 289633 340879 -9803 12673 -1413
57174 289433 340716 -9778 12690 -1428
57041 289302 340652 -9785 12700 -1428
56903 289234 340644 -9775 12706 -1433
56787 289191 340665 -9737 12690 -1449
56698 289242 340724 -9714 12643 -1465
56636 289288 340826 -9747 12645 -1462
56594 289388 340959 -9798 12710 -1407
56565 289453 341049 -9815 12749 -1357
56545 289523 341141 -9799 12725 -1353
56549 289643 341286 -9805 12615 -1314
56550 289720 341404 -9843 12610 -1289
56544 289721 341397 -9853 12616 -1259
56526 289727 341413 -9836 12620 -1254
56500 289755 341450 -9817 12626 -1291
56468 289767 341507 -9823 12648 -1313
56437 289824 341592 -9825 12683 -1327
56409 289873 341697 -9794 12723 -1370
56394 289937 341770 -9764 12770 -1401
56382 290015 341850 -9713 12851 -1435
56377 290043 341901 -9689 12831 -1435
56383 290117 341983 -9674 12785 -1419
56402 290203 342062 -9660 12756 -1412
56416 290254 342136 -9641 12774 -1409
56430 290296 342166 -9638 12817 -1396
56447 290338 342198 -9643 12830 -1375
56467 290406 342261 -9621 12823 -1357
56492 290489 342353 -9574 12806 -1368
56515 290582 342476 -9523 12823 -1399
56541 290669 342563 -9495 12898 -1421
56564 290719 342607 -9482 12953 -1415
56588 290779 342659 -9472 12942 -1387
56614 290842 342708 -9475 12891 -1359
56644 290906 342775 -9490 12853 -1347
56669 290955 342811 -9527 12831 -1333
56699 290991 342830 -9537 12825 -1289
56728 291049 342872 -9492 12853 -1270
56760 291151 342980 -9443 12897 -1289
56792 291211 343033 -9406 12930 -1342
56828 291262 343049 -9389 12970 -1410
56873 291366 343162 -9373 12985 -1419
56903 291367 343174 -9344 12967 -1384
56870 291168 342944 -9335 12935 -1361
56776 290897 342690 -9352 12903 -1380
56638 290685 342521 -9385 12931 -1416
56488 290545 342449 -9416 12975 -1439
56350 290479 342415 -9421 12965 -1480
56245 290416 342412 -9412 12937 -1548
56168 290409 342435 -9435 12970 -1566
56116 290438 342471 -9448 13042 -1485
56082 290454 342514 -9416 12958 -1510
56060 290476 342537 -9398 12912 -1501
56044 290473 342549 -9397 12918 -1485
56041 290506 342569 -9397 12961 -1484
56049 290539 342625 -9371 12979 -1491
56045 290537 342614 -9352 12968 -1507
56035 290512 342628 -9370 12948 -1510
56011 290490 342598 -9414 12935 -1479
55980 290466 342582 -9440 12953 -1415
55957 290447 342570 -9438 12951 -1418
55942 290473 342611 -9425 12950 -1408
55933 290517 342680 -9405 12959 -1379
55932 290535 342691 -9398 12977 -1364
55930 290557 342702 -9399 12961 -1343
55942 290568 342713 -9393 12902 -1308
55962 290618 342761 -9375 12886 -1313
55984 290667 342815 -9343 12949 -1363
56005 290723 342869 -9344 13055 -1397
56029 290786 342917 -9352 13122 -1399
56060 290850 342987 -9334 13107 -1397
56086 290929 343071 -9316 13044 -1384
56117 290984 343122 -9305 13005 -1364
56146 291029 343147 -9316 13016 -1358
56176 291052 343157 -9317 13038 -1340
56212 291094 343179 -9287 13034 -1317
56250 291132 343208 -9251 13024 -1312
56285 291173 343220 -9234 13035 -1313
56322 291200 343223 -9243 13064 -1297
56360 291231 343233 -9251 13100 -1286
56401 291289 343274 -9246 13085 -1294
56443 291375 343357 -9252 13048 -1283
56486 291420 343382 -9265 13030 -1261
56529 291466 343402 -9264 13029 -1250
56584 291570 343510 -9282 13036 -1249
56615 291564 343509 -9309 13015 -1251
56588 291361 343280 -9321 12970 -1258
56500 291107 343043 -9327 12957 -1272
56377 290905 342890 -9337 12983 -1274
56241 290775 342806 -9346 12968 -1334
56133 290715 342813 -9358 13012 -1354
56047 290714 342844 -9366 13080 -1335
55991 290731 342898 -9348 13108 -1359
55957 290768 342922 -9322 13094 -1392
55946 290797 342981 -9287 13055 -1399
55940 290832 343017 -9240 13030 -1402
55942 290857 343044 -9224 13023 -1410
55960 290927 343114 -9229 13024 -1423
55979 290959 343146 -9294 13063 -1440
55984 290932 343120 -9312 13048 -1456
55980 290908 343102 -9310 13013 -1440
55974 290920 343134 -9313 12987 -1444
55960 290918 343140 -9332 13029 -1432
55950 290923 343171 -9338 13071 -1412
55946 290967 343217 -9311 13052 -1421
55948 290942 343178 -9277 13046 -1427
55962 290960 343189 -9279 13061 -1419
55986 290998 343226 -9306 13082 -1419
56010 291022 343235 -9316 13136 -1425
56040 291072 343278 -9317 13168 -1407
56076 291126 343325 -9309 13132 -1393
56120 291195 343379 -9277 13090 -1403
56160 291234 343425 -9244 13117 -1399
56206 291276 343442 -9201 13119 -1350
56249 291312 343436 -9151 13048 -1282
56294 291322 343420 -9132 13007 -1236
56342 291347 343413 -9140 13026 -1209
56391 291380 343442 -9162 13078 -1209
56445 291418 343459 -9197 13126 -1226
56500 291484 343496 -9227 13130 -1235
56550 291527 343532 -9244 13103 -1225
56604 291579 343562 -9255 13085 -1208
56652 291648 343636 -9277 13083 -1195
56708 291752 343743 -9293 13091 -1184
56757 291810 343769 -9281 13096 -1177
56811 291876 343817 -9271 13095 -1179
56868 291965 343909 -9268 13065 -1184
56925 291994 343931 -9270 13008 -1167
56929 291815 343718 -9270 13071 -1180
56880 291611 343515 -9226 13037 -1186
56793 291414 343363 -9225 13016 -1182
56695 291298 343271 -9281 13050 -1141
56610 291228 343256 -9307 13100 -1113
56544 291218 343287 -9273 13105 -1119
56511 291250 343336 -9239 13083 -1128
56498 291278 343394 -9222 13077 -1121
56501 291315 343422 -9197 13058 -1120
56510 291320 343417 -9190 13131 -1133
56534 291334 343415 -9193 13134 -1150
56568 291411 343490 -9198 13135 -1166
56598 291432 343501 -9210 13114 -1163
56626 291417 343482 -9216 13107 -1166
56650 291409 343473 -9215 13098 -1182
56664 291398 343472 -9216 13087 -1175
56672 291378 343444 -9213 13095 -1163
56686 291382 343456 -9226 13091 -1184
56702 291401 343463 -9276 13156 -1216
56727 291418 343472 -9289 13132 -1207
56758 291443 343494 -9299 13073 -1193
56798 291485 343519 -9303 13035 -1166
56842 291523 343555 -9296 13060 -1171
56888 291563 343571 -9272 13084 -1179
56934 291593 343594 -9235 13056 -1171
56982 291630 343624 -9228 13037 -1168
57035 291677 343649 -9244 13031 -1150
57084 291719 343671 -9260 13040 -1136
57141 291758 343678 -9270 13056 -1130
57196 291794 343700 -9262 13064 -1114
57253 291853 343726 -9257 13063 -1096
57306 291885 343755 -9266 13065 -1107
57361 291924 343771 -9276 13090 -1143
57414 291966 343788 -9285 13092 -1149
57467 291997 343818 -9292 13050 -1127
57524 292044 343847 -9300 13023 -1116
57585 292112 343913 -9306 13011 -1107
57637 292155 343895 -9301 13004 -1098
57696 292189 343911 -9339 13045 -1136
57771 292290 344003 -9351 13024 -1105
57825 292274 343983 -9333 12983 -1117
57830 292084 343757 -9333 12980 -1125
57795 291864 343563 -9369 13053 -1112
57735 291717 343447 -9387 13093 -1084
57674 291634 343399 -9365 13052 -1070
57620 291594 343404 -9322 13008 -1086
57587 291573 343382 -9289 13002 -1079
57575 291577 343399 -9262 13056 -1088
57576 291583 343419 -9235 13129 -1109
57591 291609 343431 -9213 13145 -1116
57607 291626 343427 -9219 13115 -1116
57633 291638 343444 -9230 13081 -1104
57666 291695 343496 -9245 13078 -1083
57703 291717 343513 -9242 13080 -1067
57731 291719 343501 -9221 13053 -1072
57754 291695 343473 -9222 13041 -1068
57768 291662 343440 -9236 13060 -1070
57780 291665 343452 -9256 13139 -1126
57790 291674 343473 -9263 13118 -1120
57805 291695 343500 -9269 13076 -1102
57830 291721 343522 -9278 13055 -1077
57862 291760 343561 -9284 13072 -1074
57900 291793 343585 -9294 13099 -1086
57940 291844 343614 -9290 13108 -1093
57988 291885 343648 -9267 13115 -1090
58038 291929 343678 -9246 13111 -1073
58087 291981 343721 -9241 13110 -1070
58134 292042 343781 -9244 13110 -1083
58187 292104 343828 -9224 13103 -1074
58236 292160 343866 -9190 13085 -1051
58288 292206 343886 -9170 13085 -1052
58341 292265 343933 -9188 13102 -1062
58395 292313 343973 -9206 13115 -1069
58448 292361 343999 -9202 13093 -1072
58500 292411 344030 -9198 13065 -1065
58552 292449 344065 -9196 13054 -1061
58605 292515 344115 -9208 13058 -1068
58656 292579 344177 -9217 13095 -1077
58712 292647 344238 -9224 13104 -1068
58760 292681 344241 -9236 13076 -1026
58824 292786 344353 -9240 13068 -999
58882 292853 344418 -9221 13077 -1014
58906 292742 344283 -9189 13107 -1069
58887 292549 344078 -9205 13148 -1072
58847 292379 343938 -9240 13171 -1027
58795 292264 343852 -9239 13170 -1050
58749 292200 343818 -9217 13158 -1096
58717 292167 343788 -9187 13200 -1110
58702 292145 343790 -9164 13163 -1103
58705 292146 343801 -9141 13133 -1098
58710 292140 343772 -9127 13142 -1104
58718 292143 343760 -9132 13212 -1119
58738 292119 343717 -9165 13198 -1103
58773 292131 343709 -9187 13092 -1052
58801 292082 343641 -9173 13069 -1050
58813 291942 343433 -9133 13201 -1098
58825 291860 343321 -9192 13272 -1048
58843 291837 343300 -9221 13105 -969
58857 291864 343364 -9218 13007 -913
58874 291912 343445 -9190 13036 -927
58887 291974 343498 -9151 13159 -972
58904 292003 343529 -9126 13239 -985
58925 292018 343552 -9128 13206 -948
58959 292060 343585 -9141 13138 -920
58992 292093 343608 -9136 13120 -923
59020 292136 343639 -9124 13165 -944
59053 292142 343635 -9135 13201 -968
59090 292165 343630 -9142 13179 -969
59127 292193 343646 -9132 13129 -963
59171 292238 343696 -9128 13115 -967
59213 292273 343709 -9126 13165 -980
59255 292284 343703 -9127 13213 -994
59298 292310 343699 -9127 13212 -998
59343 292342 343711 -9112 13208 -1002
59385 292363 343720 -9113 13193 -999
59427 292394 343726 -9132 13180 -999
59472 292425 343745 -9144 13195 -1012
59515 292431 343736 -9149 13197 -1016
59559 292465 343766 -9125 13174 -1018
59605 292520 343802 -9096 13161 -1016
59643 292571 343846 -9099 13175 -1013
59681 292582 343823 -9130 13192 -995
59725 292613 343831 -9127 13160 -976
59761 292638 343861 -9086 13096 -991
59784 292531 343734 -9110 13096 -997
59769 292294 343459 -9164 13166 -963
59719 292069 343229 -9166 13217 -990
59655 291903 343074 -9126 13159 -1006
59593 291805 343000 -9070 13126 -1006
59542 291792 343009 -9045 13153 -1009
59506 291801 343036 -9052 13220 -1025
59486 291803 343058 -9044 13263 -1044
59476 291802 343047 -9042 13279 -1053
59473 291813 343052 -9059 13267 -1028
59476 291815 343031 -9069 13234 -986
59490 291827 343054 -9081 13206 -980
59511 291891 343104 -9100 13203 -983
59533 291903 343114 -9119 13184 -963
59546 291900 343101 -9135 13166 -957
59553 291880 343092 -9139 13191 -979
59553 291860 343067 -9137 13227 -1007
59546 291832 343015 -9134 13238 -1007
59545 291815 342999 -9135 13203 -987
59554 291834 343018 -9155 13164 -969
59562 291843 343013 -9177 13158 -950
59578 291850 343014 -9183 13176 -952
59593 291864 343023 -9185 13206 -964
59612 291895 343025 -9177 13194 -950
59632 291924 343043 -9162 13148 -929
59654 291934 343055 -9152 13124 -930
59681 291972 343071 -9146 13155 -946
59703 292008 343096 -9148 13178 -956
59731 292038 343102 -9148 13143 -954
59757 292044 343097 -9162 13135 -947
59785 292050 343090 -9179 13143 -938
59815 292078 343082 -9185 13137 -930
59842 292100 343091 -9203 13152 -943
59871 292097 343074 -9209 13142 -944
59894 292112 343059 -9193 13109 -928
59915 292121 343056 -9179 13102 -932
59928 292099 343018 -9186 13114 -952
59938 292084 342963 -9189 13143 -958
59945 292018 342837 -9194 13161 -941
59962 292006 342800 -9196 13142 -937
59993 292045 342823 -9177 13094 -952
60011 291993 342756 -9200 13096 -951
59991 291793 342508 -9260 13197 -927
59941 291596 342315 -9221 13141 -945
59866 291477 342228 -9171 13095 -962
59786 291409 342199 -9160 13106 -951
59707 291356 342184 -9151 13146 -946
59642 291359 342210 -9129 13164 -957
59592 291381 342240 -9119 13166 -960
59556 291381 342253 -9132 13176 -952
59526 291394 342279 -9146 13164 -945
59501 291389 342262 -9151 13169 -952
59489 291399 342271 -9146 13172 -967
59485 291442 342333 -9133 13142 -988
59479 291455 342328 -9126 13137 -992
59467 291444 342328 -9131 13160 -995
59442 291406 342271 -9155 13199 -1015
59415 291381 342259 -9166 13206 -1026
59391 291357 342252 -9159 13169 -1021
59367 291372 342252 -9164 13124 -1006
59388 291620 342424 -9151 13134 -991
59401 291657 342467 -9159 13167 -1010
59411 291697 342486 -9178 13179 -1007
59424 291704 342498 -9182 13165 -992
59442 291734 342492 -9184 13130 -994
59457 291756 342516 -9193 13124 -1010
59471 291793 342514 -9215 13140 -1015
59488 291822 342548 -9226 13116 -1007
59511 291852 342582 -9226 13083 -1000
59527 291903 342616 -9226 13078 -993
59548 291942 342644 -9224 13098 -986
59565 291953 342635 -9229 13107 -1016
59591 292035 342709 -9278 13104 -988
59609 292044 342691 -9295 13126 -946
59588 291871 342517 -9252 13148 -954
59514 291673 342324 -9192 13162 -980
59399 291487 342163 -9129 13141 -975
59269 291373 342101 -9082 13116 -945
59136 291306 342065 -9071 13121 -948
59020 291272 342070 -9079 13146 -978
58927 291244 342070 -9224 13098 -986
58842 291216 342039 -9229 13107 -1016
58774 291194 342032 -9278 13104 -988
58715 291149 341987 -9295 13126 -946
58658 291109 341941 -9252 13148 -954
58617 291114 341935 -9192 13162 -980
58584 291117 341946 -9129 13141 -975
58544 291078 341918 -9082 13116 -945
58501 291036 341861 -9071 13121 -948
58452 290991 341808 -9079 13146 -978
58403 290942 341772 -9153 13213 -1029
58350 290900 341743 -9192 13179 -1024
58310 290877 341707 -9221 13129 -1017
58270 290860 341698 -9243 13079 -1024
58236 290883 341721 -9256 13078 -1034
58209 290897 341720 -9257 13107 -1033
58187 290900 341734 -9237 13124 -1043
58174 290906 341728 -9234 13122 -1057
58165 290923 341737 -9256 13111 -1051
58162 290938 341770 -9276 13111 -1047
58159 290978 341785 -9293 13100 -1039
58155 290986 341789 -9305 13069 -1021
58158 290992 341783 -9297 13050 -1007
58159 291013 341794 -9287 13045 -1005
58160 291021 341783 -9289 13066 -1009
58155 291014 341757 -9278 13087 -997
58157 291028 341743 -9259 13074 -977
58162 291030 341734 -9245 13069 -967
58166 291038 341736 -9227 13090 -965
58168 291057 341739 -9212 13109 -968
58175 291091 341772 -9226 13121 -988
58186 291133 341801 -9237 13110 -1016
58194 291162 341837 -9223 13097 -1022
58209 291207 341860 -9215 13092 -1025
58225 291221 341847 -9230 13098 -1024
58254 291301 341914 -9245 13102 -1012
58267 291289 341892 -9250 13086 -998
58235 291101 341705 -9249 13081 -991
58141 290886 341482 -9231 13091 -1001
58005 290698 341339 -9223 13095 -1013
57853 290577 341276 -9217 13111 -1013
57705 290493 341258 -9214 13131 -999
57585 290480 341272 -9212 13134 -1002
57484 290488 341309 -9192 13099 -1020
57408 290471 341317 -9194 13096 -1007
57345 290447 341315 -9234 13144 -962
57291 290455 341328 -9261 13152 -935
57242 290438 341316 -9245 13117 -953
57207 290445 341334 -9220 13076 -961
57186 290449 341353 -9195 13047 -927
57153 290425 341288 -9174 13069 -928
57112 290382 341265 -9152 13133 -968
57062 290349 341234 -9128 13162 -982
57018 290310 341232 -9133 13156 -970
56974 290289 341207 -9164 13147 -952
56932 290287 341188 -9191 13159 -951
56906 290284 341206 -9191 13156 -956
56889 290314 341213 -9183 13128 -961
56875 290299 341204 -9191 13119 -970
56868 290321 341211 -9205 13120 -980
56867 290350 341237 -9214 13184 -1050
56870 290369 341251 -9212 13183 -1058
56878 290388 341272 -9220 13161 -1050
56889 290406 341275 -9238 13125 -1035
56899 290433 341297 -9256 13132 -1042
56907 290456 341315 -9266 13136 -1051
56921 290478 341315 -9269 13106 -1032
56940 290501 341339 -9267 13068 -1024
56956 290528 341348 -9261 13026 -1024
56970 290567 341367 -9268 13077 -1016
56986 290596 341403 -9252 13074 -1011
57007 290626 341430 -9234 13087 -1015
57026 290642 341422 -9222 13085 -1032
57043 290659 341427 -9232 13095 -1059
57068 290719 341486 -9240 13120 -1067
57088 290744 341491 -9241 13111 -1061
57118 290790 341515 -9249 13076 -1057
57153 290857 341586 -9256 13044 -1061
57178 290872 341592 -9285 13104 -1089
57163 290737 341428 -9280 13102 -1082
57092 290535 341250 -9266 13079 -1072
56974 290353 341093 -9256 13080 -1054
56833 290231 341025 -9244 13096 -1061
56704 290166 341014 -9224 13090 -1088
56601 290155 341048 -9236 13091 -1081
56526 290160 341090 -9275 13111 -1043
56479 290158 341089 -9290 13121 -1025
56441 290161 341099 -9275 13118 -1047
56418 290154 341092 -9244 13146 -1074
56401 290146 341085 -9199 13152 -1081
56406 290164 341090 -9153 13113 -1075
56410 290136 341045 -9138 13092 -1074
56408 290091 340985 -9144 13098 -1078
56392 290047 340942 -9167 13137 -1083
56373 290009 340892 -9201 13154 -1074
56353 289957 340845 -9212 13121 -1044
56334 289927 340813 -9189 13087 -1033
56315 289903 340776 -9172 13084 -1047
56307 289883 340762 -9193 13122 -1056
56311 289916 340801 -9207 13153 -1058
56318 289950 340830 -9202 13162 -1059
56336 289967 340833 -9206 13146 -1062
56357 289991 340842 -9213 13121 -1066
56381 289996 340844 -9219 13140 -1071
56413 290024 340868 -9233 13143 -1066
56446 290065 340898 -9242 13105 -1042
56481 290088 340920 -9240 13079 -1024
56515 290126 340939 -9241 13077 -1020
56552 290163 340981 -9245 13150 -1001
56586 290196 340988 -9230 13133 -971
56624 290212 341000 -9223 13099 -972
56664 290252 341026 -9211 13083 -982
56704 290294 341040 -9189 13118 -1002
56748 290319 341042 -9184 13144 -1023
56790 290344 341079 -9198 13131 -1025
56839 290385 341103 -9209 13120 -1023
56889 290421 341114 -9217 13105 -1015
56944 290490 341167 -9242 13137 -1019
56996 290547 341207 -9245 13126 -1006
57036 290485 341132 -9238 13112 -1004
57029 290320 340950 -9235 13108 -1001
56976 290129 340783 -9243 13122 -1000
56898 289989 340687 -9227 13132 -1027
56816 289900 340620 -9210 13111 -1046
56748 289856 340601 -9237 13104 -1028
56704 289847 340626 -9264 13132 -1005
56676 289850 340620 -9268 13138 -994
56667 289855 340623 -9261 13121 -1008
56669 289860 340648 -9236 13096 -1013
56680 289856 340631 -9211 13082 -1006
56705 289889 340655 -9190 13080 -1002
56743 289924 340703 -9177 13105 -1010
56775 289925 340700 -9187 13161 -1032
56802 289921 340673 -9202 13167 -1044
56829 289888 340624 -9204 13144 -1034
56839 289852 340602 -9182 13120 -1021
56860 289836 340574 -9176 13087 -1030
56880 289851 340581 -9213 13108 -1038
56908 289866 340596 -9244 13132 -1019
56936 289882 340612 -9236 13119 -1014
56974 289895 340616 -9220 13121 -1032
57013 289921 340638 -9220 13121 -1039
57062 289968 340662 -9238 13114 -1031
57106 289990 340679 -9258 13121 -1013
57150 290032 340717 -9266 13118 -1005
57200 290075 340764 -9268 13099 -994
57248 290129 340790 -9268 13086 -976
57299 290169 340832 -9271 13117 -992
57352 290211 340875 -9262 13126 -1003
57406 290261 340909 -9240 13094 -991
57461 290312 340949 -9222 13090 -987
57516 290363 340978 -9217 13090 -982
57568 290409 341016 -9215 13122 -994
57620 290458 341049 -9205 13141 -997
57676 290491 341089 -9210 13117 -984
57731 290537 341117 -9221 13117 -985
57785 290608 341178 -9215 13128 -983
57838 290661 341212 -9212 13148 -1011
57893 290696 341220 -9225 13112 -998
57955 290751 341293 -9229 13096 -982
58010 290796 341314 -9221 13115 -984
58039 290674 341155 -9201 13118 -1002
58028 290499 340985 -9201 13143 -1008
57989 290355 340871 -9222 13155 -997
57940 290278 340833 -9210 13100 -981
57897 290242 340825 -9205 13073 -985
57870 290242 340867 -9251 13174 -967
57858 290274 340918 -9245 13170 -962
57855 290306 340971 -9223 13114 -955
57866 290348 341018 -9201 13078 -940
57883 290374 341052 -9170 13073 -935
57903 290379 341061 -9161 13135 -974
57933 290412 341103 -9158 13197 -1004
57962 290475 341167 -9154 13203 -995
57997 290489 341175 -9161 13203 -989
58025 290481 341175 -9165 13205 -983
58049 290487 341167 -9176 13190 -990
58073 290472 341156 -9180 13158 -1001
58095 290476 341177 -9175 13132 -1008
58120 290519 341221 -9177 13137 -1010
58149 290562 341263 -9166 13154 -1018
58184 290578 341291 -9163 13167 -1034
58221 290623 341334 -9172 13188 -1046
58261 290675 341374 -9173 13176 -1032
58305 290711 341411 -9179 13153 -1005
58348 290757 341461 -9195 13140 -991
58391 290798 341492 -9211 13145 -991
58438 290849 341531 -9214 13145 -980
58492 290895 341569 -9199 13129 -969
58539 290941 341590 -9181 13142 -982
58591 290979 341630 -9173 13151 -993
58643 291030 341662 -9166 13159 -1002
58697 291077 341709 -9162 13182 -1017
58749 291128 341737 -9166 13172 -1011
58796 291168 341789 -9164 13139 -997
58848 291212 341803 -9159 13131 -996
58897 291242 341821 -9192 13176 -1004
58949 291274 341846 -9197 13140 -1001
59001 291342 341909 -9216 13114 -990
59053 291416 341963 -9224 13095 -981
59111 291472 342018 -9233 13089 -972
59167 291536 342054 -9236 13113 -977
59223 291609 342127 -9220 13097 -985
59263 291552 342059 -9205 13056 -983
59272 291397 341869 -9215 13051 -973
59252 291247 341731 -9204 13089 -1011
59223 291138 341661 -9215 13101 -1007
59191 291098 341642 -9239 13104 -958
59168 291094 341651 -9238 13083 -945
59154 291110 341698 -9218 13059 -959
59156 291164 341771 -9181 13106 -979
59161 291195 341812 -9148 13141 -986
59173 291226 341820 -9116 13115 -964
59191 291240 341834 -9087 13132 -979
59214 291271 341872 -9093 13202 -1011
59243 291342 341941 -9131 13272 -1023
59273 291369 341975 -9159 13268 -1011
59297 291378 341984 -9155 13219 -987
59320 291380 341981 -9139 13188 -982
59337 291388 341994 -9128 13173 -996
59356 291405 342002 -9155 13209 -1006
59374 291429 342029 -9180 13243 -1016
59402 291463 342057 -9157 13226 -1030
59425 291505 342113 -9131 13190 -1031
59453 291547 342143 -9126 13173 -1023
59483 291576 342170 -9148 13205 -1028
59518 291612 342209 -9167 13214 -1021
59553 291664 342250 -9168 13183 -1002
59593 291708 342296 -9164 13156 -990
59626 291758 342327 -9150 13129 -986
59662 291805 342378 -9135 13136 -989
59707 291856 342425 -9130 13169 -993
59746 291908 342450 -9134 13170 -992
59788 291948 342495 -9132 13152 -980
59828 292008 342539 -9113 13144 -976
59870 292052 342568 -9116 13228 -1022
59913 292101 342627 -9101 13225 -1004
59955 292144 342651 -9096 13206 -996
60005 292213 342710 -9112 13187 -984
60044 292255 342748 -9110 13193 -998
60091 292299 342791 -9108 13221 -1015
60135 292372 342861 -9107 13212 -1013
60179 292412 342889 -9090 13190 -1003
60222 292439 342882 -9089 13187 -995
60272 292538 342967 -9114 13227 -1026
60325 292604 343055 -9110 13221 -1015
60359 292572 342993 -9082 13155 -1013
60369 292391 342787 -9082 13116 -1022
60356 292236 342638 -9130 13137 -998
60323 292127 342541 -9184 13199 -975
60292 292078 342521 -9172 13235 -982
60269 292074 342536 -9135 13215 -1009
60255 292099 342568 -9108 13193 -1011
60244 292116 342595 -9081 13185 -1021
60245 292138 342612 -9066 13202 -1043
60251 292160 342641 -9064 13215 -1033
60258 292158 342611 -9081 13200 -1026
60275 292189 342633 -9091 13189 -1034
60295 292236 342686 -9095 13184 -1018
60315 292232 342675 -9106 13194 -1012
60324 292220 342652 -9108 13188 -1022
60331 292201 342616 -9102 13168 -1010
60338 292179 342584 -9103 13176 -1001
60340 292158 342554 -9105 13198 -1015
60341 292151 342556 -9123 13257 -1045
60350 292163 342549 -9136 13272 -1042
60358 292179 342563 -9129 13209 -1018
60373 292214 342579 -9130 13167 -1019
60387 292228 342594 -9144 13150 -1008
60402 292235 342584 -9160 13163 -1008
60418 292250 342596 -9170 13191 -1023
60438 292275 342604 -9161 13191 -1010
60460 292287 342610 -9150 13181 -983
60477 292308 342610 -9141 13180 -976
60496 292332 342635 -9138 13194 -974
60518 292370 342657 -9126 13165 -955
60544 292391 342654 -9123 13167 -951
60566 292404 342656 -9124 13169 -941
60593 292435 342673 -9131 13183 -939
60615 292454 342671 -9153 13219 -960
60640 292474 342687 -9165 13210 -975
60664 292488 342693 -9157 13157 -964
60688 292527 342707 -9157 13134 -955
60714 292558 342741 -9171 13154 -974
60740 292588 342761 -9176 13140 -953
60762 292611 342756 -9183 13144 -944
60792 292676 342821 -9182 13163 -942
60825 292709 342852 -9163 13138 -960
60827 292591 342699 -9167 13149 -977
60801 292402 342513 -9204 13187 -944
60754 292262 342403 -9214 13180 -909
60686 292165 342319 -9183 13161 -926
60612 292108 342279 -9152 13151 -952
60545 292085 342281 -9142 13178 -947
60492 292101 342317 -9124 13179 -944
60447 292088 342318 -9094 13167 -952
60412 292096 342333 -9074 13189 -966
60378 292091 342318 -9087 13210 -985
60354 292081 342309 -9130 13233 -1000
60339 292106 342320 -9162 13237 -980
60330 292134 342353 -9151 13185 -969
60312 292105 342314 -9138 13142 -989
60295 292082 342287 -9154 13167 -985
60269 292052 342250 -9170 13213 -987
60246 292032 342237 -9165 13217 -996
60217 292009 342226 -9144 13191 -989
60192 292010 342215 -9120 13169 -979
60176 292021 342225 -9114 13153 -959
60166 292029 342223 -9142 13169 -952
60154 292052 342251 -9162 13203 -956
60151 292075 342277 -9156 13196 -950
60146 292092 342289 -9148 13175 -930
60147 292111 342282 -9156 13167 -924
60149 292125 342294 -9179 13190 -946
60157 292149 342294 -9176 13199 -946
60165 292168 342323 -9142 13163 -929
60175 292207 342342 -9122 13144 -948
60185 292224 342346 -9121 13145 -957
60198 292245 342361 -9114 13164 -958
60208 292278 342363 -9109 13206 -985
60218 292283 342370 -9119 13205 -1001
60231 292314 342396 -9143 13157 -987
60245 292333 342422 -9167 13129 -974
60258 292363 342444 -9186 13158 -993
60275 292384 342453 -9185 13137 -981
60293 292425 342476 -9168 13131 -968
60305 292466 342508 -9154 13148 -980
60318 292500 342519 -9150 13167 -994
60333 292513 342513 -9139 13210 -1005
60360 292593 342601 -9138 13216 -1006
60380 292592 342598 -9128 13151 -1015
60364 292424 342388 -9143 13136 -1009
60312 292222 342173 -9188 13198 -972
60229 292058 342029 -9207 13241 -945
60123 291931 341937 -9191 13212 -939
60011 291843 341898 -9151 13168 -927
59908 291802 341876 -9121 13151 -905
59822 291786 341873 -9087 13164 -908
59757 291778 341863 -9058 13230 -955
59701 291764 341846 -9060 13257 -985
59654 291750 341833 -9082 13221 -976
59614 291730 341816 -9103 13203 -972
59581 291742 341804 -9115 13202 -963
59554 291752 341851 -9123 13200 -956
59525 291726 341832 -9134 13167 -960
59485 291694 341793 -9149 13148 -954
59440 291657 341762 -9144 13164 -953
59388 291615 341729 -9129 13193 -971
59345 291596 341719 -9118 13212 -987
59301 291595 341729 -9116 13197 -986
59262 291607 341722 -9119 13167 -971
59230 291632 341765 -9136 13135 -951
59204 291645 341780 -9165 13123 -925
59178 291655 341809 -9183 13135 -932
59161 291678 341824 -9207 13124 -933
59145 291703 341848 -9186 13101 -920
59133 291736 341871 -9153 13119 -922
59130 291759 341887 -9148 13145 -912
59127 291808 341947 -9141 13155 -905
59124 291861 341998 -9155 13161 -923
59120 291891 342021 -9169 13141 -933
59117 291927 342047 -9165 13127 -924
59112 291950 342053 -9159 13130 -928
59098 291937 341999 -9186 13150 -972
59084 291913 341937 -9206 13117 -967
59070 291895 341881 -9216 13108 -965
59050 291843 341775 -9238 13079 -969
59019 291711 341530 -9270 13056 -974
58994 291525 341198 -9258 13101 -1001
58976 291348 340926 -9241 13119 -999
58993 291402 340958 -9247 13068 -959
59014 291500 341059 -9249 13020 -959
59042 291577 341173 -9276 13073 -993
59081 291774 341395 -9241 13064 -1013
59109 291838 341527 -9312 13036 -965
59105 291895 341660 -9426 12983 -887
59051 291909 341774 -9441 12971 -889
58961 291977 341978 -9417 13008 -926
58855 292103 342234 -9403 12987 -937
58752 292188 342418 -9380 12953 -934
58665 292234 342505 -9339 13003 -952
58599 292266 342556 -9298 13060 -984
58549 292249 342496 -9305 13095 -1001
58511 292161 342376 -9337 13074 -983
58469 292021 342168 -9366 13012 -943
58439 291969 342093 -9377 12981 -905
58421 291960 342067 -9378 12952 -905
58398 291933 342037 -9385 12934 -908
58367 291915 342009 -9408 12943 -907
58334 291842 341925 -9420 12940 -913
58290 291777 341855 -9405 12962 -914
58246 291743 341813 -9394 13015 -922
58211 291762 341840 -9380 13055 -945
58178 291751 341835 -9364 13057 -956
58161 291741 341833 -9363 13044 -942
58154 291764 341852 -9371 13036 -924
58147 291808 341926 -9363 13024 -913
58151 291939 342098 -9354 13037 -925
58157 292046 342227 -9351 13056 -951
58168 292085 342280 -9349 13055 -919
58184 292113 342267 -9350 13045 -869
58197 292090 342202 -9353 13015 -861
58219 292022 342078 -9362 13015 -892
58241 291976 341964 -9353 13013 -879
58268 291989 341951 -9342 12994 -880
58296 292080 342063 -9352 12961 -882
58322 292180 342190 -9359 12952 -863
58344 292222 342221 -9358 12996 -856
58369 292258 342254 -9358 13025 -851
58387 292293 342295 -9336 13008 -844
58412 292341 342320 -9310 13001 -856
58440 292342 342271 -9335 13092 -874
58474 292349 342268 -9306 13056 -886
58506 292407 342341 -9298 13031 -877
58538 292450 342386 -9327 13046 -847
58539 292291 342173 -9344 13067 -819
58485 292031 341887 -9339 13075 -841
58395 291849 341731 -9319 13050 -854
58280 291724 341659 -9292 13029 -833
58162 291640 341591 -9271 13034 -826
58064 291559 341547 -9267 13058 -843
57981 291518 341515 -9267 13114 -872
57927 291492 341499 -9270 13137 -886
57889 291465 341473 -9289 13111 -876
57857 291442 341427 -9314 13082 -854
57836 291426 341405 -9313 13047 -855
57830 291428 341410 -9305 13047 -876
57822 291436 341416 -9310 13065 -889
57815 291420 341395 -9312 13068 -878
57796 291385 341358 -9312 13072 -859
57772 291364 341359 -9309 13078 -855
57744 291331 341332 -9305 13094 -872
57721 291313 341313 -9309 13076 -870
57701 291288 341298 -9327 13037 -843
57683 291284 341296 -9336 13026 -834
57676 291306 341313 -9337 13022 -818
57673 291308 341317 -9335 13033 -805
57678 291310 341343 -9326 13052 -810
57681 291347 341363 -9317 13044 -806
57697 291381 341392 -9316 13017 -790
57715 291423 341427 -9321 13008 -786
57732 291459 341457 -9327 13053 -820
57750 291484 341499 -9323 13033 -800
57773 291519 341527 -9323 13034 -794
57799 291561 341557 -9322 13029 -802
57827 291590 341570 -9318 13031 -815
57854 291617 341608 -9314 13054 -833
57883 291660 341644 -9313 13047 -819
57916 291741 341709 -9320 13030 -807
57950 291780 341736 -9314 13020 -831
57993 291812 341758 -9321 13008 -786
58034 291901 341844 -9327 13053 -820
58066 291902 341844 -9323 13033 -800
58063 291753 341674 -9323 13034 -794
58020 291587 341509 -9322 13029 -802
57952 291475 341453 -9318 13031 -815
57871 291391 341396 -9314 13054 -833
57795 291347 341381 -9313 13047 -819
57740 291357 341421 -9320 13030 -807
57704 291383 341468 -9314 13020 -831
57685 291410 341499 -9339 13089 -890
57685 291440 341533 -9356 13118 -843
57688 291463 341552 -9345 13105 -828
57706 291498 341574 -9307 13069 -831
57729 291556 341650 -9291 13049 -819
57754 291584 341680 -9288 13064 -827
57771 291585 341667 -9265 13066 -839
57775 291565 341650 -9240 13060 -858
57780 291571 341654 -9242 13092 -889
57784 291571 341662 -9277 13145 -907
57788 291578 341667 -9281 13086 -887
57799 291602 341686 -9276 13031 -887
57813 291625 341719 -9275 13034 -885
57836 291656 341751 -9287 13054 -883
57858 291691 341762 -9280 13105 -929
57888 291720 341798 -9271 13134 -953
57920 291758 341852 -9286 13105 -932
57955 291807 341877 -9299 13093 -920
57994 291850 341919 -9300 13095 -912
58035 291901 341967 -9308 13103 -940
58080 291956 342019 -9319 13089 -946
58129 292020 342059 -9318 13059 -904
58172 292063 342108 -9318 13040 -878
58220 292093 342126 -9314 13023 -862
58265 292124 342148 -9307 13016 -846
58310 292190 342192 -9296 13035 -850
58364 292243 342245 -9273 13053 -861
58410 292260 342236 -9265 13052 -855
58466 292324 342271 -9271 13057 -843
58522 292397 342355 -9273 13100 -839
58564 292353 342299 -9274 13137 -846
58575 292180 342084 -9269 13123 -842
58560 292036 341948 -9259 13097 -832
58525 291929 341877 -9254 13054 -838
58487 291861 341865 -9281 13034 -836
58457 291846 341859 -9302 13054 -839
58441 291862 341899 -9279 13040 -862
58437 291902 341952 -9275 13016 -861
58448 291938 341979 -9324 13043 -813
58465 291959 342005 -9337 13102 -834
58489 291990 342027 -9300 13071 -863
58529 292051 342055 -9268 13056 -857
58569 292089 342111 -9231 13062 -844
58605 292087 342098 -9217 13069 -845
58638 292082 342090 -9246 13093 -864
58665 292065 342071 -9274 13116 -867
58689 292058 342052 -9284 13100 -863
58711 292065 342046 -9287 13073 -864
58735 292058 342055 -9276 13064 -866
58762 292093 342073 -9288 13077 -877
58793 292105 342096 -9296 13086 -881
58829 292146 342147 -9284 13095 -877
58867 292189 342173 -9278 13098 -882
58906 292230 342202 -9265 13086 -902
58955 292261 342223 -9274 13083 -918
58999 292300 342243 -9299 13068 -907
59047 292343 342272 -9311 13043 -889
59090 292379 342289 -9310 13035 -888
59138 292424 342329 -9299 13054 -898
59184 292455 342360 -9289 13089 -918
59234 292492 342391 -9289 13097 -919
59284 292523 342406 -9285 13088 -887
59334 292557 342439 -9270 13072 -866
59386 292605 342471 -9262 13056 -856
59441 292662 342506 -9270 13088 -860
59491 292683 342513 -9286 13125 -872
59546 292753 342565 -9290 13109 -866
59606 292832 342648 -9284 13086 -857
59650 292775 342566 -9272 13080 -852
59669 292611 342372 -9287 13101 -868
59671 292463 342225 -9311 13098 -864
59660 292350 342131 -9306 13060 -841
59646 292290 342101 -9317 13047 -819
59640 292278 342110 -9321 13027 -813
59642 292297 342136 -9296 12989 -844
59649 292335 342187 -9314 13004 -855
59670 292389 342249 -9360 13050 -818
59687 292428 342268 -9359 13066 -803
59716 292458 342302 -9335 13068 -830
59753 292516 342361 -9296 13068 -858
59787 292553 342396 -9263 13026 -841
59822 292567 342408 -9257 13015 -841
59852 292556 342385 -9274 13029 -842
59881 292554 342361 -9302 13030 -842
59906 292541 342345 -9329 13045 -840
59928 292542 342341 -9333 13042 -825
59953 292550 342347 -9318 13022 -813
59979 292574 342372 -9310 13028 -810
60009 292605 342403 -9313 13046 -818
60044 292637 342437 -9302 13082 -831
60075 292673 342462 -9283 13102 -842
60111 292718 342484 -9282 13090 -846
60150 292755 342527 -9280 13064 -833
60185 292790 342545 -9282 13047 -831
60225 292821 342581 -9300 13060 -833
60262 292862 342597 -9321 13071 -819
60307 292903 342628 -9325 13059 -814
60345 292939 342649 -9304 13046 -822
60387 292965 342680 -9282 13050 -839
60429 293033 342725 -9276 13054 -859
60471 293086 342774 -9282 13040 -832
60506 293108 342771 -9282 13036 -810
60558 293176 342844 -9273 13049 -819
60607 293244 342913 -9264 13046 -820
60639 293186 342823 -9266 13053 -831
60657 293013 342621 -9274 13071 -833
60655 292886 342485 -9285 13051 -813
60652 292782 342414 -9299 13029 -803
60634 292723 342379 -9308 13044 -811
60627 292714 342380 -9311 13061 -854
60629 292738 342424 -9296 13042 -889
60632 292785 342467 -9305 13058 -863
60642 292821 342509 -9344 13095 -826
60654 292844 342520 -9333 13082 -836
60677 292890 342571 -9307 13063 -874
60700 292946 342622 -9298 13064 -868
60729 292996 342679 -9286 13051 -830
60753 293006 342657 -9273 13025 -812
60777 293001 342651 -9262 13036 -820
60797 292986 342626 -9273 13123 -878
60815 292982 342608 -9277 13112 -874
60831 292967 342574 -9280 13076 -856
60849 292979 342588 -9288 13036 -843
60867 292983 342594 -9294 13048 -837
60887 293009 342629 -9299 13094 -849
60907 293043 342651 -9298 13123 -869
60932 293080 342672 -9293 13114 -880
60955 293101 342670 -9295 13082 -871
60980 293126 342700 -9295 13076 -860
61006 293156 342735 -9291 13081 -859
61037 293200 342750 -9287 13066 -845
61072 293232 342777 -9292 13052 -834
61102 293256 342805 -9287 13048 -826
61129 293308 342824 -9274 13053 -826
61163 293325 342867 -9286 13077 -825
61194 293365 342879 -9290 13078 -817
61227 293397 342897 -9271 13040 -803
61253 293452 342949 -9259 13019 -790
61289 293492 342974 -9267 13044 -796
61323 293513 342964 -9283 13070 -807
61368 293603 343059 -9277 13060 -809
61397 293572 343030 -9284 13039 -807
61399 293393 342820 -9303 13023 -809
61390 293230 342659 -9310 13028 -812
61367 293098 342546 -9312 13041 -840
61341 293041 342519 -9318 13055 -845
61312 293016 342497 -9329 13044 -831
61290 293015 342511 -9308 12993 -855
61277 293037 342542 -9300 13003 -863
61264 293055 342571 -9334 13094 -848
61255 293076 342584 -9346 13120 -843
61253 293086 342588 -9311 13068 -855
61253 293103 342597 -9282 13044 -859
61258 293140 342640 -9270 13040 -846
61264 293140 342634 -9261 13057 -840
61265 293126 342610 -9263 13103 -848
61266 293096 342586 -9261 13111 -858
61260 293080 342565 -9269 13085 -868
61254 293061 342548 -9281 13064 -872
61252 293059 342552 -9271 13069 -887
61246 293063 342551 -9270 13041 -898
61248 293074 342571 -9282 13047 -888
61251 293094 342585 -9287 13077 -875
61251 293105 342591 -9270 13129 -890
61256 293124 342605 -9267 13167 -904
61261 293139 342601 -9275 13130 -882
61271 293165 342618 -9288 13075 -854
61283 293194 342643 -9307 13059 -850
61296 293224 342655 -9327 13078 -874
61309 293252 342694 -9320 13058 -856
61321 293273 342690 -9307 13038 -827
61341 293301 342720 -9291 13040 -815
61355 293327 342742 -9287 13047 -823
61371 293346 342757 -9293 13061 -827
61385 293373 342771 -9299 13059 -819
61405 293416 342810 -9304 13051 -816
61423 293442 342842 -9307 13053 -814
61438 293460 342808 -9308 13066 -813
61465 293523 342896 -9299 13084 -827
61484 293506 342868 -9288 13068 -836
61477 293329 342657 -9303 13041 -820
61443 293151 342480 -9319 13016 -807
61394 293007 342361 -9319 13024 -806
61330 292920 342316 -9320 13069 -826
61269 292886 342278 -9299 13066 -860
61219 292862 342301 -9307 13049 -858
61171 292875 342312 -9344 13076 -806
61128 292876 342321 -9337 13086 -790
61091 292880 342316 -9313 13063 -827
61062 292869 342310 -9281 13034 -837
61038 292870 342301 -9260 13017 -817
61021 292903 342344 -9258 13020 -807
61007 292895 342333 -9254 13044 -801
60984 292881 342298 -9256 13103 -823
60967 292860 342269 -9266 13137 -853
60943 292830 342247 -9277 13124 -842
60917 292800 342220 -9276 13090 -829
60896 292788 342206 -9273 13066 -839
60874 292784 342202 -9275 13089 -860
60855 292793 342190 -9275 13100 -860
60840 292780 342199 -9264 13080 -845
60830 292800 342189 -9250 13068 -847
60820 292808 342199 -9253 13072 -843
60818 292824 342207 -9264 13090 -834
60816 292849 342220 -9290 13110 -825
60818 292865 342229 -9312 13096 -807
60825 292885 342254 -9312 13059 -788
60828 292909 342260 -9307 13038 -780
60837 292934 342281 -9295 13071 -812
60847 292963 342286 -9298 13040 -793
60858 292987 342307 -9293 13023 -780
60868 293013 342326 -9278 13020 -782
60878 293033 342329 -9266 13023 -779
60892 293078 342369 -9277 13045 -797
60908 293126 342438 -9294 13058 -822
60923 293175 342479 -9304 13057 -818
60943 293198 342473 -9311 13063 -806
60967 293271 342555 -9313 13076 -804
60983 293246 342522 -9313 13081 -801
60967 293068 342312 -9316 13051 -790
60925 292886 342145 -9311 13012 -789
60854 292760 342028 -9312 13014 -785
60772 292662 341954 -9310 13018 -788
60692 292613 341935 -9277 13024 -841
60625 292608 341962 -9288 13057 -839
60566 292627 341990 -9330 13084 -780
60520 292624 342013 -9333 13087 -774
60480 292644 342027 -9319 13083 -792
60446 292644 342016 -9304 13096 -818
60422 292649 342020 -9272 13081 -826
60407 292694 342088 -9234 13058 -817
60395 292689 342067 -9227 13066 -824
60378 292658 342032 -9242 13097 -832
60354 292615 341995 -9262 13134 -850
60325 292589 341970 -9289 13165 -867
60295 292573 341959 -9290 13151 -850
60273 292582 341960 -9264 13114 -837
60253 292609 342007 -9264 13102 -829
60243 292648 342040 -9277 13131 -834
60238 292689 342102 -9269 13154 -852
60240 292762 342150 -9242 13142 -867
60247 292789 342175 -9228 13115 -879
60257 292806 342167 -9237 13079 -878
60266 292831 342189 -9263 13072 -865
60282 292877 342228 -9296 13085 -843
60303 292949 342295 -9315 13069 -830
60333 293049 342410 -9319 13043 -820
60366 293204 342565 -9314 13034 -796
60405 293347 342734 -9301 13074 -804
60442 293502 342900 -9281 13065 -806
60486 293654 343052 -9266 13059 -811
60524 293786 343203 -9260 13059 -807
60572 293962 343394 -9275 13078 -796
60622 294159 343637 -9285 13111 -810
60667 294336 343808 -9281 13107 -822
60715 294539 344043 -9289 13061 -794
60771 294747 344291 -9300 13017 -762
60807 294891 344456 -9316 12988 -787
60811 294835 344405 -9324 13002 -771
60785 294762 344365 -9315 13016 -767
60731 294724 344353 -9303 12979 -785
60672 294750 344434 -9329 12926 -780
60612 294813 344549 -9375 12979 -771
60560 294869 344620 -9388 13059 -754
60531 294937 344713 -9372 13074 -740
60512 295003 344780 -9348 13085 -774
60504 295082 344853 -9324 13102 -821
60500 295107 344858 -9320 13088 -847
60506 295179 344932 -9328 13053 -848
60519 295256 345012 -9334 13046 -851
60529 295298 345062 -9353 13045 -857
60527 295307 345093 -9379 13035 -857
60514 295310 345090 -9393 13054 -869
60494 295318 345121 -9387 13048 -878
60477 295346 345164 -9390 12991 -867
60457 295370 345204 -9411 12954 -846
60444 295366 345216 -9436 12963 -866
60434 295393 345223 -9440 12964 -865
60430 295392 345213 -9448 12941 -853
60431 295390 345195 -9470 12918 -841
60431 295384 345167 -9486 12919 -818
60429 295327 345063 -9476 12954 -820
60426 295209 344868 -9475 12973 -832
60422 295067 344655 -9486 12949 -806
60418 294859 344374 -9473 12921 -788
60407 294631 344049 -9458 12917 -801
60394 294447 343784 -9468 12935 -803
60388 294313 343600 -9473 12930 -775
60384 294198 343429 -9468 12903 -752
60374 294079 343261 -9455 12889 -748
60370 294018 343176 -9438 12892 -759
60379 294099 343283 -9457 12902 -770
60381 294114 343308 -9468 12932 -771
60378 294092 343269 -9458 12939 -765
60388 294153 343351 -9459 12901 -750
60390 294182 343375 -9469 12877 -733
60367 294058 343257 -9483 12899 -749
60296 293827 343023 -9490 12930 -742
60195 293632 342849 -9491 12911 -706
60076 293527 342792 -9487 12871 -726
59951 293415 342696 -9506 12888 -740
59827 293265 342526 -9537 12938 -718
59723 293193 342471 -9535 12958 -714
59643 293239 342558 -9506 12955 -733
59585 293371 342739 -9474 12933 -737
59538 293498 342929 -9440 12925 -723
59515 293679 343164 -9428 12990 -760
59491 293857 343401 -9436 12952 -769
59469 294038 343672 -9466 12912 -771
59435 294154 343853 -9505 12888 -760
59400 294213 343972 -9523 12894 -753
59368 294284 344075 -9508 12936 -786
59346 294343 344158 -9516 12957 -805
59321 294433 344273 -9573 12901 -773
59301 294557 344437 -9625 12833 -739
59285 294669 344588 -9685 12762 -739
59258 294669 344574 -9726 12757 -733
59234 294594 344438 -9791 12736 -716
59226 294525 344344 -9859 12705 -697
59207 294469 344273 -9916 12691 -680
59191 294427 344193 -9941 12666 -672
59177 294497 344335 -9981 12607 -655
59185 294772 344746 -10022 12587 -631
59190 294906 344944 -10039 12626 -635
59192 294871 344863 -10079 12630 -649
59194 294816 344780 -10132 12528 -649
59204 294764 344698 -10189 12458 -626
59211 294635 344485 -10218 12503 -584
59221 294425 344174 -10239 12548 -547
59219 294211 343889 -10269 12571 -551
59218 294035 343660 -10235 12601 -590
59229 293899 343439 -10148 12643 -633
59251 293766 343251 -10114 12649 -654
59277 293687 343143 -10136 12634 -657
59312 293732 343183 -10152 12633 -652
59339 293712 343169 -10200 12603 -613
59332 293595 343051 -10246 12517 -569
59273 293405 342885 -10233 12451 -542
59178 293249 342765 -10203 12443 -542
59073 293108 342636 -10221 12468 -512
58976 292997 342548 -10253 12486 -459
58891 292937 342529 -10203 12448 -466
58820 292931 342540 -10092 12444 -505
58770 292948 342591 -10008 12516 -534
58735 293027 342705 -9965 12594 -526
58708 293142 342878 -9876 12655 -565
58696 293258 343036 -9887 12641 -564
58698 293344 343143 -9907 12644 -565
58695 293385 343183 -9944 12660 -565
58679 293293 343044 -9968 12674 -573
58663 293195 342935 -9954 12708 -619
58649 293151 342851 -9939 12730 -640
58641 293199 342960 -9980 12731 -608
58636 293254 343021 -10015 12720 -589
58637 293287 343092 -9955 12642 -666
58644 293331 343152 -9944 12632 -664
58655 293365 343183 -9930 12644 -634
58669 293365 343164 -9951 12666 -628
58692 293379 343161 -9969 12680 -617
58715 293406 343183 -9958 12689 -602
58743 293429 343227 -9954 12688 -591
58777 293468 343252 -9969 12658 -581
58814 293517 343303 -9969 12632 -575
58849 293572 343355 -9920 12659 -603
58886 293605 343394 -9917 12682 -598
58922 293626 343392 -9917 12688 -576
58963 293632 343385 -9916 12696 -571
59002 293634 343345 -9920 12704 -575
59044 293647 343357 -9900 12699 -593
59081 293671 343370 -9868 12691 -624
59120 293679 343349 -9878 12681 -614
59164 293720 343397 -9916 12672 -580
59212 293760 343429 -9929 12659 -579
59234 293660 343315 -9888 12641 -639
59214 293463 343086 -9888 12656 -662
59165 293264 342910 -9954 12694 -606
59109 293145 342833 -9973 12717 -582
59053 293090 342798 -9927 12711 -607
59008 293072 342795 -9863 12702 -623
58977 293066 342821 -9807 12706 -620
58960 293079 342838 -9776 12701 -590
58950 293101 342875 -9764 12701 -576
58950 293095 342885 -9765 12711 -598
58950 293086 342874 -9767 12717 -629
58963 293097 342874 -9783 12732 -646
58977 293127 342914 -9782 12740 -643
58996 293108 342896 -9765 12736 -658
59009 293099 342873 -9773 12728 -671
59025 293109 342889 -9794 12715 -657
59037 293122 342908 -9798 12721 -657
59051 293137 342943 -9789 12732 -680
59070 293153 342965 -9791 12730 -672
59096 293178 342982 -9786 12726 -655
59123 293198 343017 -9782 12724 -665
59158 293229 343048 -9803 12726 -657
59192 293275 343066 -9834 12719 -629
59229 293298 343090 -9830 12714 -614
59269 293330 343109 -9816 12719 -601
59312 293374 343149 -9809 12729 -597
59357 293435 343207 -9794 12751 -613
59408 293512 343307 -9774 12753 -626
59463 293608 343389 -9762 12723 -620
59518 293691 343474 -9771 12703 -607
59573 293768 343551 -9784 12740 -619
59630 293839 343620 -9788 12740 -625
59690 293949 343737 -9787 12727 -624
59749 294029 343800 -9780 12693 -624
59812 294057 343803 -9795 12688 -611
59875 294137 343877 -9807 12709 -603
59939 294162 343882 -9778 12719 -637
59972 294044 343756 -9775 12724 -671
59980 293887 343582 -9823 12749 -648
59977 293783 343492 -9855 12776 -610
59968 293748 343495 -9837 12754 -609
59966 293736 343513 -9804 12709 -630
59973 293786 343561 -9785 12688 -634
59987 293835 343621 -9763 12690 -635
60011 293876 343654 -9744 12705 -654
60035 293899 343677 -9736 12744 -693
60059 293918 343691 -9735 12788 -727
60095 293956 343707 -9744 12799 -731
60135 294022 343784 -9752 12792 -712
60174 294042 343798 -9739 12786 -704
60210 294051 343792 -9720 12785 -734
60246 294063 343805 -9731 12781 -724
60280 294090 343829 -9752 12771 -697
60315 294121 343862 -9750 12759 -716
60347 294155 343909 -9733 12743 -726
60385 294203 343940 -9713 12737 -714
60422 294242 343953 -9704 12758 -718
60465 294272 343992 -9719 12775 -713
60505 294305 344013 -9744 12771 -682
60549 294359 344046 -9754 12766 -672
60595 294398 344074 -9729 12797 -680
60644 294448 344121 -9724 12786 -652
60691 294494 344160 -9710 12766 -647
60746 294563 344208 -9702 12766 -624
60799 294609 344250 -9677 12773 -629
60852 294666 344277 -9659 12788 -656
60905 294715 344322 -9657 12795 -658
60961 294767 344364 -9666 12772 -658
61018 294824 344408 -9691 12755 -657
61075 294875 344437 -9692 12768 -684
61129 294919 344458 -9693 12761 -665
61190 294958 344469 -9682 12760 -654
61243 294989 344488 -9675 12756 -653
61299 295040 344499 -9684 12737 -651
61351 295054 344489 -9688 12749 -649
61408 295076 344466 -9684 12780 -664
61463 295115 344490 -9670 12784 -694
61500 295050 344404 -9693 12790 -698
61514 294837 344174 -9728 12820 -662
61518 294686 343997 -9719 12833 -671
61513 294588 343934 -9681 12815 -725
61507 294551 343920 -9644 12804 -734
61502 294535 343922 -9615 12797 -721
61506 294568 343946 -9597 12790 -726
61512 294596 343996 -9601 12818 -746
61527 294645 344039 -9621 12862 -771
61539 294677 344079 -9647 12862 -783
61559 294697 344089 -9664 12841 -767
61585 294750 344141 -9679 12800 -774
61613 294801 344200 -9675 12756 -805
61635 294796 344202 -9678 12754 -784
61653 294799 344183 -9696 12766 -765
61670 294789 344181 -9694 12773 -773
61691 294800 344195 -9688 12772 -767
61711 294821 344223 -9676 12768 -762
61733 294854 344259 -9686 12784 -755
61754 294900 344304 -9704 12793 -743
61782 294936 344346 -9708 12782 -731
61810 294980 344378 -9709 12783 -715
61847 295040 344445 -9665 12789 -756
61880 295085 344479 -9666 12779 -719
61913 295141 344509 -9667 12771 -696
61948 295165 344551 -9661 12767 -687
61988 295219 344596 -9664 12759 -679
62023 295263 344621 -9669 12789 -691
62065 295301 344654 -9650 12820 -706
62104 295353 344696 -9652 12802 -707
62143 295396 344733 -9683 12787 -699
62182 295438 344766 -9686 12768 -710
62226 295496 344814 -9691 12750 -716
62261 295541 344857 -9698 12758 -711
62302 295579 344891 -9696 12763 -718
62343 295623 344914 -9688 12759 -729
62384 295679 344977 -9695 12779 -731
62418 295721 345000 -9699 12789 -727
62456 295742 345015 -9675 12748 -729
62502 295819 345082 -9678 12710 -736
62550 295895 345182 -9743 12791 -699
62580 295827 345089 -9715 12798 -726
62589 295650 344882 -9679 12787 -740
62580 295520 344774 -9657 12783 -712
62572 295421 344703 -9638 12784 -681
62555 295376 344654 -9621 12792 -686
62544 295372 344669 -9620 12810 -718
62532 295401 344716 -9625 12807 -740
62529 295432 344767 -9643 12801 -737
62533 295478 344789 -9657 12805 -719
62540 295497 344808 -9643 12793 -733
62548 295520 344824 -9642 12771 -748
62567 295584 344879 -9674 12751 -726
62586 295614 344913 -9704 12747 -718
62603 295612 344902 -9710 12757 -729
62611 295593 344880 -9717 12778 -732
62613 295563 344837 -9715 12805 -748
62619 295538 344805 -9706 12789 -744
62625 295529 344800 -9726 12751 -705
62633 295555 344828 -9744 12746 -696
62642 295580 344852 -9643 12793 -733
62654 295612 344885 -9642 12771 -748
62663 295649 344912 -9674 12751 -726
62678 295687 344950 -9704 12747 -718
62695 295716 344966 -9710 12757 -729
62716 295736 344992 -9717 12778 -732
62738 295783 345023 -9715 12805 -748
62760 295827 345069 -9706 12789 -744
62788 295866 345103 -9726 12751 -705
62814 295911 345127 -9744 12746 -696
62844 295960 345162 -9705 12822 -746
62871 296000 345195 -9691 12810 -721
62904 296034 345224 -9685 12789 -684
62935 296083 345274 -9691 12774 -656
62968 296127 345306 -9696 12763 -639
62997 296164 345344 -9685 12776 -662
63032 296229 345401 -9669 12788 -692
63063 296258 345422 -9656 12767 -695
63099 296295 345419 -9666 12759 -695
63135 296368 345514 -9673 12772 -704
63164 296386 345518 -9678 12776 -710
63173 296228 345314 -9697 12763 -701
63157 296034 345097 -9691 12765 -697
63123 295880 344980 -9664 12770 -692
63081 295786 344908 -9642 12766 -690
63040 295734 344878 -9646 12780 -694
63006 295740 344903 -9657 12797 -688
62975 295759 344942 -9642 12784 -696
62953 295788 344967 -9658 12770 -700
62934 295805 344979 -9711 12828 -654
62925 295812 344988 -9713 12816 -673
62914 295822 344986 -9687 12782 -676
