2025-07-21 16:20:30    绿光---红外光---红光---X轴---Y轴---Z轴
38868 303809 290113 -6068 10160 -11506
38920 303829 290102 -6053 10180 -11486
38978 303846 290118 -6066 10151 -11492
39031 303863 290118 -6084 10124 -11498
39092 303912 290144 -6086 10113 -11521
39149 303930 290143 -6060 10125 -11515
39214 303965 290167 -6031 10142 -11486
39277 304038 290214 -6043 10141 -11474
39341 304070 290221 -6065 10134 -11478
39409 304105 290220 -6068 10135 -11492
39467 304124 290207 -6023 10216 -11478
39488 304020 290124 -6040 10188 -11507
39429 303902 290080 -6045 10167 -11543
39322 303849 290042 -6049 10135 -11553
39191 303797 290022 -6068 10138 -11516
39048 303754 290013 -6082 10133 -11470
38925 303719 289994 -6049 10136 -11488
38831 303688 289989 -6034 10169 -11486
38767 303661 289980 -6089 10157 -11443
38715 303659 289962 -5987 10204 -11492
38679 303633 289953 -5868 10266 -11462
38654 303633 289966 -5970 10230 -11467
38648 303644 289975 -6077 10127 -11506
38655 303614 289939 -6092 10099 -11529
38653 303588 289922 -6026 10142 -11506
38650 303579 289925 -6018 10178 -11483
38640 303575 289920 -6079 10145 -11485
38633 303568 289929 -6112 10098 -11482
38627 303549 289935 -6007 10192 -11463
38626 303538 289926 -6023 10222 -11483
38632 303540 289942 -6093 10179 -11514
38653 303556 289954 -6085 10168 -11489
38680 303563 289961 -6063 10215 -11469
38714 303593 289975 -6058 10212 -11460
38755 303612 289990 -6087 10168 -11468
38800 303604 289992 -6101 10124 -11506
38850 303629 289996 -6072 10127 -11497
38900 303648 290027 -6061 10177 -11460
38955 303686 290034 -6074 10239 -11425
39012 303733 290054 -6082 10226 -11424
39065 303752 290055 -6068 10182 -11449
39119 303788 290056 -6042 10172 -11448
39180 303806 290071 -6045 10153 -11448
39240 303817 290074 -6054 10145 -11450
39297 303839 290078 -6048 10168 -11449
39359 303889 290104 -6049 10181 -11471
39417 303948 290123 -6046 10174 -11507
39481 303997 290150 -6047 10166 -11499
39541 304022 290170 -6032 10213 -11458
39603 304087 290196 -6026 10218 -11450
39667 304183 290235 -6049 10161 -11483
39730 304196 290238 -6058 10144 -11500
39795 304249 290243 -6054 10151 -11511
39846 304273 290230 -6054 10169 -11524
39830 304197 290176 -6051 10173 -11526
39742 304115 290145 -6053 10159 -11521
39607 304040 290106 -6076 10133 -11508
39452 303985 290093 -6087 10109 -11523
39298 303946 290069 -6014 10228 -11471
39161 303945 290073 -6095 10157 -11508
39062 303957 290078 -6065 10132 -11583
38984 303949 290052 -5908 10194 -11545
38924 303943 290050 -5907 10261 -11514
38875 303928 290024 -6075 10185 -11525
38839 303935 290021 -6170 10095 -11526
38825 303967 290030 -6130 10075 -11522
38818 303950 290021 -6070 10113 -11514
38801 303943 290012 -6105 10142 -11485
38777 303941 290017 -6116 10116 -11491
38748 303946 290009 -6097 10119 -11540
38723 303974 290025 -6082 10139 -11515
38696 303982 290023 -6121 10146 -11499
38676 303995 290028 -6157 10135 -11518
38663 303995 290033 -6135 10145 -11492
38663 304005 290022 -6088 10155 -11472
38669 304007 290017 -6089 10139 -11476
38683 304007 290003 -6139 10157 -11422
38702 303982 289978 -6115 10171 -11401
38728 303979 289958 -6117 10148 -11415
38756 303981 289949 -6123 10123 -11431
38787 303978 289924 -6117 10099 -11449
38817 303981 289918 -6097 10129 -11444
38855 303982 289887 -6090 10170 -11403
38891 303999 289871 -6102 10148 -11387
38926 304005 289860 -6119 10120 -11402
38963 304017 289836 -6124 10128 -11399
38999 304037 289821 -6115 10186 -11395
39036 304047 289803 -6113 10217 -11423
39075 304064 289794 -6116 10200 -11462
39114 304069 289776 -6122 10188 -11469
39152 304089 289771 -6136 10178 -11454
39195 304116 289779 -6146 10178 -11456
39240 304111 289769 -6139 10195 -11433
39290 304168 289767 -6127 10173 -11405
39331 304185 289733 -6137 10125 -11415
39308 304091 289661 -6158 10120 -11413
39213 303988 289605 -6130 10202 -11397
39067 303885 289542 -6100 10284 -11367
38909 303808 289505 -6145 10223 -11324
38754 303741 289488 -6209 10188 -11345
38621 303714 289477 -6164 10208 -11418
38523 303695 289467 -6078 10252 -11424
38450 303673 289458 -6141 10281 -11391
38402 303662 289445 -6223 10199 -11376
38366 303647 289429 -6203 10161 -11347
38347 303644 289425 -6162 10176 -11316
38352 303640 289415 -6208 10242 -11294
38357 303623 289415 -6203 10199 -11318
38350 303618 289405 -6189 10174 -11350
38333 303592 289407 -6178 10161 -11344
38313 303576 289411 -6209 10223 -11306
38293 303574 289405 -6244 10253 -11281
38276 303564 289421 -6199 10236 -11283
38262 303584 289438 -6146 10258 -11306
38260 303581 289438 -6146 10251 -11304
38267 303581 289446 -6179 10292 -11269
38280 303617 289467 -6156 10288 -11271
38307 303636 289487 -6153 10272 -11287
38339 303667 289493 -6155 10245 -11298
38375 303679 289501 -6149 10234 -11297
38417 303715 289515 -6129 10267 -11290
38463 303739 289534 -6115 10287 -11290
38513 303781 289557 -6124 10273 -11285
38563 303811 289556 -6133 10248 -11275
38610 303820 289564 -6136 10241 -11266
38658 303851 289588 -6139 10277 -11253
38707 303899 289621 -6141 10276 -11262
38762 303928 289645 -6145 10240 -11292
38818 303960 289680 -6153 10233 -11308
38874 304023 289721 -6150 10237 -11299
38933 304076 289757 -6133 10256 -11298
38992 304090 289764 -6127 10256 -11323
39055 304129 289785 -6145 10214 -11334
39104 304139 289757 -6163 10184 -11337
39096 304081 289718 -6137 10217 -11352
39003 303997 289699 -6118 10316 -11325
38858 303919 289680 -6161 10309 -11245
38690 303879 289671 -6203 10238 -11284
38520 303809 289655 -6129 10211 -11372
38373 303775 289670 -6041 10243 -11343
38261 303755 289678 -6117 10255 -11327
38175 303756 289695 -6238 10200 -11344
38111 303773 289729 -6240 10188 -11353
38068 303810 289772 -6164 10192 -11363
38038 303858 289845 -6149 10213 -11343
38033 303897 289914 -6198 10253 -11321
38044 303914 289937 -6212 10236 -11317
38061 303921 289958 -6193 10202 -11342
38086 304065 290051 -6180 10210 -11366
38092 304192 290164 -6185 10212 -11326
38098 304300 290274 -6221 10181 -11345
38100 304404 290379 -6192 10157 -11434
38108 304507 290490 -6130 10217 -11418
38115 304617 290603 -6125 10228 -11339
38138 304722 290695 -6169 10142 -11302
38162 304834 290779 -6200 10203 -11332
38198 304962 290879 -6161 10207 -11371
38235 305053 290935 -6169 10185 -11393
38273 305133 291018 -6177 10174 -11404
38322 305183 291089 -6170 10188 -11402
38373 305274 291168 -6148 10227 -11364
38424 305364 291228 -6134 10242 -11327
38473 305434 291283 -6140 10231 -11331
38523 305462 291306 -6146 10219 -11303
38577 305490 291336 -6132 10272 -11284
38633 305538 291371 -6116 10238 -11314
38688 305570 291395 -6115 10211 -11299
38737 305566 291392 -6125 10209 -11315
38790 305573 291390 -6130 10235 -11293
38840 305565 291375 -6115 10276 -11282
38289 304408 290606 -6198 10214 -11324
38164 304333 290569 -6202 10177 -11360
38068 304265 290521 -6150 10202 -11362
37995 304230 290503 -6140 10255 -11332
37935 304203 290478 -6166 10238 -11314
37883 304159 290457 -6171 10208 -11312
37850 304142 290458 -6159 10217 -11338
37836 304119 290428 -6144 10200 -11383
37821 304083 290413 -6168 10198 -11339
37803 304079 290417 -6241 10217 -11313
37785 304057 290410 -6244 10190 -11330
37764 304033 290401 -6168 10216 -11327
37747 304007 290404 -6122 10248 -11341
37736 304007 290407 -6175 10246 -11328
37738 303971 290404 -6233 10227 -11291
37749 303932 290386 -6202 10207 -11281
37775 303913 290388 -6164 10223 -11306
37809 303946 290404 -6155 10216 -11317
37850 303935 290411 -6158 10223 -11301
37899 303935 290402 -6155 10261 -11311
37953 303957 290419 -6151 10263 -11325
38010 303994 290441 -6147 10225 -11313
38065 304020 290444 -6137 10204 -11323
38122 304050 290443 -6137 10282 -11325
38183 304074 290459 -6144 10244 -11350
38242 304095 290473 -6137 10217 -11357
38301 304134 290484 -6134 10218 -11333
38362 304162 290501 -6147 10240 -11299
38424 304206 290520 -6156 10268 -11287
38484 304228 290544 -6157 10258 -11321
38549 304267 290556 -6151 10232 -11351
38609 304297 290573 -6140 10223 -11356
38675 304373 290616 -6181 10273 -11337
38743 304363 290604 -6150 10277 -11359
38816 304391 290610 -6117 10277 -11333
38877 304413 290589 -6161 10256 -11295
38876 304315 290535 -6193 10229 -11349
38785 304221 290481 -6053 10269 -11388
38643 304135 290441 -5966 10365 -11347
38478 304073 290423 -6066 10311 -11353
38309 304033 290416 -6157 10188 -11383
38165 304009 290410 -6150 10197 -11363
38056 303971 290406 -6079 10262 -11340
37969 303953 290398 -6085 10277 -11330
37909 303930 290396 -6134 10218 -11326
37854 303926 290394 -6139 10187 -11335
37811 303911 290391 -6129 10210 -11366
37782 303923 290394 -6131 10246 -11393
37777 303909 290391 -6165 10262 -11346
37765 303878 290382 -6207 10222 -11328
37756 303847 290370 -6194 10211 -11354
37736 303842 290373 -6142 10276 -11325
37729 303837 290383 -6123 10305 -11291
37719 303839 290384 -6162 10265 -11299
37715 303852 290403 -6176 10217 -11316
37720 303852 290409 -6139 10220 -11338
37735 303862 290414 -6127 10238 -11347
37758 303887 290436 -6139 10251 -11310
37792 303922 290460 -6149 10275 -11275
37828 303939 290463 -6153 10261 -11273
37872 303948 290461 -6146 10251 -11292
37919 303968 290464 -6139 10262 -11314
37970 303983 290479 -6134 10292 -11297
38025 304023 290509 -6134 10291 -11287
38082 304069 290524 -6146 10249 -11317
38137 304094 290525 -6153 10219 -11343
38187 304118 290537 -6143 10199 -11373
38240 304167 290550 -6141 10212 -11385
38297 304210 290570 -6156 10244 -11366
38352 304232 290578 -6164 10244 -11362
38407 304247 290576 -6156 10237 -11369
38462 304294 290608 -6139 10246 -11364
38522 304330 290622 -6113 10321 -11308
38580 304363 290645 -6138 10251 -11306
38647 304439 290671 -6162 10201 -11291
38707 304474 290674 -6144 10201 -11299
38770 304502 290685 -6129 10248 -11305
38832 304520 290680 -6197 10277 -11260
38854 304443 290629 -6251 10251 -11294
38787 304338 290577 -6130 10268 -11351
38665 304247 290532 -6031 10372 -11305
38514 304181 290520 -6256 10296 -11244
38353 304146 290517 -6251 10259 -11278
38210 304138 290525 -6166 10270 -11316
38102 304124 290534 -6147 10272 -11330
38022 304101 290518 -6177 10214 -11324
37961 304094 290509 -6195 10199 -11302
37912 304099 290513 -6177 10233 -11322
37872 304080 290515 -6143 10233 -11357
37850 304069 290507 -6176 10215 -11323
37847 304053 290491 -6222 10214 -11297
37843 304003 290480 -6178 10270 -11283
37841 303986 290457 -6165 10272 -11288
37832 303970 290460 -6201 10217 -11325
37823 303936 290455 -6206 10189 -11352
37816 303928 290452 -6166 10249 -11344
37813 303934 290462 -6158 10295 -11333
37823 303950 290463 -6177 10251 -11305
37843 303967 290466 -6187 10234 -11275
37869 303965 290465 -6162 10295 -11255
37904 303986 290478 -6148 10352 -11239
37945 304001 290492 -6148 10333 -11262
37992 304037 290496 -6142 10281 -11285
38037 304061 290512 -6152 10238 -11279
38088 304087 290518 -6158 10227 -11272
38141 304122 290544 -6159 10255 -11253
38197 304153 290574 -6153 10274 -11255
38255 304202 290591 -6147 10263 -11282
38308 304236 290596 -6139 10254 -11293
38363 304267 290612 -6122 10268 -11301
38421 304283 290616 -6133 10317 -11308
38484 304309 290624 -6152 10310 -11302
38543 304353 290658 -6154 10250 -11290
38607 304382 290678 -6147 10235 -11295
38669 304409 290681 -6131 10237 -11311
38733 304397 290684 -6135 10249 -11315
38799 304389 290686 -6165 10261 -11296
38868 304417 290713 -6164 10258 -11292
38939 304425 290718 -6145 10259 -11320
39014 304438 290716 -6180 10254 -11288
39086 304455 290697 -6133 10317 -11308
39134 304397 290651 -6152 10310 -11302
39097 304270 290582 -6154 10250 -11290
38995 304165 290537 -6147 10235 -11295
38856 304096 290520 -6131 10237 -11311
38707 304001 290483 -6135 10249 -11315
38571 303948 290468 -6165 10261 -11296
38468 303904 290449 -6164 10258 -11292
38396 303864 290431 -6145 10259 -11320
38347 303850 290423 -6180 10254 -11288
38313 303874 290440 -6146 10326 -11308
38281 303879 290433 -6038 10399 -11281
38263 303886 290437 -6100 10374 -11273
38265 303907 290435 -6183 10235 -11313
38265 303928 290442 -6208 10175 -11338
38257 303920 290436 -6151 10218 -11327
38247 303897 290425 -6112 10262 -11320
38234 303899 290424 -6140 10220 -11316
38224 303887 290426 -6172 10174 -11310
38214 303907 290441 -6180 10211 -11321
38217 303939 290461 -6154 10239 -11338
38227 303946 290462 -6172 10224 -11317
38243 303957 290462 -6224 10198 -11297
38269 303991 290477 -6208 10216 -11316
38304 304025 290488 -6153 10286 -11312
38338 304041 290487 -6129 10316 -11266
38377 304066 290506 -6158 10278 -11244
38416 304100 290502 -6179 10209 -11280
38461 304131 290521 -6165 10209 -11323
38506 304178 290529 -6146 10331 -11334
38551 304209 290541 -6132 10306 -11330
38599 304233 290552 -6120 10271 -11326
38649 304281 290568 -6128 10254 -11323
38691 304331 290579 -6135 10228 -11316
38740 304360 290586 -6138 10237 -11294
38784 304378 290594 -6130 10254 -11283
38830 304425 290601 -6130 10229 -11317
38877 304476 290624 -6142 10200 -11355
38928 304514 290636 -6150 10215 -11339
38975 304552 290654 -6156 10265 -11299
39024 304620 290681 -6152 10259 -11300
39073 304650 290683 -6150 10215 -11334
39129 304665 290662 -6163 10188 -11358
39176 304697 290655 -6170 10170 -11359
39202 304662 290616 -6167 10190 -11362
39153 304570 290557 -6160 10223 -11343
39029 304493 290510 -6158 10225 -11337
38865 304404 290467 -6165 10195 -11357
38697 304363 290438 -6179 10194 -11351
38533 304315 290413 -6143 10271 -11322
38400 304290 290397 -6126 10280 -11293
38295 304269 290366 -6194 10210 -11268
38216 304242 290334 -6229 10180 -11302
38151 304230 290320 -6163 10213 -11366
38092 304205 290275 -6124 10301 -11341
38045 304177 290218 -6207 10288 -11314
38015 304154 290173 -6278 10191 -11314
37986 304110 290120 -6252 10158 -11295
37952 304055 290082 -6201 10173 -11281
37908 304026 290043 -6215 10222 -11278
37866 303994 290021 -6235 10215 -11286
37827 303956 289990 -6216 10166 -11290
37792 303933 289967 -6187 10177 -11301
37766 303921 289959 -6160 10201 -11277
37752 303902 289945 -6217 10257 -11234
37748 303907 289944 -6292 10254 -11229
37754 303913 289946 -6265 10238 -11221
37768 303939 289950 -6207 10280 -11227
37788 303934 289960 -6211 10269 -11243
37808 303950 289958 -6328 10286 -11210
37838 303965 289954 -6276 10281 -11220
37867 303978 289969 -6238 10273 -11225
37900 303994 289976 -6230 10248 -11203
37937 304029 289987 -6223 10257 -11191
37975 304029 289991 -6221 10284 -11185
38010 304053 290004 -6211 10275 -11203
38053 304076 290011 -6195 10240 -11235
38090 304081 290022 -6201 10218 -11252
38133 304103 290035 -6241 10296 -11238
38178 304111 290045 -6230 10247 -11234
38226 304147 290078 -6212 10232 -11220
38279 304199 290119 -6185 10290 -11224
38330 304216 290130 -6187 10294 -11249
38389 304234 290132 -6236 10288 -11274
38443 304257 290135 -6231 10315 -11293
38470 304233 290109 -6181 10305 -11291
38409 304178 290112 -6180 10277 -11250
38287 304092 290068 -6204 10262 -11207
38126 303981 290052 -6196 10358 -11163
37969 303925 290027 -6191 10284 -11093
37828 303895 290027 -6255 10311 -11050
37715 303874 290026 -6262 10361 -11132
37624 303835 289996 -6176 10346 -11226
37558 303786 289988 -6169 10337 -11294
37505 303765 289990 -6212 10256 -11343
37465 303766 289991 -6217 10221 -11304
37445 303760 289991 -6198 10230 -11262
37441 303772 289982 -6179 10279 -11251
37433 303743 289972 -6165 10198 -11282
37420 303730 289976 -6160 10146 -11297
37403 303722 289986 -6151 10145 -11330
37390 303729 290009 -6144 10171 -11333
37377 303752 290016 -6196 10201 -11346
37368 303730 290022 -6235 10188 -11350
37372 303741 290031 -6196 10206 -11295
37381 303755 290043 -6153 10244 -11270
37401 303744 290032 -6252 10265 -11288
37427 303774 290047 -6251 10233 -11306
37464 303796 290063 -6214 10225 -11334
37504 303831 290073 -6186 10210 -11368
37550 303842 290098 -6188 10214 -11350
37598 303861 290106 -6190 10254 -11297
37644 303888 290129 -6175 10260 -11284
37696 303918 290150 -6167 10252 -11281
37747 303942 290160 -6159 10238 -11275
37801 303979 290169 -6145 10252 -11289
37853 303979 290177 -6137 10294 -11294
37909 304009 290182 -6139 10267 -11302
37963 304044 290205 -6147 10207 -11315
38018 304063 290223 -6148 10182 -11330
38075 304095 290243 -6139 10215 -11322
38132 304131 290255 -6135 10284 -11278
38198 304160 290274 -6134 10293 -11281
38261 304201 290306 -6133 10259 -11331
38324 304228 290322 -6140 10246 -11343
38394 304255 290316 -6136 10269 -11322
38451 304255 290298 -6126 10325 -11288
38465 304181 290263 -6134 10314 -11279
38389 304085 290227 -6134 10268 -11296
38256 303994 290186 -6127 10294 -11266
38087 303911 290157 -6159 10285 -11170
37909 303847 290126 -6228 10296 -11165
37753 303789 290108 -6173 10342 -11237
37633 303709 290091 -6055 10403 -11237
37542 303667 290079 -6081 10401 -11220
37464 303671 290071 -6192 10281 -11228
37404 303647 290048 -6207 10283 -11243
37347 303603 290030 -6121 10349 -11232
37303 303579 290033 -6103 10356 -11206
37282 303603 290038 -6154 10299 -11173
37270 303578 290034 -6184 10241 -11173
37256 303556 290043 -6164 10297 -11225
37239 303528 290041 -6127 10344 -11275
37222 303522 290056 -6100 10319 -11270
37210 303522 290063 -6157 10329 -11263
37201 303529 290087 -6215 10284 -11247
37205 303523 290087 -6060 10426 -11225
37218 303519 290112 -6090 10383 -11226
37242 303555 290129 -6141 10297 -11235
37278 303595 290159 -6161 10253 -11264
37316 303609 290172 -6148 10282 -11290
37364 303654 290200 -6142 10323 -11311
37411 303706 290236 -6149 10300 -11306
37462 303751 290271 -6151 10275 -11301
37510 303799 290291 -6137 10274 -11326
37562 303865 290360 -6107 10334 -11316
37616 303926 290419 -6111 10320 -11325
37672 303991 290488 -6122 10287 -11305
37736 304056 290569 -6136 10276 -11272
37796 304146 290645 -6132 10287 -11264
37856 304200 290704 -6119 10301 -11287
37917 304270 290755 -6126 10276 -11286
37979 304318 290805 -6141 10230 -11279
38037 304369 290850 -6152 10205 -11290
38096 304405 290871 -6159 10224 -11307
38159 304445 290897 -6138 10282 -11313
38223 304528 290951 -6111 10280 -11315
38292 304549 290977 -6113 10228 -11310
38364 304557 290975 -6131 10210 -11297
38428 304550 290959 -6165 10203 -11308
38443 304428 290869 -6183 10209 -11346
38364 304322 290832 -6166 10237 -11386
38228 304223 290787 -6158 10228 -11346
38058 304140 290763 -6177 10194 -11333
37884 304062 290731 -6078 10211 -11351
37729 304028 290718 -5958 10342 -11318
37606 303966 290677 -6013 10358 -11330
37516 303892 290633 -6119 10227 -11334
37442 303844 290611 -6155 10187 -11314
37376 303825 290600 -6116 10232 -11334
37313 303802 290580 -6114 10286 -11346
37262 303751 290555 -6154 10254 -11318
37238 303767 290554 -6159 10219 -11305
37229 303732 290540 -6138 10237 -11337
37218 303717 290537 -6128 10257 -11384
37204 303687 290523 -6101 10296 -11368
37195 303671 290525 -6135 10318 -11352
37189 303644 290515 -6173 10266 -11355
37189 303633 290517 -6111 10269 -11336
37193 303643 290513 -6078 10298 -11337
37210 303645 290524 -6122 10275 -11323
37234 303670 290543 -6169 10270 -11318
37266 303703 290559 -6150 10249 -11324
37307 303735 290591 -6121 10241 -11318
37357 303758 290610 -6128 10252 -11345
37409 303791 290641 -6151 10327 -11338
37463 303842 290664 -6131 10314 -11336
37521 303888 290693 -6114 10284 -11349
37583 303920 290719 -6118 10240 -11333
37641 303955 290729 -6127 10263 -11319
37697 303968 290735 -6116 10300 -11333
37755 303990 290757 -6105 10283 -11352
37817 304046 290777 -6111 10240 -11359
37881 304067 290806 -6110 10212 -11361
37947 304095 290818 -6107 10290 -11336
38017 304124 290853 -6118 10272 -11362
38088 304167 290880 -6124 10226 -11369
38154 304191 290883 -6125 10200 -11324
38221 304214 290900 -6110 10233 -11292
38296 304283 290948 -6092 10267 -11325
38371 304351 290997 -6093 10241 -11354
38449 304371 290990 -6107 10202 -11347
38521 304429 290990 -6106 10188 -11365
38572 304382 290948 -6093 10254 -11372
38543 304281 290888 -6101 10266 -11323
38439 304189 290846 -6161 10243 -11312
38284 304105 290825 -6163 10212 -11355
38110 304064 290819 -6056 10264 -11345
37942 304038 290806 -6043 10353 -11326
37803 303990 290805 -6149 10288 -11350
37692 303946 290778 -6203 10237 -11370
37602 303930 290792 -6157 10229 -11399
37532 303949 290811 -6108 10224 -11401
37461 303954 290809 -6119 10222 -11353
37397 303935 290809 -6156 10234 -11331
37353 303948 290823 -6168 10213 -11374
37328 303915 290802 -6154 10178 -11431
37304 303871 290762 -6121 10189 -11429
37279 303861 290772 -6150 10175 -11401
37254 303871 290806 -6215 10147 -11417
37230 303896 290828 -6200 10186 -11420
37216 303902 290858 -6136 10264 -11392
37214 303917 290886 -6100 10289 -11387
37225 303924 290901 -6101 10184 -11422
37237 303927 290874 -6136 10138 -11411
37257 303925 290870 -6151 10174 -11387
37289 303998 290911 -6098 10287 -11376
37318 303985 290885 -6043 10415 -11358
37351 304010 290909 -6137 10285 -11314
37381 304035 290942 -6228 10164 -11263
37426 304147 291054 -6168 10191 -11326
37484 304340 291231 -6126 10217 -11393
37540 304314 291224 -6119 10247 -11384
37599 304284 291201 -6127 10237 -11394
37672 304351 291240 -6134 10251 -11378
37742 304364 291250 -6154 10140 -11347
37821 304481 291336 -6098 10096 -11372
37902 304562 291412 -6047 10218 -11394
37989 304656 291545 -6036 10307 -11432
38100 304876 291762 -6155 10179 -11525
38189 305060 291884 -6251 10135 -11607
38263 305115 291919 -6106 10266 -11562
38334 305284 292034 -5957 10517 -11463
38389 305370 292071 -6318 9927 -11369
38446 305441 292101 -6027 9982 -11330
38499 305403 292050 -6047 10171 -11355
38556 305299 291953 -6078 10206 -11408
38625 305260 291903 -6122 10167 -11405
38656 305111 291770 -6155 10162 -11361
38595 304882 291614 -6174 10196 -11395
38468 304687 291510 -6115 10190 -11494
38311 304514 291403 -6047 10209 -11506
38153 304366 291308 -6195 10143 -11436
38018 304282 291274 -6189 10146 -11451
37914 304205 291270 -6118 10177 -11451
37847 304141 291261 -6099 10175 -11398
37799 304103 291249 -6136 10149 -11321
37766 304023 291229 -6136 10132 -11269
37734 303937 291170 -6108 10137 -11302
37716 303825 291118 -6104 10159 -11370
37724 303802 291107 -6102 10181 -11367
37740 303721 291045 -6149 10243 -11358
37758 303642 291001 -6178 10271 -11360
37774 303600 290976 -6130 10278 -11337
37787 303574 290967 -6097 10293 -11339
37801 303541 290948 -6108 10247 -11361
37813 303540 290944 -6167 10222 -11355
37832 303522 290942 -6186 10233 -11330
37861 303499 290924 -6140 10261 -11336
37902 303490 290913 -6116 10285 -11358
37952 303515 290927 -6120 10266 -11393
38007 303545 290943 -6119 10248 -11409
38067 303568 290945 -6101 10281 -11386
38134 303603 290959 -6086 10295 -11363
38201 303654 290983 -6093 10238 -11378
38269 303688 291001 -6106 10189 -11410
38342 303723 291019 -6099 10201 -11410
38416 303729 291017 -6073 10242 -11397
38499 303731 291042 -6070 10215 -11430
38585 303702 291063 -6101 10123 -11436
38686 303672 291143 -6119 10011 -11448
38812 303819 291280 -6077 9977 -11471
38928 304028 291396 -5887 10455 -11482
39015 304196 291450 -5998 10401 -11625
39076 304141 291348 -6021 10342 -11736
39136 304112 291277 -6003 10157 -11754
39192 304066 291181 -6021 10104 -11690
39258 304093 291180 -6029 10048 -11593
39326 304162 291212 -6039 9983 -11502
39393 304233 291234 -6058 10086 -11523
39462 304272 291235 -6040 10170 -11512
39530 304338 291257 -6119 10225 -11405
39585 304376 291245 -6072 10212 -11452
39567 304325 291216 -5957 10281 -11456
39469 304267 291194 -5970 10055 -11452
39327 304229 291236 -6098 9924 -11472
39175 304191 291282 -6173 10342 -11472
39030 304219 291305 -6115 10571 -11501
38893 304209 291249 -6044 10525 -11561
38774 304141 291162 -6049 10187 -11547
38692 304143 291149 -6141 10127 -11459
38621 304147 291139 -6122 10220 -11484
38556 304151 291122 -6110 10213 -11448
38503 304135 291098 -6158 10169 -11414
38471 304148 291094 -6180 10161 -11420
38458 304146 291088 -6043 9795 -11433
38441 303995 291021 -5950 9939 -11399
38448 303834 291065 -6057 10739 -11383
38474 303898 291111 -6208 10913 -11458
38473 303957 291068 -6212 10276 -11412
38450 304018 291028 -6072 9921 -11364
38433 304160 291092 -6042 10159 -11385
38415 304170 291080 -6118 10171 -11365
38412 304159 291068 -6140 10131 -11363
38412 304172 291054 -6131 10185 -11351
38428 304222 291065 -6133 10247 -11344
38449 304229 291058 -6009 10029 -11332
38491 304181 291123 -5880 10144 -11359
38557 304384 291262 -6090 10601 -11526
38608 304456 291176 -6559 10585 -11538
38646 304309 291057 -6249 10148 -11419
38695 304357 291045 -5829 9941 -11401
38738 304395 291049 -6025 10112 -11415
38773 304381 291026 -6105 10167 -11408
38809 304364 290976 -6142 10169 -11338
38843 304389 290964 -6155 10188 -11300
38881 304428 290966 -6054 9816 -11353
38927 304417 291026 -5972 9911 -11395
38998 304579 291193 -6094 10661 -11458
39059 304683 291197 -6307 10898 -11593
39099 304555 291001 -6249 10148 -11419
39154 304587 291003 -5829 9941 -11401
39206 304643 291009 -6025 10112 -11415
39254 304692 290997 -6105 10167 -11408
39284 304648 290943 -6142 10169 -11338
39237 304546 290873 -6155 10188 -11300
39122 304473 290844 -6054 9816 -11353
38970 304404 290886 -5972 9911 -11395
38825 304430 290998 -6094 10661 -11458
38690 304426 290979 -6307 10898 -11593
38568 304254 290806 -6073 9965 -11341
38484 304235 290784 -6096 10083 -11326
38423 304225 290767 -6189 10177 -11380
38379 304209 290770 -6121 10180 -11408
38342 304176 290745 -6101 10224 -11345
38319 304158 290752 -6031 9805 -11327
38324 304174 290771 -5978 9806 -11361
38329 304179 290778 -6087 10522 -11418
38334 304075 290802 -6245 10814 -11540
38352 304057 290887 -6486 10506 -11473
38353 304001 290818 -6226 10023 -11377
38358 304086 290864 -5946 9986 -11421
38355 304140 290896 -6086 10142 -11438
38352 304185 290947 -6115 10183 -11397
38366 304190 290969 -6170 10230 -11336
38391 304195 290980 -6210 10229 -11338
38421 304257 291037 -6159 10210 -11356
38464 304253 291067 -6042 10157 -11333
38529 304134 291123 -6050 10491 -11332
38620 304156 291182 -6343 10723 -11358
38695 304142 291081 -6270 10278 -11311
38769 304303 291191 -6023 10098 -11323
38831 304518 291303 -6084 10180 -11377
38883 304566 291322 -6136 10184 -11387
38938 304571 291324 -6124 10192 -11348
38990 304599 291338 -6099 10187 -11325
39050 304687 291390 -5993 9846 -11413
39108 304492 291321 -5939 9910 -11437
39185 304399 291281 -6074 10713 -11408
39264 304381 291203 -6271 10934 -11506
39356 304697 291391 -6239 10250 -11446
39421 304953 291528 -6061 9938 -11362
39477 304982 291550 -6050 10152 -11432
39536 304966 291518 -6085 10173 -11447
39597 305027 291540 -6104 10186 -11421
39642 305072 291551 -6115 10180 -11415
39606 304974 291485 -6043 9899 -11479
39493 304803 291435 -6004 10309 -11496
39360 304675 291422 -6144 10878 -11494
39212 304680 291391 -6225 10205 -11385
39036 304447 291207 -6141 9959 -11386
38905 304623 291325 -6066 10278 -11512
38785 304644 291353 -6089 10230 -11455
38692 304619 291341 -6148 10163 -11381
38618 304550 291286 -6170 10134 -11401
38558 304574 291307 -6067 10151 -11482
38503 304573 291295 -5780 9735 -11546
38461 304554 291298 -5797 9754 -11583
38442 304514 291259 -6142 10727 -11562
38418 304488 291252 -6538 10841 -11646
38394 304477 291246 -6362 10102 -11609
38364 304452 291251 -5921 9869 -11451
38338 304451 291244 -5973 10019 -11468
38315 304449 291248 -6065 10076 -11491
38300 304460 291250 -6110 10089 -11475
38286 304445 291234 -6120 10108 -11468
38286 304458 291194 -6141 10140 -11444
38295 304506 291195 -6186 10159 -11461
38309 304555 291182 -6184 10136 -11498
38330 304587 291179 -6141 10142 -11481
38356 304539 291174 -6151 10202 -11433
38391 303982 290979 -6174 10131 -11421
38502 303822 291025 -6157 10118 -11435
38663 304199 291317 -6136 10158 -11448
38803 304941 291698 -6156 10177 -11417
38856 304867 291541 -6178 10159 -11383
38949 304706 291425 -6171 10163 -11385
39050 304778 291400 -6166 10190 -11388
39125 304994 291422 -6164 10222 -11379
39180 305032 291363 -6014 9732 -11392
39231 305086 291350 -6190 10623 -11193
39279 305174 291377 -6184 11041 -11117
39326 305286 291458 -6162 10940 -11291
39373 305324 291508 -6097 10289 -11677
39408 304495 291262 -6018 9844 -11773
39534 304290 291359 -6110 9901 -11510
39716 304913 291678 -6170 9971 -11410
39810 305488 291835 -6149 10069 -11417
39727 305037 291506 -6144 10171 -11345
39622 305287 291755 -6147 10209 -11335
39468 305452 291961 -6194 10220 -11350
39307 305749 292267 -6165 9832 -11369
39143 305972 292491 -6082 9772 -11387
38982 305981 292547 -6169 10492 -11213
38847 305804 292441 -6267 10938 -11033
38731 305525 292255 -6159 10729 -11345
38630 305294 292064 -6028 10131 -11615
38536 305090 291878 -6032 9948 -11567
38451 304900 291692 -6129 10101 -11570
38385 304633 291476 -6213 10077 -11521
38354 304476 291334 -6198 10058 -11517
38346 304400 291304 -6136 10049 -11536
38344 304432 291366 -6128 10013 -11498
38334 304554 291461 -6165 9983 -11425
38321 304806 291668 -6175 9976 -11362
38321 305217 291980 -6153 10033 -11365
38320 305620 292303 -6134 10128 -11400
38320 305957 292575 -6089 10141 -11427
38323 306297 292842 -6133 10185 -11471
38327 306477 292982 -6175 10324 -11429
38320 306125 292842 -6094 10355 -11308
38334 305635 292814 -6063 10251 -11315
38437 305886 293377 -6147 10171 -11374
38593 306697 294258 -6203 10164 -11459
38735 307539 294950 -6157 10188 -11534
38843 308127 295249 -6094 10184 -11524
38881 307827 294686 -6101 10132 -11560
38786 305141 292582 -6141 10082 -11567
38893 305006 292463 -6145 9613 -11559
38981 305078 292458 -6017 9728 -11501
39067 304924 292311 -5955 10314 -11474
39144 304764 292169 -5869 10652 -11586
39228 304631 292045 -5536 10797 -11792
39301 304487 291920 -5287 10698 -12035
39291 303497 291571 -6154 10803 -12781
39387 303765 292139 -6114 9741 -12351
39618 304513 292911 -5372 8897 -11379
39894 305236 293599 -5661 9651 -11482
40150 305553 293852 -5941 10129 -11509
40345 305603 293635 -6010 10130 -11506
40408 304863 292752 -6255 9011 -11749
40374 303828 292029 -6238 8776 -11671
40324 303854 292040 -5916 10325 -11199
40197 303809 291990 -5848 11229 -11064
40028 303726 291945 -5745 11591 -11232
39847 303683 291923 -5539 11559 -11536
39686 303664 291908 -5407 11310 -11853
39535 303251 291733 -6006 10432 -12318
39414 302500 291624 -6184 9310 -12066
39494 302812 292166 -5713 9461 -11532
39682 303413 292720 -5829 9962 -11573
39817 304153 293147 -6003 10013 -11577
39798 304650 293186 -6066 10040 -11517
39618 303005 291946 -6038 10091 -11478
39605 303091 291986 -6234 8987 -11714
39580 303210 292034 -6142 9041 -11570
39544 303217 292020 -5903 10739 -11054
39508 303183 291992 -5946 11462 -10932
39479 303186 291971 -5803 11560 -11110
39454 303228 291993 -5804 11038 -11627
39397 302447 291686 -5920 10230 -11936
39430 302336 291873 -6004 9637 -11762
39633 302701 292107 -6034 9734 -11595
39846 303489 292512 -5982 10080 -11564
39879 303844 292518 -6026 10130 -11543
39793 302867 291829 -6083 10104 -11515
39823 303052 291900 -6078 10088 -11484
39845 303197 291964 -6280 8818 -11693
39868 303330 292028 -6001 9123 -11549
39887 303439 292064 -5609 11510 -11041
39910 303542 292098 -5775 11859 -11001
39931 303695 292146 -5857 11010 -11445
39940 303772 292142 -5988 10300 -11855
39937 303724 292047 -5988 9782 -11808
39942 303653 291914 -5962 9734 -11678
39949 303704 291903 -6018 9933 -11675
39959 303735 291912 -6012 10001 -11713
39969 303787 291941 -6020 10021 -11721
39976 303922 292065 -5942 10095 -11616
39986 304023 292146 -6018 10104 -11544
39995 304051 292175 -6065 10110 -11472
40001 304124 292194 -6096 10167 -11529
40006 304090 292148 -6119 10241 -11583
40024 304233 292222 -6044 10264 -11546
40053 304513 292431 -5963 10209 -11511
40037 304820 292688 -6000 10153 -11554
39910 304741 292650 -6076 10068 -11554
39713 304330 292381 -6066 10176 -11423
39515 303975 292159 -6056 10272 -11323
39350 303690 292009 -6154 10317 -11339
39218 303656 292004 -6252 10254 -11486
39119 303714 292063 -6185 10079 -11514
39039 303837 292113 -6102 10026 -11409
38976 303865 292086 -6101 10117 -11386
38909 304016 292107 -6187 10246 -11383
38824 304120 292085 -6292 10213 -11409
38760 304125 292046 -6254 10090 -11405
38729 304179 292108 -6271 10124 -11330
38709 304249 292163 -6235 10030 -11264
38677 304286 292211 -6240 10072 -11316
38649 304487 292399 -6274 10151 -11338
38608 304854 292688 -6270 10103 -11316
38572 305334 293054 -6268 10065 -11298
38533 305734 293370 -6236 10098 -11247
38496 305973 293527 -6225 10148 -11170
38467 305654 293287 -6315 10206 -11100
38479 305413 293128 -6437 10233 -11175
38516 305235 292993 -6428 10200 -11388
38572 305050 292897 -6267 10153 -11551
38645 304879 292813 -6189 10183 -11659
38738 304831 292791 -6268 10202 -11515
38852 304844 292847 -6320 10099 -11304
38970 304889 292907 -6325 10077 -11292
39075 305006 293029 -6276 10163 -11340
39165 305097 293133 -6207 10160 -11310
39245 305161 293209 -6235 10062 -11174
39307 305213 293263 -6317 10041 -11053
39368 305255 293289 -6319 10083 -11024
39423 305344 293348 -6268 10137 -11078
39469 305404 293390 -6265 10149 -11155
39517 305440 293392 -6332 10158 -11215
39581 305512 293406 -6374 10216 -11275
39654 305386 293284 -6307 10213 -11301
39733 305466 293302 -6247 10161 -11304
39794 305677 293385 -6235 10106 -11341
39865 306072 293595 -6220 10115 -11409
39927 306794 293968 -6218 10166 -11452
39913 307458 294304 -6214 10171 -11450
39774 308105 294628 -6240 10095 -11397
39539 308844 295109 -6273 9983 -11385
39248 309365 295505 -6291 9937 -11453
38940 309737 295783 -6364 9999 -11432
38609 309769 295716 -6420 10026 -11405
38303 309626 295484 -6339 9891 -11473
38045 309280 295051 -6211 9812 -11679
37841 308776 294521 -6188 9904 -11919
37669 308352 294178 -6272 9878 -11810
37514 307931 293943 -6210 9823 -11704
37403 307239 293566 -6183 9881 -11616
37363 306396 293123 -6185 9950 -11580
37379 305619 292681 -6200 9936 -11580
37393 304969 292298 -6234 9924 -11553
37422 304166 291854 -6195 9940 -11545
37483 303501 291498 -6140 9999 -11386
37578 303243 291425 -6143 10019 -11354
37662 303200 291472 -6336 9953 -11738
37725 303210 291530 -6229 10047 -11758
37783 303254 291585 -6182 10089 -11723
37848 303348 291661 -6290 10024 -11618
37912 303413 291735 -6423 9908 -11507
37983 303458 291756 -6406 9810 -11428
38058 303455 291781 -6308 9835 -11341
38140 303455 291781 -6267 9931 -11358
38226 303455 291783 -6315 9954 -11460
38316 303540 291841 -6370 9882 -11494
38395 303603 291877 -6361 9883 -11527
38466 303568 291833 -6323 9954 -11578
38544 303548 291793 -6277 9968 -11624
38621 303588 291797 -6256 9925 -11668
38695 303632 291793 -6245 9897 -11702
38762 303605 291767 -6232 9920 -11722
38840 303634 291776 -6249 9937 -11728
38915 303722 291804 -6280 9908 -11708
38986 303797 291838 -6263 9928 -11706
39047 303828 291825 -6209 9995 -11707
39115 303886 291850 -6227 10011 -11646
39178 304000 291907 -6271 9973 -11600
39246 304053 291923 -6260 9949 -11609
39316 304108 291922 -6221 9976 -11593
39375 304123 291896 -6193 10009 -11557
39371 304057 291831 -6197 10037 -11555
39268 303967 291783 -6198 10051 -11542
39109 303905 291754 -6204 10032 -11451
38929 303843 291733 -6237 10026 -11440
38750 303824 291720 -6194 10042 -11486
38600 303828 291738 -6115 10162 -11451
38477 303852 291762 -6228 10069 -11465
38389 303848 291755 -6275 9989 -11456
38322 303815 291724 -6253 9973 -11452
38271 303812 291712 -6235 9975 -11462
38233 303828 291729 -6229 9963 -11506
38216 303906 291762 -6217 9975 -11528
38217 303897 291745 -6206 10007 -11516
38212 303875 291732 -6211 10018 -11527
38201 303924 291760 -6273 10023 -11495
38181 303963 291784 -6337 10065 -11521
38153 303940 291763 -6297 10063 -11568
38128 303901 291742 -6228 10035 -11532
38114 303970 291790 -6203 10022 -11539
38111 304078 291878 -6208 10016 -11571
38108 304069 291855 -6214 10022 -11555
38120 304030 291821 -6224 9991 -11505
38142 304056 291833 -6249 9945 -11515
38175 304170 291902 -6221 9957 -11612
38206 304229 291909 -6062 10175 -11590
38244 304166 291869 -6146 10051 -11524
38291 304129 291844 -6197 9952 -11549
38341 304222 291888 -6111 10068 -11657
38397 304285 291902 -6015 10216 -11689
38445 304248 291882 -6054 10169 -11604
38500 304244 291871 -6136 10018 -11544
38558 304309 291902 -6139 9991 -11567
38612 304368 291930 -6098 10076 -11622
38666 304380 291925 -6093 10081 -11630
38721 304428 291940 -6126 10000 -11594
38782 304450 291968 -6139 9987 -11636
38849 304475 291950 -6127 10053 -11669
38916 304527 291951 -6118 10092 -11625
38957 304522 291914 -6103 10110 -11535
38915 304404 291836 -6116 10087 -11435
38797 304292 291776 -6156 10155 -11425
38641 304196 291716 -6134 10246 -11471
38476 304098 291689 -6049 10205 -11461
38325 304009 291638 -6044 10162 -11382
38209 303942 291611 -6117 10124 -11326
38125 303930 291614 -6131 10163 -11349
38077 303915 291630 -6089 10212 -11374
38047 303952 291665 -6086 10155 -11359
38031 303976 291695 -6126 10113 -11370
38028 303952 291692 -6126 10137 -11398
38046 303952 291696 -6130 10130 -11492
38071 303954 291703 -6153 10085 -11643
38088 303973 291737 -6135 10133 -11682
38109 304072 291835 -6068 10231 -11624
38130 304176 291924 -5984 10373 -11522
38163 304291 292027 -5961 10504 -11404
38202 304501 292155 -6002 10464 -11334
38231 304653 292248 -6039 10371 -11365
38266 304812 292357 -6059 10343 -11406
38300 304972 292461 -6052 10341 -11307
38345 305172 292599 -6062 10322 -11179
38398 305384 292737 -6097 10274 -11116
38457 305583 292850 -6131 10235 -11113
38508 305755 292902 -6162 10224 -11171
38551 305846 292913 -6158 10293 -11246
38585 305947 292918 -6137 10237 -11262
38624 306053 292945 -6136 10200 -11256
38659 306065 292935 -6193 10226 -11232
38699 306084 292921 -6213 10263 -11281
38744 306115 292923 -6201 10273 -11325
38796 306128 292941 -6193 10258 -11241
38856 306186 292968 -6188 10268 -11234
38907 306248 292976 -6178 10320 -11272
38931 306274 292960 -6216 10356 -11234
38872 306190 292941 -6258 10328 -11225
38739 306101 292936 -6203 10351 -11220
38569 306037 292946 -6110 10409 -11201
38397 305963 292979 -6139 10437 -11160
38246 305927 293002 -6206 10360 -11178
38121 305912 293018 -6200 10285 -11216
38031 305877 293037 -6163 10275 -11240
37982 305866 293076 -6157 10293 -11257
37956 305892 293122 -6163 10307 -11272
37933 305938 293163 -6164 10322 -11268
37928 306004 293217 -6177 10301 -11288
37947 306031 293243 -6176 10234 -11321
37971 306001 293242 -6168 10237 -11347
37989 305922 293206 -6186 10266 -11365
38004 305817 293156 -6187 10273 -11347
38016 305721 293121 -6140 10283 -11352
38027 305658 293078 -6117 10244 -11362
38049 305666 293091 -6135 10192 -11384
38071 305663 293045 -6145 10206 -11389
38093 305636 292945 -6141 10253 -11413
38120 305626 292857 -6148 10250 -11434
38150 305642 292771 -6172 10176 -11403
38183 305620 292672 -6168 10130 -11344
38223 305632 292622 -6152 10213 -11343
38265 305629 292583 -6176 10263 -11336
38312 305636 292548 -6201 10262 -11286
38361 305631 292495 -6194 10247 -11320
38412 305624 292461 -6205 10202 -11276
38468 305632 292453 -6217 10209 -11239
38525 305623 292453 -6218 10266 -11290
38588 305651 292462 -6231 10310 -11256
38650 305733 292503 -6233 10278 -11219
38712 305689 292466 -6223 10230 -11236
38781 305709 292457 -6213 10281 -11220
38839 305702 292437 -6185 10378 -11244
38836 305590 292372 -6202 10344 -11271
38743 305481 292366 -6272 10288 -11228
38598 305463 292400 -6221 10305 -11236
38418 305535 292451 -6078 10368 -11252
38227 305614 292481 -6234 10416 -11220
38051 305658 292490 -6293 10345 -11291
37900 305640 292478 -6248 10315 -11221
37786 305574 292449 -6196 10317 -11127
37703 305524 292451 -6179 10340 -11129
37641 305500 292480 -6171 10309 -11144
37584 305465 292489 -6169 10274 -11201
37544 305496 292514 -6155 10289 -11249
37535 305554 292629 -6135 10261 -11273
37547 305597 292831 -6216 10303 -11375
37581 305566 293137 -6272 10445 -11418
37656 305616 293599 -6204 10540 -11341
37784 305985 294252 -6230 10704 -11337
37933 306626 295032 -6345 10828 -11433
38058 307797 296019 -6279 10681 -11408
38137 308987 296886 -5989 10492 -11265
38187 309820 297394 -5744 10452 -11156
38226 310280 297622 -5668 10417 -11082
38253 310399 297589 -5682 10243 -10981
38274 310132 297298 -5602 10111 -10883
38293 309412 296685 -5782 10333 -10956
38337 308329 295858 -5908 10416 -11005
38403 307294 295127 -5905 10454 -11034
38475 306559 294601 -5886 10634 -11156
38542 306145 294276 -5907 10753 -11353
38607 305908 294073 -6005 10613 -11513
38673 305814 293969 -6072 10461 -11538
38734 305742 293897 -6047 10415 -11545
38792 305664 293834 -5999 10395 -11492
38859 305730 293859 -5963 10372 -11375
38927 305682 293801 -5989 10336 -11374
38999 305557 293717 -6050 10377 -11410
39078 305475 293650 -6060 10364 -11352
39096 305264 293500 -6101 10298 -11335
39023 305023 293359 -6048 10313 -11402
38896 304891 293298 -5889 10393 -11398
38738 304743 293229 -5897 10427 -11386
38584 304634 293180 -6027 10312 -11402
38449 304496 293103 -6073 10221 -11395
38353 304377 293035 -5993 10248 -11369
38280 304242 292938 -5944 10294 -11350
38230 304129 292848 -6001 10251 -11381
38195 304063 292796 -6050 10196 -11397
38174 303988 292737 -6023 10262 -11380
38185 303977 292743 -5966 10381 -11406
38219 303964 292744 -5981 10420 -11407
38257 303932 292738 -6061 10405 -11437
38293 303955 292776 -6105 10340 -11451
38324 303985 292822 -6076 10334 -11396
38357 303985 292853 -6022 10414 -11366
38395 303978 292867 -6017 10365 -11366
38426 303973 292859 -6052 10235 -11388
38464 303969 292848 -6057 10184 -11382
38510 303998 292855 -6048 10233 -11375
38563 304043 292887 -6041 10333 -11364
38619 304084 292912 -6043 10369 -11365
38685 304044 292884 -6032 10371 -11404
38767 304032 292877 -5995 10433 -11374
38853 304039 292896 -5986 10526 -11222
38948 304069 292918 -6001 10606 -10908
39045 304157 292982 -6058 10557 -10831
39142 304277 293056 -6098 10449 -10907
39233 304377 293133 -6142 10331 -11138
39323 304460 293182 -6153 10238 -11411
39404 304575 293251 -6087 10174 -11609
39494 304792 293405 -5994 10140 -11665
39579 304975 293529 -5957 10132 -11668
39662 305088 293597 -5974 10120 -11698
39749 305262 293702 -5771 10126 -11664
39836 305397 293761 -5660 10214 -11625
39916 305591 293846 -5725 10212 -11653
39961 305710 293879 -5746 10180 -11782
39909 305716 293883 -5534 10238 -11857
39775 305801 293968 -5448 10306 -11855
39585 305920 294088 -5623 10222 -11827
39375 306135 294262 -5813 10083 -11842
39167 306432 294478 -5856 10014 -11885
38981 306658 294625 -5773 10026 -11851
38816 306904 294757 -5774 10054 -11726
38672 307146 294845 -5893 9984 -11641
38532 307752 295130 -5970 9909 -11688
38405 308754 295731 -6000 10139 -11870
38277 309492 296219 -5943 10377 -11944
38156 309918 296332 -5934 10341 -11901
38009 309445 295621 -5953 10187 -11666
37846 308546 294626 -5808 10017 -11468
37631 306761 293345 -6078 8021 -12142
37389 305421 292794 -5552 8584 -11967
37284 305315 292878 -5384 11223 -11044
37405 303911 292242 -6345 11744 -10793
37701 303527 292411 -6704 12443 -10611
37860 304435 293242 -6752 10555 -11278
37895 304464 293236 -5812 8837 -12057
37963 304483 293277 -5325 9661 -11965
38039 304795 293491 -5772 10016 -11690
38101 305078 293682 -5836 10031 -11620
38069 303811 292798 -5751 9124 -11957
38118 302986 292401 -5604 8626 -11992
38432 304849 293836 -5876 9697 -11430
38828 306696 295347 -6526 11222 -10813
39243 309364 297547 -6487 12234 -10598
39171 307418 295686 -6822 12383 -12571
39192 306341 295018 -6296 10103 -13062
39294 306605 295286 -5436 8294 -11523
39385 306963 295579 -5861 9130 -11443
39421 306302 295195 -5923 9677 -11545
39368 304689 294244 -5410 8378 -11689
39457 305375 294468 -5433 8255 -11531
39743 305989 294837 -6287 10476 -11054
40097 306168 295159 -6586 11843 -10742
40095 305127 294404 -6598 12146 -10987
39845 304195 293750 -6556 10788 -11636
39627 304074 293676 -5990 9264 -11886
39430 303952 293594 -5734 9323 -11801
39263 303763 293475 -5970 9859 -11754
39134 303424 293238 -5988 9976 -11701
38845 301391 292037 -5935 8736 -12131
38818 301575 292150 -5902 8917 -11892
39055 301370 291987 -6365 12292 -10320
39351 301614 292209 -6638 12021 -10493
39401 301958 292496 -6490 10254 -11097
39356 302163 292619 -6041 9469 -11443
39306 302136 292577 -6024 10141 -11527
39254 302095 292545 -6004 10227 -11528
39208 302104 292530 -6041 10136 -11513
39129 301530 292152 -5930 8561 -12127
38984 300161 291368 -5969 9271 -11805
39138 300339 291408 -6257 12028 -10583
39420 300990 291817 -6362 12144 -10389
39481 301584 292272 -6514 10570 -10967
39451 301808 292420 -6294 9689 -11505
39442 301903 292466 -5967 10106 -11517
39442 301915 292468 -6010 10219 -11472
39456 301945 292493 -6025 10189 -11446
39435 301383 292111 -6048 10125 -11438
39277 299898 291356 -5866 9740 -11489
39531 300291 291523 -6033 10648 -11005
39948 300325 291498 -6415 11895 -10240
40241 301469 292442 -7128 11011 -10490
40237 301893 292733 -6647 9803 -11174
40240 302135 292876 -5671 9809 -11414
40244 302182 292881 -5894 10169 -11466
40258 302245 292911 -6023 10159 -11481
40164 301009 292142 -6103 9810 -11635
39994 300488 291906 -5913 9426 -11582
40291 300926 292091 -6073 10705 -10777
40789 301447 292547 -6437 12250 -9928
40855 301655 292679 -7230 11781 -10808
40613 301661 292677 -6597 10025 -11554
40355 301667 292692 -5522 9398 -11232
40093 301690 292704 -5944 9969 -11325
39854 301660 292682 -6058 10089 -11360
39643 301555 292591 -6038 10119 -11370
39284 298496 290826 -5939 8117 -12188
39356 298588 290668 -6035 9846 -11513
39635 299799 291497 -6367 13308 -9759
39658 301418 292607 -6971 10938 -10185
39537 301481 292595 -6590 9576 -11023
39468 301620 292640 -6140 10433 -11293
39403 301643 292632 -6064 10353 -11310
39330 301657 292611 -6143 8453 -12547
38948 297564 290188 -5717 9514 -11797
39125 298028 290245 -6115 12739 -9506
39610 298388 290419 -7333 12759 -9092
39919 300788 292372 -7191 10524 -10061
39798 301299 292619 -6211 9173 -11283
39693 301424 292658 -5848 10109 -11399
39609 301495 292658 -6041 10318 -11363
39545 301530 292655 -6107 10248 -11299
39496 301637 292685 -6129 10248 -11304
39246 297586 290152 -6013 10360 -11466
39377 297121 289756 -6495 11158 -10836
39724 299133 291143 -7020 11184 -9826
39858 301331 292555 -6458 9930 -10564
39793 301456 292527 -6055 9809 -11539
39757 301597 292595 -6144 10308 -11475
39733 301612 292559 -6131 10256 -11358
39715 301670 292567 -6229 9912 -12163
39646 300620 291823 -6015 10875 -11715
39416 295454 288748 -6656 11565 -9980
39748 296618 289319 -6606 9434 -9835
40113 300419 291929 -6042 9407 -10850
40101 301463 292439 -6342 10811 -11623
39950 301545 292491 -6249 10563 -11492
39742 301601 292594 -6209 10256 -11483
39510 301753 292741 -6175 10055 -11516
39279 302003 292993 -6115 9975 -11542
39052 302109 293079 -6131 9913 -11646
38859 302273 293195 -6225 9890 -11789
38703 302629 293419 -6250 9932 -11914
38576 303433 293914 -6211 9927 -11904
38431 304407 294516 -6180 10030 -11777
38286 305099 294956 -6237 10272 -11693
38153 305448 295054 -6370 10226 -11610
38025 305053 294669 -6513 10028 -11496
37907 304258 294156 -6493 10069 -11411
37824 303665 293850 -6253 10164 -11384
37756 303317 293661 -6216 10118 -11506
37708 303088 293568 -6403 9981 -11623
37680 302638 293317 -6537 9896 -11371
37674 302440 293232 -6709 9858 -11056
37653 302182 293048 -6901 9841 -10952
37627 301823 292797 -6842 10079 -10941
37627 301999 292868 -6641 10545 -10984
37625 302370 293001 -6490 10398 -10930
37604 302266 292824 -6560 9953 -10969
37587 302128 292642 -6708 10024 -11047
37584 302063 292563 -6216 10118 -11506
37601 302154 292607 -6403 9981 -11623
37633 302360 292774 -6537 9896 -11371
37679 302668 293015 -6709 9858 -11056
37744 303097 293355 -6901 9841 -10952
37808 303402 293574 -6842 10079 -10941
37872 303373 293526 -6641 10545 -10984
37930 303158 293334 -6490 10398 -10930
37974 302833 293086 -6560 9953 -10969
37961 302436 292847 -6708 10024 -11047
37874 302109 292715 -6601 10348 -10807
37751 301942 292705 -6604 10388 -10841
37603 301827 292734 -6651 10296 -10997
37452 301670 292695 -6686 10208 -11298
37327 301508 292639 -6700 10304 -11473
37225 301329 292525 -6709 10273 -11329
37154 301046 292370 -6658 10076 -11125
37106 300748 292197 -6562 10004 -11035
37077 300549 292095 -6519 10046 -10932
37067 300384 291998 -6553 10087 -10852
37082 300322 291965 -6605 10065 -10847
37109 300219 291911 -6621 10015 -10855
37122 300194 291906 -6635 10028 -10935
37132 300197 291933 -6669 10115 -11048
37143 300199 291960 -6688 10208 -11140
37149 300241 291987 -6694 10209 -11205
37156 300265 292022 -6712 10129 -11204
37171 300268 292012 -6658 10094 -11194
37198 300227 291992 -6581 10183 -11152
37236 300245 292012 -6712 10219 -11111
37285 300280 292041 -6625 10220 -11062
37338 300301 292038 -6517 10276 -11037
37394 300306 292042 -6567 10245 -11018
37454 300320 292059 -6677 10171 -11038
37521 300333 292072 -6636 10163 -11092
37593 300355 292087 -6536 10185 -11143
37666 300394 292107 -6535 10174 -11127
37745 300402 292118 -6571 10169 -11098
37826 300415 292144 -6575 10209 -11078
37910 300458 292170 -6570 10271 -11049
37997 300481 292191 -6547 10268 -11003
38083 300479 292167 -6509 10237 -10991
38165 300553 292197 -6496 10225 -11017
38197 300526 292175 -6487 10234 -11024
38125 300410 292126 -6442 10247 -11026
37992 300316 292085 -6407 10222 -11022
37832 300257 292067 -6403 10203 -11037
37673 300218 292076 -6397 10199 -11086
37533 300202 292075 -6391 10244 -11121
37429 300153 292067 -6441 10251 -11083
37364 300111 292041 -6584 10216 -11069
37312 300098 292032 -6575 10169 -11150
37277 300106 292054 -6382 10181 -11210
37253 300088 292037 -6335 10261 -11195
37260 300147 292101 -6466 10223 -11202
37282 300149 292089 -6582 10122 -11234
37302 300142 292098 -6533 10101 -11255
37315 300133 292107 -6398 10136 -11276
37323 300104 292114 -6362 10123 -11282
37331 300099 292113 -6470 10130 -11226
37341 300094 292132 -6380 10133 -11253
37359 300111 292149 -6355 10139 -11231
37386 300102 292157 -6483 10121 -11242
37422 300089 292148 -6559 10079 -11267
37471 300097 292165 -6451 10122 -11247
37528 300154 292206 -6330 10195 -11223
37590 300205 292249 -6364 10202 -11181
37649 300215 292253 -6446 10168 -11158
37721 300228 292275 -6425 10301 -11124
37797 300304 292330 -6377 10298 -11128
37871 300397 292385 -6377 10238 -11108
37939 300424 292411 -6395 10194 -11120
38015 300450 292436 -6424 10198 -11165
38091 300486 292463 -6411 10214 -11225
38177 300534 292495 -6352 10197 -11241
38258 300608 292558 -6332 10163 -11193
38342 300615 292574 -6385 10092 -11216
38428 300629 292590 -6374 10137 -11328
38506 300704 292627 -6271 10165 -11325
38521 300613 292588 -6239 10146 -11321
38450 300497 292530 -6276 10114 -11316
38325 300413 292512 -6319 10113 -11334
38178 300428 292556 -6303 10163 -11335
38037 300454 292593 -6250 10128 -11279
37920 300466 292623 -6257 10091 -11325
37832 300433 292621 -6262 10116 -11422
37772 300415 292640 -6214 10235 -11420
37726 300510 292713 -6253 10321 -11372
37690 300611 292795 -6358 10179 -11346
37668 300639 292817 -6398 10051 -11383
37670 300709 292867 -6341 10062 -11452
37686 300745 292892 -6269 10158 -11471
37697 300829 292952 -6295 10167 -11421
37698 300910 293008 -6343 10063 -11410
37694 301006 293093 -6308 10045 -11483
37690 301117 293176 -6226 10104 -11554
37683 301269 293288 -6239 10142 -11534
37675 301371 293346 -6327 10122 -11477
37674 301424 293395 -6328 10106 -11481
37683 301478 293431 -6274 10175 -11524
37702 301552 293467 -6241 10203 -11564
37725 301672 293560 -6265 10149 -11565
37756 301747 293589 -6292 10072 -11536
37787 301737 293580 -6239 10056 -11550
37823 301766 293598 -6145 10164 -11605
37870 301815 293615 -6105 10229 -11606
37919 301806 293607 -6113 10207 -11546
37974 301867 293646 -6088 10245 -11488
38032 301869 293666 -6034 10323 -11481
38088 301925 293725 -5985 10431 -11471
38152 302175 293908 -5956 10534 -11392
38207 302319 294032 -5960 10568 -11302
38255 302354 294078 -5940 10661 -11168
38310 302555 294223 -5798 10816 -11027
38370 302844 294435 -5478 10979 -10955
38419 303072 294556 -5154 11137 -10881
38447 303062 294531 -5002 11219 -10920
38421 303132 294567 -5125 11415 -11225
38301 303388 294774 -5347 11479 -11181
38113 303685 294990 -5623 11392 -11117
37893 303682 294958 -5869 11334 -11128
37675 303491 294824 -6032 11392 -11078
37493 303312 294677 -6081 11458 -10886
37359 303196 294575 -5876 11554 -10698
37254 303265 294585 -5707 11684 -10641
37163 303373 294627 -5732 11641 -10720
37085 303372 294577 -5681 11457 -10760
37025 303239 294462 -5583 11300 -10675
37004 303451 294569 -5594 11382 -10551
36997 303664 294681 -5663 11632 -10391
36974 303709 294659 -5610 11696 -10292
36940 303608 294523 -5435 11525 -10323
36909 303574 294458 -5384 11375 -10299
36868 303528 294381 -5540 11287 -10078
36834 303500 294321 -5591 11194 -9918
36814 303454 294259 -5379 11179 -9952
36807 303384 294192 -5200 11236 -10055
36819 303417 294224 -5305 11175 -10141
36842 303473 294257 -5554 10987 -10140
36867 303395 294202 -5656 10971 -10113
36894 303216 294070 -5534 11127 -10145
36931 303118 293999 -5408 11237 -10211
36980 303083 293986 -5429 11255 -10236
37025 303022 293930 -5413 11245 -10258
37075 302923 293850 -5240 11386 -10377
37124 302752 293722 -5070 11579 -10551
37180 302602 293621 -5062 11575 -10641
37242 302545 293570 -5231 11420 -10647
37317 302580 293623 -5400 11330 -10670
37392 302571 293648 -5434 11427 -10725
37471 302464 293609 -5448 11505 -10821
37536 302322 293553 -5519 11431 -10888
37554 302208 293537 -5591 11366 -10845
37493 302132 293572 -5563 11376 -10754
37387 302097 293650 -5398 11449 -10762
37265 302018 293693 -5279 11582 -10896
37162 301981 293771 -5241 11560 -10931
37093 302014 293880 -5267 11370 -10808
37056 302067 293993 -5340 11200 -10656
37049 302133 294098 -5248 11225 -10576
37049 302167 294171 -5085 11369 -10564
37069 302151 294196 -5088 11394 -10579
37106 302059 294168 -5298 11322 -10592
37177 302074 294196 -5554 11231 -10568
37256 302111 294231 -5646 11218 -10538
37318 302090 294239 -5576 11268 -10555
37377 302037 294223 -5483 11289 -10625
37434 302044 294269 -5327 11228 -10762
37489 302134 294363 -5404 11177 -10723
37529 302201 294438 -5619 11180 -10730
37575 302268 294495 -5664 11235 -10796
37622 302281 294520 -5552 11280 -10804
37677 302251 294514 -5529 11246 -10720
37736 302254 294513 -5608 11150 -10690
37799 302191 294478 -5633 11128 -10756
37870 302103 294424 -5566 11165 -10811
37950 302126 294448 -5541 11120 -10927
38024 302114 294454 -5610 11104 -10883
38107 302033 294412 -5640 11089 -10848
38198 301958 294405 -5638 11109 -10818
38301 301998 294472 -5607 11093 -10765
38397 302062 294554 -5565 11073 -10779
38493 302005 294535 -5573 11113 -10854
38599 301949 294532 -5626 11123 -10894
38721 302060 294624 -5696 11080 -10898
38846 302155 294735 -5624 10924 -11008
38968 302127 294723 -5622 10967 -11041
39082 302078 294692 -5590 10944 -11008
39143 301969 294619 -5528 10941 -10976
39107 301783 294511 -5509 11029 -11003
39012 301756 294539 -5578 10922 -10990
38887 301793 294596 -5756 10598 -11031
38759 301755 294588 -5848 10409 -11124
38652 301679 294542 -5655 10484 -11181
38576 301652 294535 -5534 10561 -11282
38531 301675 294560 -5703 10505 -11403
38495 301700 294595 -5926 10529 -11543
38464 301664 294576 -6044 10495 -11635
38453 301539 294498 -6052 10448 -11579
38477 301633 294576 -6024 10492 -11511
38523 301865 294747 -6031 10465 -11537
38543 301918 294784 -6079 10486 -11591
38559 301818 294704 -6100 10504 -11584
38589 301909 294768 -6071 10405 -11462
38618 302155 294939 -6043 10347 -11483
38630 302371 295092 -5974 10329 -11625
38636 302382 295075 -5959 10273 -11549
38651 302372 295051 -6041 10182 -11401
38678 302505 295149 -5985 10162 -11376
38715 302614 295221 -5741 10228 -11455
38758 302742 295304 -5614 10246 -11590
38800 302847 295362 -5775 10191 -11614
38844 302856 295361 -5913 10147 -11566
38898 302912 295390 -5888 10220 -11569
38948 302991 295441 -5805 10296 -11569
38992 302971 295413 -5690 10271 -11602
39044 302869 295310 -5761 10227 -11671
39104 302653 295115 -5803 10219 -11745
39170 302367 294874 -5821 10240 -11780
39232 302003 294605 -5861 10205 -11767
39294 301772 294411 -5926 10114 -11775
39345 301518 294216 -5942 10079 -11783
39407 301352 294095 -5922 10064 -11730
39478 301213 293962 -5943 10027 -11674
39555 301241 293915 -5943 10087 -11610
39597 301263 293845 -5824 10182 -11718
39572 301149 293698 -5747 10229 -11786
39441 301033 293574 -5861 10202 -11737
39249 301013 293526 -5947 10125 -11753
39037 300968 293496 -5863 10115 -11679
38847 300906 293498 -5720 10118 -11528
38694 300982 293635 -5771 10129 -11535
38579 301015 293744 -5934 10161 -11568
38489 300913 293750 -5897 10079 -11441
38422 300793 293739 -5880 10086 -11437
38367 300765 293775 -5950 10076 -11464
38325 300720 293777 -6022 10029 -11557
38307 300663 293755 -6040 10024 -11659
38312 300518 293662 -6012 10059 -11755
38309 300504 293656 -5997 10062 -11802
38298 300494 293662 -6031 10020 -11806
38286 300531 293675 -6037 10017 -11773
38269 300479 293628 -5982 10077 -11760
38257 300463 293619 -5963 10106 -11742
38250 300554 293694 -6005 10044 -11723
38255 300636 293742 -6036 10010 -11727
38264 300733 293803 -5945 10010 -11740
38280 300793 293835 -5841 10019 -11757
38302 300854 293859 -5890 9992 -11746
38333 300979 293938 -5999 9955 -11732
38368 301082 293985 -6061 9976 -11761
38404 301219 294067 -6059 9994 -11813
38442 301288 294094 -6012 9998 -11857
38483 301409 294149 -5975 9988 -11813
38527 301610 294281 -5979 10008 -11790
38571 301813 294390 -5994 10018 -11873
38616 301956 294475 -6022 9955 -11907
38653 301971 294461 -6045 9932 -11888
38691 301972 294448 -6052 9958 -11871
38741 302161 294562 -6061 9980 -11900
38789 302269 294611 -6045 9963 -11886
38834 302334 294631 -6037 9912 -11821
38880 302402 294665 -6063 9919 -11831
38933 302503 294703 -6060 9944 -11826
38973 302578 294700 -6074 9915 -11834
38964 302466 294587 -6065 9915 -11805
38865 302381 294531 -6093 9916 -11829
38699 302460 294588 -6076 9889 -11850
38493 302474 294600 -5996 9909 -11810
38283 302375 294519 -5993 9970 -11849
38102 302247 294442 -6077 9951 -11936
37963 302328 294489 -6177 9899 -11917
37857 302427 294572 -6110 9908 -11836
37772 302619 294703 -6023 9945 -11881
37706 302795 294819 -6026 9870 -11909
37640 302802 294828 -6102 9820 -11876
37607 302925 294917 -6122 9845 -11792
37602 303195 295094 -6114 9943 -11740
37583 303156 295048 -6092 9978 -11812
37551 302907 294876 -6057 9922 -11895
37531 302976 294936 -6111 9828 -11814
37510 303262 295132 -6009 9904 -11715
37482 303393 295216 -5975 9967 -11913
37444 303002 294938 -6077 9890 -11893
37435 302723 294776 -6201 9798 -11576
37466 303127 295085 -6047 9909 -11427
37502 303755 295532 -5548 10200 -11710
37515 303925 295626 -5297 10222 -12148
37515 303309 295149 -5666 9957 -12169
37548 303070 295011 -6214 9592 -11848
37620 303597 295403 -6246 9578 -11762
37683 304054 295705 -5632 10115 -12153
37718 303781 295484 -5993 9708 -11986
37767 303415 295246 -6205 9490 -11817
37856 303791 295535 -5809 9835 -11913
37947 304523 296077 -5284 10101 -12156
38010 304883 296324 -5334 9781 -12282
38048 304720 296188 -5741 9330 -12161
38106 304711 296184 -5761 9329 -12052
38176 305166 296517 -5509 9571 -12142
38242 305638 296817 -6246 9578 -11762
38281 305903 296960 -5632 10115 -12153
38296 305937 296916 -5993 9708 -11986
38237 305945 296898 -6205 9490 -11817
38101 306162 297052 -5809 9835 -11913
37921 306412 297226 -5284 10101 -12156
37726 306511 297248 -5334 9781 -12282
37541 306534 297219 -5741 9330 -12161
37391 306700 297291 -5761 9329 -12052
37270 306866 297268 -5509 9571 -12142
37148 306621 296739 -5784 9370 -12426
37002 305836 295722 -6019 9234 -12459
36849 305434 295057 -5988 9205 -12436
36719 304946 294457 -5923 9304 -12423
36656 304693 294165 -5949 9330 -12417
36631 304665 294018 -6008 9249 -12397
36601 304819 294088 -6027 9217 -12391
36571 304966 294249 -5991 9281 -12434
36534 304620 294088 -6001 9402 -12602
36510 304296 294031 -6129 9453 -12775
36520 304535 294463 -6211 9333 -12488
36550 305207 295146 -5993 8861 -12214
36573 305566 295490 -5969 8558 -12354
36579 305403 295346 -6337 8975 -12302
36582 305217 295126 -6462 9250 -12082
36597 305199 295005 -6347 8954 -11867
36619 305152 294842 -6272 8741 -11862
36649 305120 294773 -6376 8782 -12175
36701 305188 294876 -6457 8747 -12451
36758 305274 295013 -6255 8841 -12597
36820 305374 295154 -5952 9075 -12697
36882 305558 295378 -5836 9095 -12764
36950 305864 295686 -5952 8836 -12761
37016 306123 295925 -6118 8608 -12560
37080 306371 296086 -6311 8812 -12406
37141 306515 296166 -6332 9062 -12453
37208 306643 296232 -6223 9047 -12486
37260 306775 296286 -6197 9045 -12466
37235 306813 296304 -6114 8994 -12422
37112 306771 296286 -6037 8761 -12413
36944 306812 296358 -6153 8678 -12490
36759 306913 296434 -6220 8826 -12574
36586 307010 296458 -6161 8860 -12581
36433 307043 296459 -6154 8749 -12584
36318 307083 296459 -6156 8815 -12568
36232 307156 296498 -6138 8929 -12501
36166 307283 296552 -6132 8865 -12496
36105 307397 296462 -6107 8803 -12500
36020 307242 296022 -6077 8824 -12492
35949 307044 295431 -6095 8827 -12522
35891 306868 294699 -6162 8836 -12632
35837 306786 294268 -6146 8751 -12623
35806 306802 294279 -6126 8703 -12563
35793 307066 294455 -6137 8699 -12537
35784 307340 294720 -6174 8687 -12554
35771 307528 294969 -6200 8673 -12697
35756 307517 295018 -6197 8718 -12931
35748 307403 294992 -6231 8707 -12902
35737 307203 294928 -6267 8331 -12570
35729 306931 294795 -6567 8420 -12391
35734 306753 294718 -6743 8868 -12301
35746 306688 294742 -6728 8635 -12336
35772 306720 294830 -6723 8383 -12477
35806 306791 294964 -6608 8324 -12635
35847 306937 295161 -6589 8311 -12683
35897 307095 295380 -6646 8240 -12678
35955 307348 295691 -6605 8270 -12702
36024 307618 296032 -6619 8347 -12719
36090 307857 296355 -6707 8308 -12692
36150 308053 296594 -6713 8231 -12661
36210 308170 296730 -6639 8207 -12641
36275 308306 296867 -6560 8256 -12605
36331 308451 297033 -6563 8265 -12603
36335 308432 296997 -6631 8193 -12594
36244 308325 296866 -6616 8168 -12572
36099 308248 296817 -6584 8180 -12592
35922 308217 296875 -6570 8182 -12661
35745 308247 296948 -6483 8160 -12708
35589 308221 296946 -6411 8248 -12676
35460 308154 296895 -6445 8323 -12599
35373 308137 296855 -6527 8316 -12685
35311 308145 296860 -6475 8389 -12840
35268 308226 296939 -6341 8398 -12763
35238 308261 296997 -6386 8297 -12611
35232 308374 297089 -6604 8259 -12548
35247 308457 297165 -6692 8279 -12620
35256 308477 297149 -6524 8241 -12759
35266 308513 297162 -6365 8224 -12759
35278 308599 297240 -6391 8210 -12661
35280 308681 297340 -6489 8241 -12615
35281 308722 297386 -6481 8323 -12610
35284 308698 297376 -6396 8347 -12592
35296 308703 297403 -6423 8304 -12566
35321 308749 297477 -6512 8271 -12632
35354 308782 297559 -6495 8261 -12705
35394 308726 297584 -6526 8269 -12633
35450 308594 297552 -6596 8293 -12548
35516 308540 297590 -6583 8344 -12583
35589 308510 297678 -6547 8365 -12683
35665 308265 297548 -6553 8316 -12725
35753 308077 297523 -6552 8255 -12681
35855 308226 297752 -6471 8279 -12669
35959 308390 297963 -6426 8371 -12765
36057 308469 298071 -6504 8404 -12865
36148 308377 298046 -6633 8379 -12861
36238 308171 297934 -6707 8322 -12786
36338 308187 297984 -6638 8281 -12730
36447 308309 298117 -6507 8319 -12681
36548 308353 298153 -6509 8298 -12585
36622 308191 298034 -6292 8543 -12591
36611 307972 297913 -6142 8707 -12734
36531 307768 297817 -6146 8586 -12814
36416 307531 297721 -6237 8374 -12748
36294 307278 297623 -6295 8300 -12586
36197 307022 297541 -6264 8531 -12501
36135 306853 297502 -6217 8778 -12507
36110 306685 297436 -6287 8800 -12565
36106 306416 297302 -6312 8775 -12598
36130 306157 297189 -5980 9103 -12573
36173 306031 297180 -5982 9198 -12565
36235 305985 297192 -6001 9195 -12532
36314 305777 297086 -6001 9209 -12491
36392 305492 296941 -5991 9236 -12475
36464 305298 296846 -5949 9275 -12468
36529 305174 296804 -5931 9312 -12433
36590 305064 296754 -5961 9288 -12399
36640 304822 296614 -5925 9280 -12374
36697 304557 296474 -5947 9508 -12297
36764 304479 296441 -5934 9535 -12203
36838 304483 296449 -5981 9659 -12184
36915 304495 296443 -6012 9732 -12146
36999 304491 296433 -6051 9774 -12072
37083 304496 296435 -6116 9825 -11937
37169 304523 296424 -6255 9852 -11753
37259 304518 296386 -6371 9880 -11655
37345 304452 296311 -6323 9975 -11616
37440 304409 296277 -6185 10099 -11544
37539 304424 296263 -6052 10147 -11460
37636 304488 296277 -6002 10121 -11454
37735 304455 296241 -5966 10127 -11479
37840 304521 296271 -5843 10186 -11473
37949 304614 296319 -5788 10203 -11444
38054 304761 296398 -5888 10165 -11404
38157 304850 296443 -5920 10135 -11386
38259 304878 296441 -5789 10213 -11406
38358 304941 296464 -5678 10295 -11409
38434 304957 296436 -5731 10228 -11371
38424 304887 296389 -5840 10243 -11347
38338 304736 296303 -5890 10321 -11374
38220 304722 296318 -5856 10367 -11425
38095 304799 296403 -5869 10382 -11393
37979 304777 296406 -5999 10389 -11323
37888 304721 296356 -6048 10373 -11337
37834 304695 296338 -5900 10379 -11356
37816 304759 296382 -5830 10554 -11263
37809 304779 296394 -5936 10547 -11176
37814 304785 296366 -6010 10490 -11238
37836 304825 296372 -5895 10612 -11270
37874 304792 296340 -5913 10576 -11206
37905 304811 296343 -5924 10565 -11185
37926 304757 296302 -5946 10655 -11257
37933 304737 296292 -5983 10650 -11310
37942 304730 296288 -6021 10555 -11229
37945 304717 296269 -6035 10582 -11155
37953 304673 296247 -5997 10613 -11124
37971 304613 296206 -5982 10624 -11073
37995 304578 296168 -6040 10560 -11012
38030 304585 296161 -6033 10573 -11004
38066 304563 296141 -5979 10633 -11012
38112 304537 296120 -5963 10698 -11031
38159 304458 296046 -6009 10688 -11017
38213 304332 295971 -6004 10676 -10957
38284 304348 295981 -5935 10780 -10949
38356 304390 296012 -5872 10871 -10997
38433 304394 296014 -5876 10853 -11035
38505 304358 295978 -5904 10816 -11025
38591 304268 295929 -5898 10763 -10927
38678 304264 295937 -5917 10712 -10846
38771 304270 295965 -5964 10754 -10869
38865 304237 295929 -5989 10808 -10918
38962 304240 295915 -5988 10801 -10928
39028 304187 295876 -5991 10782 -10887
39014 304050 295808 -6027 10797 -10883
38938 303899 295741 -6069 10833 -10899
38830 303832 295722 -6108 10748 -10837
38723 303791 295730 -6144 10721 -10830
38633 303746 295725 -6076 10836 -10878
38570 303701 295706 -5945 10911 -10864
38540 303707 295733 -5951 10922 -10820
38541 303722 295749 -6039 10812 -10827
38558 303715 295754 -6108 10727 -10910
38581 303685 295729 -6121 10723 -10984
38632 303692 295736 -6071 10713 -10985
38693 303699 295740 -6012 10735 -10972
38741 303704 295746 -6005 10778 -10988
38779 303670 295726 -6021 10768 -11004
38812 303593 295695 -5935 10746 -10946
38842 303602 295702 -5931 10818 -10901
38876 303608 295730 -6046 10858 -10898
38913 303611 295727 -6064 10814 -10834
38957 303608 295736 -6007 10876 -10800
39008 303638 295763 -5967 10955 -10753
39065 303690 295791 -5997 10918 -10704
39126 303679 295789 -6041 10871 -10744
39192 303705 295800 -6046 10896 -10793
39260 303663 295778 -5979 10913 -10811
39338 303704 295800 -5883 10894 -10864
39419 303747 295830 -5903 10866 -10941
39500 303802 295852 -5967 10850 -10978
39588 303852 295901 -5956 10816 -10957
39671 303922 295941 -5958 10851 -10912
39753 303988 295973 -5986 10859 -10856
39836 304036 295996 -6022 10818 -10834
39920 304045 296003 -6043 10851 -10851
40009 304058 296009 -6040 10845 -10841
40097 304119 296034 -6061 10862 -10870
40172 304145 296031 -5957 10812 -10949
40177 304026 295958 -5950 10846 -10962
40104 303883 295891 -5964 10850 -10935
39978 303799 295859 -5986 10790 -10836
39833 303724 295847 -6056 10783 -10795
39704 303701 295869 -6028 10817 -10823
39598 303644 295865 -5818 10901 -10854
39523 303599 295838 -5789 10922 -10895
39478 303568 295822 -5983 10806 -10957
39452 303576 295839 -6084 10722 -11087
39438 303599 295871 -6027 10729 -11143
39430 303600 295870 -6031 10677 -11152
39451 303604 295880 -6058 10572 -11116
39482 303587 295856 -6062 10515 -11081
39505 303599 295861 -6019 10546 -11117
39518 303619 295896 -5965 10623 -11133
39526 303613 295898 -5982 10665 -11161
39529 303607 295900 -6010 10663 -11222
39538 303634 295927 -5956 10723 -11236
39551 303668 295946 -5890 10761 -11231
39573 303682 295961 -5942 10667 -11218
39602 303702 295972 -6028 10584 -11198
39642 303727 295984 -6025 10600 -11172
39685 303741 295990 -6004 10679 -11143
39740 303748 295990 -6000 10753 -11081
39798 303765 296003 -5995 10810 -10985
39783 299480 293758 -5977 10883 -10882
40395 296258 292202 -5956 10967 -10815
40955 296119 291791 -5949 11010 -10802
41130 297195 292062 -5926 11017 -10816
41377 301454 294794 -5263 9278 -12282
41486 302245 295376 -5041 10123 -12036
41483 302789 295648 -6084 12274 -10595
41465 302685 295537 -6999 11973 -10854
41491 302881 295638 -7173 11614 -10779
41530 303129 295748 -5768 9705 -11107
41164 297352 292182 -4971 9670 -11485
40808 294129 289763 -5499 11018 -11324
41299 294202 289417 -5674 10878 -11034
41880 295670 290431 -5088 8831 -13015
42227 300779 294005 -4592 9690 -12159
41964 301934 294994 -6131 12671 -9006
41652 302329 295282 -7786 12769 -8957
41397 302262 295245 -7574 12371 -9104
41211 302308 295278 -6735 10240 -10356
40668 295670 291131 -5817 9602 -11415
40558 292861 288823 -5471 10935 -11237
41383 293305 288961 -5834 10942 -11019
41987 295006 290431 -5099 10208 -11456
42492 301154 294908 -5601 11147 -10123
42283 301677 294982 -7401 11820 -9440
42071 301611 294982 -7748 11981 -9134
41901 301939 295194 -5908 11891 -10525
41747 301941 295218 -4960 10708 -11555
41608 302062 295299 -5812 9897 -11069
41475 302114 295330 -6042 10431 -11017
41367 302164 295375 -6059 10517 -10944
41270 302186 295375 -5985 10716 -10927
41190 302241 295432 -6009 10757 -10926
41126 302335 295492 -6036 10758 -10933
41073 302480 295588 -6045 10784 -10923
41027 302579 295635 -6043 10785 -10916
40989 302653 295686 -6046 10734 -10938
40960 302773 295760 -6055 10721 -10951
40941 302893 295851 -6074 10710 -10947
40927 303027 295928 -6078 10682 -10943
40918 303169 296000 -6066 10680 -10971
40916 303334 296091 -6060 10652 -11025
40905 303573 296198 -6058 10621 -11095
40889 303718 296244 -6029 10631 -11108
40878 304024 296396 -6031 10606 -11108
40862 304257 296499 -6095 10554 -11096
40843 304337 296500 -6148 10503 -11086
40813 304442 296500 -6138 10515 -11064
40747 304516 296494 -6116 10464 -10946
40575 304526 296462 -6163 10337 -10934
40322 304554 296462 -6181 10394 -11008
40015 304476 296413 -6038 10574 -11083
39707 304280 296285 -5966 10580 -11224
39430 304042 296166 -6051 10453 -11371
39190 303743 295989 -6098 10345 -11411
38986 303297 295704 -6086 10280 -11348
38815 303005 295505 -6070 10245 -11285
38673 302925 295426 -6094 10203 -11292
38548 302852 295322 -6073 10272 -11325
38439 302986 295314 -6027 10385 -11319
38349 302958 295188 -6051 10476 -11247
38245 303088 295119 -6289 10607 -11086
38119 303251 295103 -6327 10643 -11035
37981 303331 294990 -6321 10686 -11069
37833 303214 294813 -6268 10730 -10967
37711 303206 294770 -6237 10680 -10853
37607 303197 294769 -6268 10644 -10753
37521 303235 294802 -6336 10584 -10720
37449 303171 294775 -6428 10472 -10776
37398 303034 294766 -6475 10497 -10830
37378 302994 294847 -6327 10832 -10629
37378 302990 294970 -6339 10815 -10501
37384 302911 295004 -6408 10754 -10497
37391 302635 294901 -6399 10723 -10532
37411 302301 294764 -6314 10759 -10502
37448 302089 294708 -6257 10799 -10445
37491 302014 294722 -6269 10835 -10494
37534 301981 294744 -6293 10837 -10659
37579 301891 294710 -6282 10775 -10792
37632 301797 294661 -6262 10769 -10782
37687 301790 294675 -6251 10722 -10683
37751 301782 294684 -6237 10755 -10614
37820 301758 294668 -6306 10716 -10586
37876 301753 294652 -6392 10593 -10645
37884 301642 294594 -6302 10587 -10737
37789 301459 294509 -6170 10711 -10773
37639 301348 294473 -6187 10740 -10812
37463 301244 294453 -6319 10628 -10823
37297 301201 294457 -6393 10563 -10840
37163 301154 294451 -6346 10581 -10865
37061 301109 294438 -6304 10616 -10862
36993 301065 294433 -6286 10553 -10847
36944 301011 294416 -6285 10513 -10837
36912 300983 294408 -6263 10582 -10855
36895 300940 294395 -6246 10612 -10807
36904 301004 294433 -6315 10654 -10815
36924 300978 294428 -6347 10649 -10851
36931 300940 294415 -6294 10613 -10806
36932 300916 294423 -6268 10595 -10832
36931 300900 294433 -6312 10580 -10872
36930 300885 294442 -6328 10594 -10871
36931 300865 294434 -6275 10570 -10830
36938 300874 294447 -6244 10557 -10806
36953 300878 294460 -6244 10579 -10819
36975 300873 294452 -6246 10633 -10829
37012 300888 294478 -6227 10659 -10835
37057 300907 294514 -6215 10632 -10842
37108 300918 294521 -6223 10629 -10848
37164 300913 294524 -6226 10630 -10818
37225 300957 294553 -6276 10627 -10780
37292 301013 294601 -6314 10593 -10777
37359 301077 294653 -6286 10579 -10795
37425 301108 294660 -6255 10630 -10831
37503 301168 294711 -6243 10611 -10834
37576 301251 294781 -6250 10556 -10814
37653 301316 294817 -6238 10627 -10798
37732 301333 294836 -6220 10718 -10769
37811 301430 294891 -6243 10677 -10716
37898 301587 294985 -6284 10619 -10686
37984 301641 295016 -6319 10649 -10714
38062 301714 295041 -6365 10703 -10709
38103 301740 295070 -6366 10616 -10757
38039 301710 295043 -6278 10568 -10845
37902 301675 295039 -6208 10678 -10869
37725 301591 295006 -6228 10670 -10846
37551 301561 295023 -6308 10560 -10808
37400 301558 295017 -6325 10543 -10794
37288 301573 295046 -6251 10624 -10749
37212 301626 295089 -6235 10660 -10703
37158 301670 295117 -6386 10584 -10769
37114 301738 295161 -6326 10580 -10833
37083 301751 295169 -6273 10588 -10791
37073 301839 295227 -6323 10593 -10776
37085 301850 295229 -6346 10584 -10803
37081 301876 295247 -6297 10620 -10764
37068 301921 295278 -6253 10679 -10769
37055 301949 295311 -6285 10631 -10784
37038 302002 295340 -6342 10514 -10793
37021 302055 295378 -6340 10517 -10832
37014 302105 295410 -6318 10620 -10862
37015 302140 295434 -6298 10643 -10831
37023 302177 295465 -6285 10594 -10804
37039 302222 295487 -6286 10559 -10807
37062 302250 295489 -6289 10563 -10810
37089 302265 295485 -6290 10572 -10785
37124 302276 295486 -6293 10563 -10762
37165 302330 295505 -6281 10540 -10802
37213 302365 295523 -6265 10540 -10837
37258 302413 295538 -6280 10554 -10833
37304 302447 295533 -6316 10586 -10822
37355 302503 295565 -6307 10603 -10816
37404 302545 295579 -6257 10567 -10834
37455 302572 295594 -6247 10531 -10856
37505 302579 295577 -6270 10508 -10857
37561 302638 295593 -6295 10507 -10849
37620 302725 295650 -6284 10548 -10861
37677 302736 295647 -6259 10614 -10849
37739 302753 295638 -6299 10573 -10770
37790 302838 295664 -6394 10539 -10763
37770 302812 295630 -6386 10608 -10855
37656 302696 295557 -6269 10722 -10865
37490 302559 295477 -6245 10766 -10771
37308 302498 295443 -6328 10679 -10660
37140 302471 295416 -6369 10661 -10584
36993 302427 295377 -6330 10693 -10552
36888 302404 295363 -6289 10722 -10542
36809 302384 295341 -6283 10712 -10512
36748 302339 295296 -6307 10656 -10505
36698 302250 295227 -6301 10688 -10542
36666 302205 295220 -6460 10712 -10687
36663 302270 295256 -6586 10508 -10845
36660 302283 295255 -6455 10469 -10888
36639 302225 295192 -6286 10591 -10895
36612 302165 295161 -6269 10547 -10871
36584 302163 295177 -6436 10360 -10894
36561 302246 295241 -6509 10282 -10997
36539 302198 295196 -6372 10368 -11106
36523 301787 294830 -6257 10421 -11173
36525 301289 294373 -6301 10688 -10542
36556 301335 294294 -6460 10712 -10687
36581 301464 294260 -6586 10508 -10845
36599 301475 294150 -6455 10469 -10888
36621 301531 294119 -6286 10591 -10895
36654 301743 294241 -6269 10547 -10871
36686 301850 294313 -6436 10360 -10894
36714 301825 294279 -6509 10282 -10997
36752 301814 294267 -6372 10368 -11106
36803 301875 294281 -6257 10421 -11173
36850 301953 294326 -6350 10448 -11021
36902 302037 294372 -6413 10407 -11041
36955 302037 294368 -6362 10432 -11019
37014 302121 294408 -6276 10554 -10932
37066 302245 294460 -6295 10668 -10991
37119 302309 294459 -6339 10597 -11074
37163 302333 294441 -6294 10513 -11015
37179 302337 294418 -6253 10556 -10973
37108 302217 294361 -6334 10518 -10987
36971 302111 294310 -6399 10491 -10917
36799 302002 294280 -6352 10621 -10872
36640 301959 294282 -6323 10653 -10877
36498 301884 294270 -6341 10497 -10891
36398 301902 294350 -6370 10488 -10854
36336 301945 294497 -6386 10578 -10824
36304 302120 294809 -6450 10631 -10838
36294 302427 295183 -6460 10654 -10785
36281 302773 295491 -6347 10661 -10770
36275 303014 295673 -6296 10720 -10837
36294 303451 296002 -6379 10659 -10830
36315 304178 296569 -6470 10580 -10737
36314 304531 296822 -6425 10545 -10745
36299 304608 296885 -6354 10596 -10830
36289 304478 296803 -6356 10721 -10804
36287 304442 296796 -6347 10650 -10888
36297 304552 296930 -6311 10517 -11001
36323 304694 297061 -6270 10447 -10907
36347 304537 296934 -6298 10445 -10776
36412 303950 296564 -6385 10547 -10806
36495 303908 296506 -6369 10675 -10954
36564 303765 296411 -6238 10646 -11014
36639 303492 296237 -6186 10481 -10959
36712 303423 296164 -6238 10400 -10836
36779 303308 296094 -6264 10355 -10771
36851 303219 296023 -6238 10387 -10830
36920 302889 295795 -6224 10410 -10945
36898 298262 293370 -6240 10369 -11083
37320 298161 293450 -6066 10180 -11112
37921 299043 293792 -6343 10545 -11107
38426 301594 295450 -6469 10787 -11149
38435 302736 296181 -6262 10496 -11027
38420 303092 296385 -6256 10554 -11055
38430 303163 296389 -6238 10576 -11025
38447 303037 296275 -6228 10486 -10907
38479 303022 296253 -5612 8616 -11467
38486 302558 295877 -5412 8785 -11216
38011 295488 292015 -6553 12319 -9820
38349 295381 291570 -7150 13978 -9109
38848 295908 291750 -8234 11798 -9885
39213 299640 294406 -5471 9960 -10953
39034 301536 295770 -6109 10717 -11035
38759 302163 296142 -6170 10641 -10961
38526 301868 295902 -6206 10534 -10815
38349 301780 295841 -6456 6623 -12709
37929 297286 293371 -5643 8755 -11822
37920 295300 291951 -5846 14841 -9069
38630 295920 291970 -7007 14243 -9064
39246 296322 292296 -7511 10696 -9780
39660 299702 294639 -5480 10870 -10982
39590 301335 295894 -5847 11251 -11053
39426 301893 296282 -6032 10876 -10899
39266 301814 296212 -5191 8365 -11255
39131 301867 296233 -5109 9158 -11148
38736 296477 293137 -6639 13280 -10253
38810 294772 291831 -7463 13994 -9854
39256 295152 291626 -7483 12425 -10270
39769 297919 293482 -6347 9360 -10952
39867 301042 295724 -5440 9046 -11156
39743 302014 296384 -5768 10735 -11095
39634 301909 296285 -5980 10698 -10941
39561 301929 296272 -5311 9037 -11321
39458 300883 295591 -5206 9923 -11189
39435 299328 294727 -6407 12953 -10374
39565 300891 295656 -7145 13007 -10073
39567 301971 296293 -7222 9912 -10657
39534 302244 296461 -6113 9105 -11295
39505 302269 296470 -5405 11039 -11227
39488 302230 296419 -5793 11057 -11065
39479 302328 296479 -5917 10255 -11254
39479 302505 296599 -5809 10506 -11120
38946 302598 296601 -6135 10742 -10992
38730 302643 296656 -6139 10639 -10938
38539 302654 296673 -6194 10555 -10927
38380 302620 296652 -6212 10575 -10996
38250 302615 296638 -6088 10621 -11004
38135 302658 296659 -6032 10709 -10976
38033 302725 296717 -6114 10672 -10974
37942 302728 296723 -6206 10545 -11029
37881 302844 296787 -6163 10525 -11033
37836 302889 296801 -6164 10534 -11043
37791 302880 296801 -6180 10479 -11027
37742 302883 296811 -6182 10464 -11019
37686 302910 296847 -6155 10512 -11053
37629 302956 296867 -6142 10503 -10999
37576 302987 296893 -6212 10493 -10981
37533 303011 296911 -6240 10489 -10995
37500 303037 296926 -6153 10551 -10953
37484 303088 296949 -6098 10614 -10947
37478 303118 296973 -6143 10559 -10963
37478 303130 296993 -6197 10496 -10997
37489 303158 297009 -6187 10477 -11016
37506 303198 297041 -6155 10521 -11009
37527 303246 297070 -6150 10533 -10984
37551 303284 297111 -6150 10512 -10989
37580 303338 297134 -6144 10539 -11009
37610 303337 297119 -6139 10530 -10995
37642 303301 297098 -6137 10521 -10996
37680 303327 297109 -6147 10541 -11004
37718 303325 297109 -6152 10518 -11005
37752 303316 297082 -6151 10490 -11003
37792 303297 297063 -6145 10474 -10994
37828 303250 297014 -6156 10473 -11002
37871 303227 296973 -6171 10478 -11022
37922 303128 296870 -6167 10480 -11052
37981 302917 296693 -6170 10505 -11055
38047 302784 296549 -6178 10490 -11044
38119 302678 296397 -6188 10485 -11049
38186 302730 296313 -6200 10538 -11036
38213 302790 296212 -6195 10547 -11043
38145 302712 296040 -6189 10512 -11058
37986 302635 295868 -6211 10508 -11015
37784 302574 295735 -6190 10514 -11023
37564 302469 295549 -6184 10567 -11027
37363 302308 295380 -6244 10607 -11002
37201 302189 295254 -6288 10587 -11010
37074 302073 295159 -6202 10615 -10973
36981 301974 295109 -6130 10644 -10979
36906 301884 295089 -6256 10659 -10952
36856 301787 295126 -6341 10600 -10834
36831 301704 295181 -6319 10543 -10813
36833 301664 295268 -6295 10614 -10810
36843 301595 295312 -6286 10668 -10773
36848 301512 295358 -6303 10633 -10779
36849 301491 295428 -6303 10621 -10741
36858 301493 295515 -6276 10648 -10680
36869 301497 295580 -6244 10678 -10624
36887 301549 295672 -6288 10704 -10626
36912 301592 295753 -6326 10720 -10728
36944 301689 295875 -6264 10746 -10756
36986 301859 296033 -6248 10718 -10783
37033 302109 296262 -6256 10630 -10818
37089 302481 296573 -6232 10561 -10851
37150 302967 296974 -6189 10610 -10867
37211 303408 297325 -6166 10660 -10868
37270 303910 297717 -6155 10656 -10890
37345 304567 298184 -6151 10682 -10939
37414 304911 298358 -6167 10603 -11064
37491 305456 298663 -6184 10488 -11176
37553 305972 298928 -6190 10472 -11234
37595 306348 299127 -6161 10530 -11272
37631 307032 299513 -6139 10568 -11448
37656 307862 300012 -6108 10535 -11444
37666 308720 300401 -6139 10361 -11176
37661 309397 300623 -6218 10272 -11000
37646 309717 300744 -6220 10373 -10987
37631 309873 300792 -6238 10534 -11021
37626 310305 301051 -6254 10616 -11036
37605 310413 300953 -6201 10520 -11088
37590 310307 300694 -6192 10390 -11042
37563 309884 300146 -6260 10416 -10874
37474 309176 299465 -6349 10471 -10703
37296 308658 299127 -6335 10515 -10816
37069 308376 299024 -6275 10562 -11064
36839 308325 299119 -6313 10396 -11080
36623 308284 299198 -6440 10322 -10952
36456 308382 299341 -6434 10464 -10811
36335 308363 299409 -6261 10575 -10839
36251 308229 299341 -6274 10543 -10892
36203 307463 298949 -6390 10365 -10909
36201 306967 298765 -6470 10310 -10882
36281 308499 299344 -6603 10294 -11037
36278 308496 299289 -6550 10293 -11192
36281 308215 299083 -6668 10318 -11486
36299 307266 298520 -6743 10207 -11241
36336 305910 297802 -6670 10006 -10844
36388 304761 297171 -6706 10017 -10789
36436 304293 296862 -6821 9971 -10827
36457 304090 296548 -6752 10081 -10969
36439 303723 295974 -6789 10104 -10996
36404 303179 295223 -6917 10025 -11027
36396 302689 294594 -6989 10014 -11107
36420 302408 294229 -6934 10143 -11184
36472 302375 294162 -6917 10241 -11254
36520 302486 294255 -6977 10126 -11118
36574 302614 294404 -6965 10079 -10918
36628 302725 294566 -7113 10239 -10856
36682 302786 294743 -7184 10190 -10855
36749 302970 294995 -7211 10150 -10849
36820 303254 295239 -7165 10092 -10788
36883 303418 295245 -7134 10033 -10806
36931 303492 295179 -7157 10042 -10836
36958 303499 295064 -7146 10134 -10884
36891 303376 294849 -7094 10201 -10951
36740 303067 294537 -7074 10228 -10862
36551 302766 294272 -7135 10213 -10864
36359 302608 294138 -7067 10129 -11003
36201 302602 294043 -6825 10119 -10988
36075 302591 293981 -6784 10144 -10841
35994 302709 294013 -6908 10117 -10735
35930 302890 294077 -6987 10081 -10746
35869 303053 294190 -7068 10111 -10833
35816 303180 294218 -7149 10131 -10928
35781 303296 294269 -7127 10123 -10965
35763 303414 294351 -7042 10203 -10937
35764 303427 294363 -7039 10130 -10928
35763 303404 294351 -7018 10020 -10918
35761 303319 294395 -6880 10272 -10902
35747 303594 294985 -6964 10428 -10886
35734 303951 295599 -7176 10233 -10918
35722 304324 295975 -7139 10183 -10957
35701 304639 296076 -7066 10386 -10949
35683 304795 295992 -7032 10466 -10886
35665 304542 295696 -6908 10290 -11054
35666 304331 295509 -6754 10020 -11249
35700 304384 295558 -6758 9963 -11255
35750 304705 295784 -6794 10144 -11245
35803 304919 295977 -6761 10181 -11135
35862 304927 296110 -6840 10154 -11004
35929 305018 296326 -6996 10153 -10891
35995 305285 296551 -7097 10081 -10843
36046 305347 296578 -7085 10090 -10826
36086 305113 296396 -6923 10236 -10729
36133 304857 296211 -6807 10271 -10743
36191 304750 296155 -6897 10062 -10896
36251 304793 296151 -6914 9892 -11030
36303 304671 296006 -6708 10046 -11058
36354 304502 295901 -6527 10240 -10984
36419 304491 295897 -6658 10174 -10876
36487 304608 295939 -6935 10038 -10867
36545 304708 295943 -6917 10064 -11074
36603 304755 295879 -6621 10234 -11143
36662 304706 295766 -6454 10415 -10987
36727 304731 295714 -6649 10399 -10925
36779 304762 295659 -6935 10239 -10923
36757 304737 295571 -6955 10241 -10931
36649 304640 295444 -6653 10482 -10979
36502 304541 295340 -6783 10327 -10934
36342 304501 295297 -6973 10161 -10907
36197 304504 295260 -6797 10279 -10906
36079 304482 295194 -6491 10509 -10909
35989 304429 295096 -6505 10441 -10868
35936 304480 295083 -6778 10206 -10825
35903 304725 295273 -6966 10129 -10836
35886 304978 295471 -6821 10307 -10898
35868 305131 295604 -6595 10569 -10907
35864 305187 295624 -6563 10649 -10804
35855 305137 295542 -6687 10537 -10737
35821 305124 295427 -6757 10474 -10707
35768 305131 295290 -6634 10531 -10617
35719 305424 295411 -6470 10487 -10620
35677 305699 295540 -6359 10419 -10761
35648 305991 295716 -6274 10456 -10930
35639 306394 296002 -6387 10436 -10854
35633 306568 296062 -6684 10441 -10670
35634 306556 295960 -6846 10512 -10585
35646 306526 295897 -6715 10539 -10534
35678 306510 295933 -6512 10676 -10611
35708 306554 296008 -6476 10805 -10669
35737 306873 296166 -6567 10645 -10710
35764 307048 296121 -6603 10529 -10729
35808 307397 296237 -6573 10796 -10609
35861 307767 296343 -6496 11001 -10748
35908 307804 296217 -6380 10884 -10894
35959 308017 296317 -6423 10701 -10694
36014 308150 296400 -6549 10700 -10523
36066 308212 296437 -6629 10692 -10377
36120 308228 296497 -6727 10804 -10379
36177 308186 296612 -6642 10861 -10326
36247 308534 297179 -6664 10739 -10167
36291 308797 297362 -6852 10704 -10146
36332 308805 297177 -6876 10650 -10142
36387 308707 297020 -6832 10684 -10174
36438 308856 297184 -6697 10775 -10491
36428 309189 297519 -6587 10892 -10955
36329 309579 297916 -6673 10501 -10962
36141 309407 297769 -6667 10482 -10594
35908 308918 297264 -6731 10803 -10432
35708 308625 296849 -6596 10589 -10403
35562 308524 296598 -6419 10744 -10773
35477 308588 296495 -6512 10793 -11164
35437 308600 296392 -6720 10386 -11108
35421 308659 296429 -6704 10315 -10978
35424 308776 296580 -6609 10635 -10841
35433 308849 296798 -6729 10679 -10796
35445 308845 296911 -6789 10562 -10471
35448 308858 296956 -6810 10586 -10488
35439 308900 297008 -6704 10753 -10492
35417 308953 297041 -6542 10634 -10652
35390 308856 296976 -6536 10392 -10761
35359 308670 296849 -6653 10387 -10796
35351 308658 296869 -6692 10470 -10774
35356 308767 296954 -6666 10481 -10649
35379 308880 297051 -6660 10445 -10733
35412 308899 297049 -6673 10521 -10836
35443 308865 297042 -6654 10667 -10822
35483 308875 297057 -6639 10646 -10827
35529 308906 297103 -6590 10552 -10832
35583 308922 297131 -6507 10498 -10815
35638 308939 297135 -6454 10528 -10776
35698 308957 297136 -6448 10555 -10770
35763 308993 297142 -6500 10542 -10759
35831 309040 297174 -6545 10498 -10750
35898 309068 297173 -6563 10409 -10777
35959 309078 297187 -6608 10348 -10823
36019 309133 297220 -6662 10338 -10877
36083 309207 297255 -6624 10357 -10933
36146 309276 297295 -6507 10424 -10919
36212 309363 297346 -6415 10545 -10829
36275 309456 297396 -6405 10611 -10750
36341 309506 297427 -6424 10636 -10734
36414 309610 297478 -6426 10642 -10771
36474 309669 297523 -6433 10571 -10807
36480 309648 297513 -6452 10568 -10821
36397 309577 297501 -6506 10543 -10795
36263 309529 297511 -6611 10468 -10816
36116 309483 297550 -6603 10439 -10870
35978 309489 297597 -6421 10480 -10851
35865 309508 297650 -6330 10564 -10813
35785 309558 297710 -6429 10516 -10793
35735 309605 297762 -6567 10413 -10778
35705 309683 297840 -6569 10374 -10796
35692 309769 297950 -6505 10380 -10801
35685 309817 298008 -6535 10395 -10798
35694 309885 298075 -6577 10397 -10819
35719 309943 298136 -6588 10460 -10896
35737 310020 298200 -6627 10445 -10833
35746 310014 298214 -6640 10412 -10790
35744 310043 298240 -6533 10447 -10837
35741 310074 298284 -6410 10529 -10873
35742 310123 298340 -6399 10499 -10893
35746 310146 298367 -6475 10399 -10884
35758 310181 298391 -6497 10358 -10853
35779 310237 298443 -6428 10407 -10851
35809 310292 298484 -6494 10478 -10881
35842 310307 298489 -6502 10418 -10883
35882 310332 298501 -6439 10445 -10890
35932 310384 298531 -6384 10501 -10887
35987 310436 298567 -6385 10500 -10827
36049 310495 298616 -6438 10479 -10775
36112 310517 298638 -6466 10481 -10770
36174 310529 298648 -6432 10486 -10793
36236 310545 298661 -6418 10487 -10825
36302 310546 298686 -6507 10535 -10782
36366 310563 298702 -6418 10566 -10748
36429 310565 298708 -6323 10605 -10736
36492 310562 298704 -6324 10643 -10744
36557 310557 298708 -6384 10634 -10730
36624 310533 298697 -6381 10637 -10698
36699 310536 298739 -6320 10723 -10627
36763 310558 298780 -6313 10773 -10553
36763 310331 298617 -6373 10710 -10575
36683 310100 298509 -6320 10812 -10644
36549 309860 298421 -6162 10860 -10587
36401 309628 298343 -6155 10807 -10487
36269 309428 298283 -6259 10907 -10486
36167 309228 298215 -6279 10935 -10477
36097 309074 298160 -6234 10932 -10427
36060 308901 298087 -6225 10974 -10418
36046 308727 298025 -6244 11037 -10446
36043 308538 297968 -6272 11092 -10452
36053 308409 297925 -6310 11094 -10446
36085 308328 297925 -6325 11067 -10411
36130 308217 297890 -6388 11095 -10425
36159 308087 297861 -6419 11119 -10439
36182 307968 297832 -6349 11111 -10388
36194 307834 297786 -6288 11137 -10357
36207 307722 297765 -6236 11176 -10362
36220 307642 297764 -6210 11193 -10369
36243 307571 297765 -6200 11182 -10339
36275 307521 297768 -6184 11187 -10304
36319 307460 297763 -6164 11221 -10292
36365 307405 297757 -6156 11250 -10316
36418 307349 297728 -6170 11243 -10354
36477 307332 297738 -6154 11251 -10298
36537 307296 297725 -6153 11288 -10267
36603 307274 297729 -6155 11320 -10266
36674 307286 297747 -6153 11330 -10269
36744 307290 297742 -6149 11333 -10278
36817 307303 297746 -6144 11295 -10293
36890 307300 297748 -6139 11280 -10308
36965 307336 297771 -6138 11294 -10303
37045 307381 297813 -6098 11312 -10307
37130 307449 297841 -6133 11267 -10273
37207 307502 297853 -6198 11238 -10281
37259 307503 297837 -6168 11328 -10322
37224 307386 297780 -6063 11421 -10298
37117 307268 297774 -6065 11410 -10280
36979 307160 297816 -6167 11303 -10299
36844 306990 297853 -6219 11214 -10306
36720 306726 297807 -6158 11197 -10345
36627 306622 297763 -6026 11324 -10479
36564 306645 297722 -6105 11182 -10404
36529 306725 297738 -6152 11080 -10410
36504 306857 297824 -6090 11073 -10504
36482 306824 297754 -6048 11146 -10437
36490 307005 297870 -6107 11210 -10522
36512 307115 297896 -6097 11198 -10618
36535 307237 297906 -6054 11247 -10609
36553 307406 297976 -6060 11291 -10559
36557 307517 297958 -6112 11181 -10511
36562 307668 297990 -6172 11121 -10567
36566 307803 297984 -6163 11122 -10547
36566 307882 297963 -6118 11110 -10559
36572 307932 297895 -6121 11155 -10525
36591 307965 297845 -6146 11172 -10421
36613 308002 297819 -6143 11186 -10381
36640 308043 297781 -6125 11219 -10390
36672 308068 297753 -6126 11249 -10349
36714 308091 297715 -6187 11299 -10410
36740 307784 297488 -6196 11380 -10405
36791 307785 297481 -6225 11489 -10183
36845 307872 297558 -6445 11015 -9796
36944 308512 297972 -6400 10947 -9956
36990 308370 297827 -6212 11420 -10354
37042 308223 297764 -6216 11341 -10318
37103 308151 297798 -6188 11297 -10274
37166 308041 297826 -6147 11343 -10240
37231 307885 297792 -6151 11393 -10251
37271 307296 297409 -6189 9845 -11459
36978 299215 293780 -5925 10350 -10878
37253 297293 293161 -6100 12943 -8787
37722 299438 294529 -6180 13324 -8356
37951 305355 298021 -6491 11686 -9665
37718 305656 297791 -6490 10451 -10870
37543 305753 297777 -5878 11081 -10602
37402 305671 297689 -5959 11355 -10482
37295 305722 297704 -5987 11310 -10414
37205 305687 297664 -6032 11309 -10377
36847 299162 293950 -5687 11430 -10621
36990 295393 292159 -5943 11751 -10388
37516 296967 293051 -6100 12943 -8787
37974 303467 297261 -6180 13324 -8356
37958 305432 298098 -6491 11686 -9665
37889 305499 297979 -6490 10451 -10870
37816 305320 297789 -5878 11081 -10602
37724 304429 297131 -5959 11355 -10482
37437 297086 293184 -5987 11310 -10414
37685 296325 292818 -6032 11309 -10377
38085 300075 295034 -5687 11430 -10621
38276 305051 298026 -5943 11751 -10388
38248 305351 298085 -6561 11345 -9603
38211 305255 297904 -6087 10365 -10517
38189 305095 297761 -5783 11072 -10758
38111 303311 296579 -5855 11524 -10674
37983 297772 293662 -5706 9807 -11858
38250 298316 293916 -5414 10493 -11383
38633 303981 297465 -6044 13159 -9349
38680 305214 298028 -6850 13186 -8965
38680 305456 298059 -6297 10325 -9833
38676 305273 297860 -5662 9819 -10798
38696 305242 297832 -5750 11949 -10725
38728 305499 297972 -5787 11731 -10542
38459 296947 293244 -5357 10124 -11422
38830 294426 291897 -5583 11033 -11119
39352 296237 292776 -6619 13247 -9433
39964 303889 297869 -6472 11788 -9271
39796 304823 298087 -5722 10406 -10113
39507 304812 298014 -5623 11189 -10822
39228 304735 297912 -5690 11752 -10745
38979 304744 297900 -5748 11521 -10491
38764 304933 298006 -5778 11255 -10330
38592 305119 298116 -5308 10402 -11291
38446 305210 298125 -5704 11187 -11173
38315 305203 298090 -6828 12312 -9608
38197 305214 298064 -6691 11843 -9258
38095 305191 298011 -5587 10944 -10386
38012 305192 297991 -5321 10786 -11147
37953 305126 297916 -5775 11448 -10721
37893 305038 297848 -5838 11375 -10509
37823 304951 297794 -5872 11319 -10411
37753 304896 297763 -5840 11362 -10422
37688 304832 297739 -5897 11400 -10459
37628 304813 297727 -5991 11329 -10422
37576 304828 297726 -6013 11289 -10383
37531 304811 297709 -5997 11363 -10395
37502 304789 297699 -5995 11359 -10357
37486 304792 297700 -6033 11313 -10328
37476 304757 297678 -6027 11309 -10325
37477 304711 297662 -5962 11363 -10307
37486 304685 297654 -5917 11390 -10348
37502 304657 297649 -5940 11343 -10419
37526 304646 297628 -5989 11290 -10468
37557 304643 297630 -5982 11282 -10469
37592 304645 297624 -5959 11317 -10443
37635 304626 297621 -5982 11328 -10404
37681 304611 297606 -6003 11318 -10361
37728 304623 297627 -5998 11346 -10355
37776 304647 297630 -5993 11362 -10373
37828 304662 297645 -5999 11331 -10393
37885 304722 297693 -6005 11306 -10434
37941 304791 297729 -5880 11298 -10473
38000 304769 297711 -5929 11290 -10443
38059 304832 297727 -5968 11297 -10436
38090 304813 297696 -5989 11306 -10436
38035 304686 297628 -5992 11308 -10425
37902 304598 297595 -5981 11317 -10418
37732 304543 297593 -5974 11332 -10417
37566 304532 297607 -5987 11336 -10404
37417 304516 297610 -5999 11316 -10412
37303 304527 297617 -5893 11324 -10446
37219 304505 297609 -5954 11289 -10455
37164 304526 297618 -5962 11300 -10485
37115 304565 297635 -5805 11338 -10453
37074 304583 297642 -5790 11381 -10430
37055 304635 297685 -5943 11302 -10431
37054 304648 297657 -6010 11234 -10450
37050 304634 297638 -5975 11240 -10466
37040 304631 297628 -5920 11278 -10459
37022 304648 297646 -5915 11260 -10467
37000 304671 297652 -5936 11199 -10476
36980 304668 297639 -5959 11220 -10477
36966 304663 297629 -5935 11277 -10489
36956 304680 297609 -5947 11308 -10501
36960 304685 297603 -6015 11274 -10507
36974 304706 297606 -6004 11252 -10502
36996 304757 297613 -5960 11281 -10477
37025 304788 297618 -5945 11279 -10446
37058 304813 297620 -5979 11245 -10445
37095 304855 297625 -6004 11209 -10466
37135 304903 297644 -5957 11210 -10497
37179 304937 297629 -5946 11239 -10500
37225 304944 297622 -5993 11253 -10472
37277 304971 297624 -6012 11259 -10450
37327 305029 297635 -6005 11275 -10457
37382 305084 297669 -6003 11283 -10466
37435 305128 297673 -6015 11254 -10459
37484 305139 297652 -6002 11250 -10458
37535 305141 297626 -5962 11263 -10466
37587 305164 297619 -5953 11246 -10478
37641 305226 297645 -5946 11220 -10502
37699 305257 297633 -5946 11227 -10508
37761 305291 297622 -5958 11273 -10484
37818 305287 297586 -5968 11287 -10476
37831 305211 297504 -5991 11264 -10492
37743 305069 297416 -5986 11244 -10506
37588 304959 297341 -5976 11241 -10502
37403 304861 297292 -5998 11227 -10498
37223 304772 297234 -6033 11216 -10495
37074 304724 297192 -6012 11253 -10509
36956 304668 297159 -5959 11255 -10500
36873 304638 297127 -6035 11202 -10508
36813 304581 297101 -5923 11240 -10557
36767 304530 297073 -5845 11324 -10516
36730 304480 297050 -5949 11275 -10456
36718 304482 297056 -6047 11189 -10411
36723 304467 297044 -6051 11210 -10387
36724 304428 297030 -6007 11256 -10380
36713 304403 297035 -6025 11247 -10385
36697 304369 297026 -6046 11230 -10484
36684 304331 297031 -6039 11251 -10485
36671 304349 297055 -6018 11237 -10436
36669 304351 297079 -6039 11268 -10458
36677 304370 297096 -6072 11273 -10489
36697 304384 297112 -6045 11265 -10441
36725 304392 297126 -5998 11306 -10429
36759 304400 297148 -6012 11278 -10428
36802 304418 297163 -6042 11237 -10418
36852 304441 297172 -5969 11274 -10469
36904 304457 297198 -5970 11284 -10479
36960 304491 297209 -5995 11269 -10468
37025 304533 297235 -6000 11270 -10472
37093 304565 297262 -5993 11280 -10455
37156 304600 297292 -6002 11289 -10424
37226 304640 297311 -6006 11293 -10415
37296 304681 297341 -6011 11285 -10393
37365 304698 297355 -6013 11286 -10376
37433 304722 297362 -5976 11288 -10392
37501 304805 297419 -5933 11288 -10426
37574 304858 297456 -5938 11306 -10432
37646 304859 297442 -5977 11320 -10412
37719 304874 297432 -5984 11319 -10409
37762 304830 297395 -5988 11320 -10408
37715 304722 297333 -5996 11315 -10392
37586 304636 297318 -6008 11302 -10369
37420 304546 297313 -5977 11340 -10384
37247 304510 297294 -5951 11386 -10381
37102 304467 297300 -6004 11363 -10343
36990 304440 297291 -6042 11331 -10399
36916 304396 297290 -5891 11374 -10450
36853 304367 297272 -5775 11450 -10412
36812 304352 297281 -5880 11398 -10384
36783 304357 297295 -5996 11278 -10385
36772 304382 297318 -6011 11278 -10381
36702 302367 296107 -5951 11357 -10387
36756 299686 295107 -5953 11369 -10421
36981 302836 296737 -6001 11314 -10428
37009 303962 297221 -6013 11265 -10431
37003 304154 297309 -5929 11262 -10482
36992 304205 297333 -5851 11298 -10493
36979 304225 297325 -5918 11332 -10497
36974 304243 297326 -5765 10794 -10632
36985 304341 297395 -5716 11172 -10350
37008 304416 297445 -6430 11689 -10474
37004 303689 296884 -6156 11180 -10826
36928 298213 294218 -5558 11191 -10641
37218 299357 294812 -5760 11290 -10571
37500 303120 297029 -5793 11364 -10494
37591 304429 297645 -5901 11300 -10414
37633 304606 297670 -5962 11285 -10415
37678 304569 297621 -5791 10239 -12065
37729 304610 297644 -5627 11435 -11256
37752 303960 297128 -6151 12667 -9114
37804 297807 294492 -6300 10618 -9620
38539 297196 294410 -5885 10578 -10291
39148 297636 294316 -5801 11608 -10762
39543 300329 295742 -5752 11517 -10647
39798 305068 298714 -5665 11069 -11000
39690 304939 298328 -4860 11307 -11281
39668 305157 298392 -5324 11475 -10975
39672 305206 298353 -6800 10760 -10761
39697 305303 298378 -7162 10425 -10465
39708 305456 298435 -5891 10541 -10696
39632 305345 298332 -4984 10870 -11127
39460 305195 298258 -5510 11100 -11071
39231 305073 298178 -5736 11215 -10797
38987 305051 298182 -5907 11301 -10498
38761 304991 298166 -5817 11380 -10487
38562 304941 298157 -5766 11473 -10427
38403 304921 298150 -5850 11397 -10388
38272 304872 298120 -5995 11260 -10381
38164 304870 298139 -6029 11240 -10389
38070 304918 298179 -5941 11302 -10406
37990 304944 298192 -5902 11327 -10418
37934 304980 298220 -5949 11317 -10427
37902 304960 298200 -5961 11291 -10437
37863 304950 298193 -5891 11299 -10474
37822 304938 298191 -5861 11332 -10508
37780 304922 298181 -5933 11326 -10473
37738 304922 298182 -6004 11269 -10461
37700 304936 298188 -6020 11254 -10485
37672 304927 298174 -5988 11313 -10460
37653 304934 298187 -5966 11331 -10434
37645 304972 298216 -6009 11266 -10440
37650 305024 298228 -6044 11218 -10465
37663 305068 298246 -5993 11231 -10493
37684 305098 298258 -5898 11250 -10541
37711 305144 298288 -5900 11236 -10555
37740 305186 298300 -5967 11227 -10530
37775 305227 298326 -5981 11251 -10507
37813 305286 298344 -5972 11255 -10489
37858 305347 298361 -5964 11232 -10493
37901 305387 298392 -5969 11228 -10480
37946 305417 298385 -5973 11239 -10488
37994 305455 298403 -5982 11249 -10498
38042 305494 298420 -5990 11254 -10486
38093 305549 298448 -5899 11276 -10525
38146 305601 298487 -5932 11289 -10488
38198 305660 298502 -5958 11294 -10468
38252 305690 298511 -5952 11297 -10463
38303 305737 298521 -5919 11303 -10455
38358 305745 298507 -5869 11318 -10461
38421 305800 298536 -5880 11306 -10465
38478 305853 298503 -5957 11274 -10440
38492 305755 298410 -5980 11283 -10430
38400 305583 298289 -5917 11324 -10418
38241 305485 298245 -5897 11324 -10382
38054 305449 298245 -5969 11306 -10417
37869 305398 298253 -5908 11316 -10459
37708 305359 298259 -5812 11372 -10411
37583 305359 298316 -5891 11391 -10348
37487 305353 298345 -5987 11345 -10347
37407 305303 298316 -5983 11333 -10391
37340 305269 298293 -5927 11347 -10413
37285 305208 298255 -5918 11347 -10412
37251 305189 298226 -5938 11209 -10442
37234 305115 298106 -5960 11229 -10471
37221 305003 297987 -5981 11302 -10485
37199 304866 297853 -6000 11379 -10453
37176 304744 297697 -6054 11381 -10443
37154 304657 297553 -6084 11339 -10453
37130 304452 297309 -6035 11345 -10408
37100 304140 296968 -5983 11378 -10411
37093 304131 296820 -6013 11388 -10453
37086 304142 296655 -6077 11315 -10463
37089 304130 296492 -6102 11201 -10480
37106 304013 296245 -6091 11182 -10434
37135 303876 296026 -6082 11378 -10494
37179 303824 295950 -6070 11484 -10544
37230 303835 295930 -6077 11353 -10471
37282 303843 295925 -6108 11238 -10452
37342 303816 295932 -6100 11246 -10378
37400 303837 296014 -6093 11312 -10236
37463 303987 296218 -6108 11291 -10137
37518 304129 296375 -6110 11273 -10173
37570 304280 296478 -6157 11298 -10250
37607 304268 296451 -6197 11341 -10239
37642 304309 296458 -6140 11345 -10212
37672 304375 296489 -6121 11340 -10263
37710 304368 296499 -6172 11350 -10297
37741 304382 296533 -6186 11290 -10269
37779 304334 296531 -6176 11302 -10225
37824 304289 296517 -6180 11369 -10156
37859 304295 296466 -6204 11376 -10245
37831 304201 296287 -6233 11381 -10325
37698 304047 296094 -6292 11286 -10251
37529 304057 296015 -6287 11289 -10328
37337 304004 295964 -6184 11332 -10437
37168 303989 295937 -6148 11393 -10449
37016 303875 295929 -6260 11384 -10345
36907 303876 296078 -6383 11282 -10211
36831 303917 296342 -6372 11188 -10168
36781 304162 296792 -6279 11262 -10098
36736 304267 296997 -6271 11389 -10015
36690 304244 297025 -6382 11401 -10196
36669 304397 297126 -6376 11296 -10428
36655 304449 297112 -6206 11247 -10556
36626 304362 297014 -6087 11269 -10480
36604 304261 296961 -6105 11269 -10349
36585 304237 297024 -6168 11218 -10291
36565 304204 297075 -6160 11214 -10294
36556 304242 297228 -6119 11287 -10350
36564 304495 297524 -6127 11291 -10315
36609 305003 297933 -6161 11244 -10288
36666 305575 298319 -6122 11243 -10449
36727 306071 298626 -6049 11362 -10656
36797 306273 298797 -6007 11502 -10774
36868 306236 298838 -6063 11455 -10672
36952 306310 298905 -6150 11312 -10603
37025 306443 298949 -6157 11226 -10590
37077 306487 298869 -6159 11162 -10371
37123 306382 298726 -6246 11079 -10145
37167 306214 298571 -6431 10979 -9972
37225 306035 298512 -6418 11103 -10029
37284 305771 298457 -6235 11419 -10182
37354 305498 298420 -6193 11439 -10095
37434 305321 298447 -6170 11386 -10072
37513 305183 298441 -6121 11393 -10114
37595 305050 298395 -6066 11393 -10141
37680 304926 298340 -6066 11366 -10178
37778 304899 298359 -6084 11361 -10219
37880 304915 298391 -6095 11367 -10229
37986 304909 298385 -6115 11382 -10212
38092 304920 298394 -6098 11424 -10227
38156 304841 298348 -6102 11452 -10227
38124 304709 298266 -6135 11424 -10233
38026 304616 298236 -6022 11455 -10263
37893 304550 298255 -5938 11552 -10235
37761 304513 298256 -6005 11550 -10227
37644 304515 298281 -6083 11465 -10236
37560 304516 298307 -6112 11409 -10223
37505 304496 298320 -6069 11422 -10219
37471 304456 298313 -6050 11445 -10224
37454 304451 298326 -6080 11428 -10264
37450 304445 298357 -6065 11423 -10275
37465 304489 298420 -6037 11456 -10255
37503 304570 298470 -6060 11504 -10263
37542 304583 298491 -6092 11468 -10284
37575 304581 298508 -6066 11463 -10255
37602 304601 298539 -6033 11532 -10227
37626 304639 298592 -6036 11540 -10194
37653 304669 298631 -6064 11500 -10189
37681 304703 298676 -6050 11452 -10221
37719 304740 298720 -5974 11437 -10236
37762 304815 298764 -5961 11464 -10216
37814 304887 298829 -6015 11500 -10204
37869 304961 298877 -6030 11508 -10219
37936 305021 298916 -6017 11505 -10222
38007 305072 298933 -6010 11526 -10227
38083 305132 298992 -6010 11528 -10225
38159 305245 299053 -6025 11515 -10209
38236 305321 299100 -6036 11512 -10218
38317 305397 299142 -6016 11519 -10241
38399 305479 299192 -5958 11515 -10263
38477 305540 299223 -5944 11505 -10267
38551 305597 299235 -5976 11510 -10248
38627 305677 299259 -5993 11523 -10224
38704 305764 299314 -6009 11536 -10212
38772 305847 299339 -6015 11540 -10215
38845 305928 299396 -6000 11542 -10223
38917 305987 299421 -5995 11529 -10224
38996 306104 299480 -6014 11507 -10211
39071 306189 299514 -6034 11508 -10216
39145 306237 299517 -5969 11532 -10252
39221 306311 299554 -5941 11505 -10234
39267 306291 299504 -6043 11512 -10194
39219 306177 299438 -6067 11512 -10206
39106 306110 299407 -5913 11530 -10211
38949 306054 299380 -5845 11631 -10189
38785 306015 299367 -5966 11567 -10170
38639 306002 299363 -6054 11454 -10180
38528 305994 299369 -6043 11484 -10201
38448 305986 299377 -5991 11548 -10204
38396 305990 299359 -5992 11482 -10229
38359 306023 299374 -6025 11449 -10222
38335 306044 299389 -6018 11465 -10237
38326 306073 299406 -5999 11500 -10222
38339 306064 299402 -6038 11525 -10204
38350 306049 299383 -6083 11521 -10209
38353 306054 299379 -6073 11533 -10178
38345 306034 299378 -6047 11577 -10179
38334 306033 299358 -6054 11551 -10205
38325 306053 299359 -6044 11476 -10219
38321 306046 299356 -6030 11502 -10196
38324 306056 299352 -6051 11521 -10174
38342 306066 299352 -6063 11512 -10168
38365 306073 299345 -6069 11499 -10173
38392 306074 299330 -6067 11502 -10171
38421 306037 299284 -6062 11512 -10160
38458 305996 299229 -6052 11526 -10147
38503 305994 299204 -6054 11528 -10142
38554 306014 299203 -6015 11516 -10178
38600 306021 299187 -6004 11525 -10181
38654 306004 299152 -6027 11540 -10168
38705 305992 299125 -6044 11543 -10155
38764 306017 299138 -6060 11535 -10154
38820 306040 299138 -6062 11525 -10180
38883 306061 299151 -6060 11535 -10195
38940 306071 299156 -6076 11536 -10176
39004 306071 299138 -6091 11538 -10152
39062 306073 299122 -6052 11584 -10165
39127 306104 299124 -5997 11578 -10178
39194 306114 299113 -6033 11470 -10144
39261 306112 299075 -6122 11460 -10155
39318 306131 299057 -6093 11517 -10183
39344 306074 299000 -5997 11554 -10153
39278 305925 298916 -6023 11559 -10134
39147 305815 298839 -6106 11481 -10163
38990 305726 298803 -6124 11475 -10249
38840 305756 298877 -6096 11496 -10341
38709 305784 298902 -6070 11450 -10381
38607 305754 298882 -6080 11416 -10381
38538 305669 298801 -6111 11397 -10310
38506 305586 298764 -6101 11401 -10266
38501 305600 298785 -6055 11442 -10224
38509 305651 298865 -6076 11539 -10307
38550 305797 299031 -6139 11526 -10359
38611 305862 299126 -6114 11460 -10272
38672 305972 299283 -6055 11511 -10244
38730 306141 299459 -6055 11519 -10228
38775 306319 299624 -6081 11465 -10243
38814 306419 299700 -6080 11416 -10381
38849 306526 299761 -6111 11397 -10310
38879 306562 299767 -6101 11401 -10266
38916 306636 299764 -6055 11442 -10224
38955 306748 299820 -6076 11539 -10307
38996 306753 299818 -6139 11526 -10359
39046 306696 299799 -6114 11460 -10272
39102 306654 299786 -6055 11511 -10244
39165 306639 299780 -6055 11519 -10228
39230 306646 299785 -6081 11465 -10243
39293 306659 299789 -6025 11447 -10153
39355 306633 299764 -6046 11481 -10082
39417 306574 299715 -6063 11533 -10023
39480 306507 299650 -6079 11596 -9980
39543 306499 299622 -6078 11580 -9975
39603 306499 299608 -6074 11580 -9969
39666 306464 299569 -6090 11616 -9975
39731 306425 299535 -6109 11632 -9984
39796 306355 299492 -6119 11617 -9989
39861 306284 299417 -6117 11586 -10003
39934 306277 299393 -6113 11582 -10018
40010 306292 299406 -6123 11603 -10038
40091 306237 299369 -6133 11622 -10029
40170 306229 299338 -6130 11654 -10029
40225 306150 299274 -6125 11665 -10057
40197 305948 299159 -6123 11627 -10067
40091 305810 299085 -6118 11608 -10049
39939 305716 299039 -6119 11613 -10034
39775 305657 299026 -6136 11617 -10030
39620 305608 299004 -6100 11632 -10074
39502 305603 299015 -6106 11620 -10062
39410 305589 299009 -6163 11599 -10083
39350 305534 298954 -6144 11572 -10111
39301 305564 298971 -6026 11604 -10076
39260 305616 298962 -6015 11670 -10063
39224 305534 298865 -6102 11594 -10083
39207 305537 298811 -6145 11542 -10102
39205 305512 298732 -6124 11547 -10114
39194 305468 298641 -6106 11562 -10115
39169 305462 298573 -6112 11572 -10121
39141 305515 298582 -6112 11538 -10117
39120 305568 298577 -6108 11533 -10106
39097 305668 298591 -6102 11560 -10132
39078 305838 298635 -6104 11532 -10136
39063 305974 298686 -6143 11559 -10136
39048 306106 298699 -6167 11588 -10122
39038 306224 298696 -6134 11561 -10061
39026 306240 298622 -6120 11565 -10059
39015 306111 298432 -6159 11553 -10092
39013 306050 298284 -6196 11481 -10129
39021 306078 298224 -6187 11441 -10112
39039 306094 298249 -6166 11498 -10086
39079 306099 298344 -6183 11500 -10085
39141 306138 298519 -6201 11469 -10078
39216 306156 298675 -6218 11473 -10070
39285 306104 298758 -6232 11447 -10041
39356 306043 298799 -6256 11414 -10015
39433 305999 298812 -6348 11432 -10020
39504 305974 298840 -6350 11555 -10053
39575 305906 298822 -6274 11670 -10034
39647 305845 298802 -6251 11623 -10023
39723 305862 298781 -6237 11516 -10076
39798 305864 298799 -6209 11432 -10061
39882 305815 298753 -6180 11381 -9984
39957 305795 298717 -6163 11408 -9963
40002 305684 298623 -6155 11479 -9998
39955 305517 298524 -6161 11514 -10031
39842 305391 298470 -6150 11516 -10056
39692 305327 298439 -6140 11536 -10076
39531 305270 298416 -6191 11551 -10100
39386 305233 298405 -6164 11573 -10093
39270 305213 298411 -6173 11592 -10049
39190 305199 298414 -6212 11544 -10068
39134 305176 298388 -6147 11547 -10126
39096 305199 298401 -6061 11631 -10128
39065 305185 298405 -6096 11619 -10135
39048 305184 298399 -6165 11521 -10124
39053 305195 298405 -6173 11478 -10109
39069 305214 298424 -6120 11499 -10109
39071 305237 298439 -6146 11487 -10119
39068 305268 298470 -6158 11449 -10105
39065 305283 298468 -6156 11424 -10123
39058 305289 298501 -6136 11453 -10152
39060 305335 298550 -6153 11476 -10131
39066 305381 298560 -6191 11448 -10124
39076 305415 298589 -6183 11451 -10156
39097 305453 298617 -6156 11494 -10176
39126 305486 298651 -6152 11482 -10189
39166 305528 298668 -6194 11425 -10186
39210 305579 298689 -6212 11394 -10178
39255 305644 298720 -6183 11402 -10185
39313 305748 298790 -6168 11407 -10189
39367 305833 298835 -6157 11398 -10198
39422 305928 298893 -6148 11402 -10205
39479 306012 298930 -6142 11407 -10202
39536 306104 298981 -6135 11406 -10198
39593 306201 299021 -6144 11384 -10200
39649 306310 299078 -6160 11357 -10210
39707 306397 299132 -6149 11382 -10241
39763 306476 299169 -6128 11426 -10271
39817 306547 299213 -6138 11414 -10270
39869 306633 299252 -6143 11388 -10244
39923 306701 299289 -6133 11386 -10218
39981 306693 299263 -6125 11400 -10212
40037 306718 299246 -6121 11384 -10216
40087 306730 299231 -6116 11374 -10230
40080 306696 299195 -6106 11396 -10237
39978 306588 299136 -6112 11400 -10230
39820 306510 299103 -6130 11375 -10238
39633 306429 299051 -6128 11378 -10260
39447 306386 299030 -6112 11431 -10238
39290 306365 299038 -6120 11422 -10170
39171 306370 299053 -6149 11405 -10195
39081 306367 299034 -6088 11434 -10265
39013 306352 299027 -5980 11488 -10258
38957 306340 298997 -6011 11499 -10236
38912 306318 298968 -6109 11406 -10237
38891 306342 298978 -6137 11344 -10238
38887 306333 298943 -6020 11367 -10236
38874 306299 298926 -6068 11359 -10248
38852 306307 298913 -6104 11348 -10254
38826 306294 298902 -6115 11352 -10260
38800 306292 298895 -6107 11389 -10255
38777 306406 298962 -6124 11420 -10230
38760 306529 299012 -6165 11402 -10213
38742 306615 299033 -6155 11409 -10216
38730 306656 299016 -6121 11461 -10226
38728 306684 299004 -6200 11355 -10271
38731 306669 298970 -6202 11351 -10261
38739 306692 298964 -6168 11400 -10236
38756 306688 298942 -6148 11383 -10204
38777 306712 298943 -6158 11342 -10162
38804 306709 298943 -6165 11338 -10142
38836 306720 298938 -6160 11366 -10122
38876 306741 298938 -6164 11398 -10103
38917 306765 298954 -6176 11424 -10117
38962 306794 298959 -6192 11442 -10139
39007 306835 298973 -6215 11453 -10145
39059 306936 299071 -6214 11457 -10138
39123 307020 299134 -6194 11463 -10133
39191 307095 299211 -6175 11467 -10132
39260 307186 299297 -6169 11463 -10126
39302 307247 299341 -6180 11458 -10123
39257 307222 299352 -6191 11470 -10122
39139 307187 299370 -6190 11498 -10148
38981 307141 299369 -6182 11526 -10134
38810 307072 299350 -6186 11471 -10066
38659 307022 299327 -6236 11454 -10055
38536 306989 299311 -6234 11510 -10076
38447 306949 299277 -6145 11533 -10076
38384 306863 299207 -6141 11528 -10075
38341 306817 299169 -6202 11470 -10069
38314 306803 299149 -6207 11439 -10060
38305 306855 299174 -6181 11461 -10065
38313 306809 299128 -6173 11488 -10067
38314 306777 299096 -6180 11488 -10075
38304 306781 299116 -6184 11465 -10094
38287 306766 299108 -6202 11437 -10108
38265 306722 299086 -6194 11435 -10107
38245 306706 299081 -6200 11521 -10134
38230 306678 299052 -6216 11522 -10139
38231 306633 299037 -6181 11471 -10113
38237 306603 299007 -6149 11521 -10107
38256 306582 298982 -6152 11518 -10107
38282 306551 298946 -6180 11484 -10133
38316 306424 298842 -6172 11502 -10152
38367 306321 298766 -6136 11544 -10152
38424 306380 298814 -6149 11528 -10137
38481 306401 298821 -6148 11538 -10152
38539 306427 298839 -6125 11562 -10137
38604 306397 298820 -6101 11601 -10095
38667 306363 298792 -6093 11601 -10017
38736 306366 298802 -6115 11616 -9951
38806 306391 298817 -6151 11666 -9982
38879 306431 298844 -6166 11641 -10060
38949 306478 298870 -6155 11601 -10112
39032 306464 298847 -6077 11575 -10051
39115 306498 298857 -6090 11553 -10043
39190 306539 298876 -6120 11563 -10060
39202 306467 298806 -6129 11575 -10085
39119 306335 298742 -6111 11601 -10105
38980 306296 298744 -6114 11614 -10072
38819 306285 298762 -6177 11596 -10028
38665 306349 298827 -6214 11599 -10047
38543 306433 298821 -6090 11661 -10086
38444 306693 298889 -6173 11631 -10030
38360 307005 298947 -6254 11551 -10043
38271 307231 298911 -6230 11576 -10092
38171 307267 298782 -6194 11626 -10119
38091 307435 298804 -6207 11620 -10097
38032 307642 298862 -6258 11529 -9972
37996 307817 298949 -6292 11429 -9882
37960 308044 299088 -6264 11404 -9923
37924 308300 299279 -6240 11480 -9865
37877 308470 299410 -6348 11549 -9833
37832 308641 299564 -6487 11501 -9896
37793 308880 299774 -6492 11443 -9913
37763 309142 300022 -6433 11446 -9913
37742 309375 300244 -6431 11472 -9922
37731 309491 300413 -6456 11439 -9964
37738 309555 300540 -6431 11393 -10024
37760 309626 300655 -6405 11386 -10033
37786 309613 300696 -6375 11399 -10019
37821 309542 300695 -6342 11384 -10043
37873 309480 300678 -6365 11322 -10058
37929 309390 300644 -6412 11304 -10099
37990 309331 300624 -6406 11335 -10148
38048 309316 300624 -6368 11356 -10140
38108 309442 300729 -6351 11368 -10104
38156 309613 300852 -6344 11364 -10051
38193 309802 300950 -6343 11375 -10023
38205 310028 301053 -6348 11438 -10011
38207 310235 301103 -6340 11482 -10012
38182 310228 300987 -6357 11485 -9976
38172 310129 300821 -6374 11491 -9935
38173 310035 300651 -6445 11513 -9867
38154 309920 300497 -6456 11518 -9786
38056 309777 300357 -6468 11497 -9712
37886 309650 300230 -6603 11491 -9631
37687 309566 300137 -6692 11552 -9621
37489 309467 300041 -6581 11628 -9702
37319 309400 299984 -6535 11674 -9656
37184 309292 299880 -6657 11656 -9655
37089 308955 299658 -6771 11637 -9689
37044 308456 299394 -6730 11550 -9741
37041 308039 299285 -6751 11560 -9696
37055 307825 299276 -6692 11548 -9676
37070 307826 299293 -6558 11462 -9650
37099 307832 299272 -6497 11392 -9759
37125 307998 299353 -6405 11353 -9932
37123 308077 299307 -6406 11408 -10044
37115 307996 299182 -6455 11395 -10100
37108 308053 299145 -6487 11288 -10028
37086 308106 299076 -6537 11366 -10075
37069 308181 299038 -6512 11439 -10114
37053 308180 298966 -6516 11388 -10132
37054 308207 298924 -6516 11354 -10106
37065 308304 298954 -6456 11406 -10106
37082 308488 299040 -6424 11438 -10161
37094 308562 299000 -6464 11374 -10070
37109 308565 298945 -6461 11355 -10018
37131 308437 298810 -6453 11424 -9973
37170 308375 298763 -6549 11387 -9944
37227 308121 298709 -6603 11306 -9893
37325 307929 298821 -6641 11315 -9950
37434 307776 299066 -6691 11370 -10024
37544 307992 299486 -6648 11396 -10086
37638 308205 299771 -6595 11365 -10157
37721 308112 299794 -6493 11325 -10123
37808 307955 299737 -6436 11211 -10112
37895 307745 299603 -6446 11178 -10160
37987 307521 299476 -6362 11254 -10244
38088 307394 299416 -6267 11260 -10213
38194 307242 299327 -6232 11242 -10184
38311 307270 299358 -6271 11256 -10201
38405 307253 299316 -6305 11283 -10220
38430 307062 299209 -6279 11323 -10196
38373 306926 299165 -6276 11290 -10134
38285 307073 299328 -6371 11257 -10153
38195 307482 299652 -6361 11284 -10224
38068 307865 299955 -6238 11347 -10241
37949 308189 300194 -6245 11414 -10254
37840 308149 300130 -6330 11419 -10294
37723 307503 299559 -6346 11297 -10316
37627 307041 299111 -6243 11242 -10475
37561 306905 298838 -6179 11233 -10641
37488 306537 298424 -6179 11214 -10601
37446 306428 298255 -6247 10995 -10321
37436 306759 298474 -6320 10766 -10151
37450 307497 298993 -6380 10927 -10108
37447 307924 299183 -6491 11293 -10120
37424 307776 298913 -6512 11583 -10359
37400 307423 298594 -6335 11578 -10766
37401 307349 298528 -6472 10693 -10400
37412 307585 298694 -6410 10805 -10239
37435 307931 298970 -6443 11299 -10139
37446 307836 298910 -6422 11380 -10042
37438 307200 298514 -6432 11351 -9973
37437 306593 298190 -6414 11207 -10013
37460 306094 297982 -6477 10959 -10235
37503 305852 297891 -6616 10963 -10327
37566 305940 297929 -6550 11202 -10306
37627 306049 297937 -6514 11420 -10221
37689 306139 297956 -6557 11520 -10069
37747 306185 298016 -6529 11475 -9936
37819 306276 298093 -6538 11423 -9881
37892 306398 298144 -6524 11511 -9842
37949 306392 298089 -6454 11528 -9859
38006 306404 298054 -6493 11490 -9874
38067 306481 298027 -6591 11505 -9886
38121 306500 297927 -6589 11471 -9858
38172 306507 297766 -6541 11456 -9809
38206 306441 297479 -6489 11439 -9851
38254 306605 297358 -6476 11394 -9820
38314 306912 297379 -6505 11365 -9733
38366 307085 297285 -6514 11402 -9751
38400 307010 297031 -6538 11549 -9757
38397 306848 296781 -6666 11438 -9650
38334 306712 296718 -6870 11170 -9673
38230 306566 296667 -6875 11235 -9727
38107 306334 296662 -6855 11491 -9699
37992 306092 296803 -6951 11615 -9639
37901 305945 297185 -6966 11602 -9672
37852 305819 297649 -6803 11530 -9802
37856 305776 298108 -6523 11282 -9947
37892 305883 298510 -6374 11084 -10027
37954 306258 298921 -6312 11125 -10117
38011 306526 299113 -6208 11272 -10435
38072 306518 299099 -6186 11270 -10639
38142 306552 299085 -6249 11087 -10550
38192 306580 299076 -6305 11060 -10463
38226 306671 299109 -6345 11159 -10372
38256 306682 299150 -6360 11150 -10254
38287 306675 299160 -6396 11058 -10262
38319 306735 299211 -6385 10999 -10348
38359 306868 299296 -6325 10983 -10443
38399 306918 299323 -6284 10971 -10541
