Time(s)	IR_denoised_median
0.000000	-44.748869
0.010000	-44.748869
0.020000	-44.748869
0.030000	-22.039633
0.040000	10.303768
0.050000	64.074361
0.060000	98.233415
0.070000	165.468340
0.080000	228.940172
0.090000	305.031938
0.100000	366.551126
0.110000	442.774954
0.120000	525.082747
0.130000	618.580862
0.140000	693.544321
0.150000	764.534454
0.160000	835.001852
0.170000	910.520772
0.180000	992.475183
0.190000	1054.458480
0.200000	1113.094823
0.210000	1166.373526
0.220000	1238.816248
0.230000	1302.172927
0.240000	1354.639984
0.250000	1377.224250
0.260000	1377.224250
0.270000	1377.224250
0.280000	1241.732136
0.290000	1052.594339
0.300000	894.408004
0.310000	756.735493
0.320000	667.220865
0.330000	639.871902
0.340000	626.896999
0.350000	626.896999
0.360000	626.896999
0.370000	648.338195
0.380000	699.623838
0.390000	713.357660
0.400000	717.219018
0.410000	717.219018
0.420000	717.219018
0.430000	690.123629
0.440000	690.004398
0.450000	690.004398
0.460000	690.004398
0.470000	699.147568
0.480000	746.399603
0.490000	787.169088
0.500000	819.883506
0.510000	866.292176
0.520000	912.306716
0.530000	940.443898
0.540000	986.915575
0.550000	1025.462419
0.560000	1068.669708
0.570000	1114.479502
0.580000	1142.412216
0.590000	1195.710758
0.600000	1236.972557
0.610000	1294.161049
0.620000	1341.424755
0.630000	1402.788146
0.640000	1472.836059
0.650000	1542.445160
0.660000	1557.495645
0.670000	1557.495645
0.680000	1557.495645
0.690000	1425.256266
0.700000	1244.838736
0.710000	1060.370749
0.720000	924.245336
0.730000	799.280079
0.740000	724.903286
0.750000	675.050513
0.760000	658.312329
0.770000	658.312329
0.780000	658.312329
0.790000	695.960646
0.800000	713.102168
0.810000	715.903687
0.820000	718.635474
0.830000	718.635474
0.840000	718.635474
0.850000	712.320808
0.860000	712.320808
0.870000	712.320808
0.880000	713.031652
0.890000	730.792186
0.900000	761.930178
0.910000	781.985705
0.920000	816.005877
0.930000	854.124504
0.940000	903.168565
0.950000	936.211699
0.960000	983.529421
0.970000	1013.168989
0.980000	1019.002161
0.990000	1048.313877
1.000000	1048.656807
1.010000	1054.934378
1.020000	1060.583259
1.030000	1058.331629
1.040000	1056.368118
1.050000	1056.368118
1.060000	1058.331629
1.070000	1058.331629
1.080000	1056.368118
1.090000	1052.715118
1.100000	944.584926
1.110000	739.171874
1.120000	524.491647
1.130000	314.353399
1.140000	165.555655
1.150000	104.490464
1.160000	49.361408
1.170000	49.361408
1.180000	49.361408
1.190000	67.418558
1.200000	128.811572
1.210000	151.147818
1.220000	151.147818
1.230000	151.147818
1.240000	145.836629
1.250000	145.222335
1.260000	122.698907
1.270000	97.002774
1.280000	91.749504
1.290000	91.749504
1.300000	91.749504
1.310000	100.235167
1.320000	119.526905
1.330000	133.216123
1.340000	150.410272
1.350000	162.183259
1.360000	198.435817
1.370000	217.990535
1.380000	253.699876
1.390000	275.660454
1.400000	286.086977
1.410000	311.431591
1.420000	321.352554
1.430000	349.412527
1.440000	375.504820
1.450000	404.495960
1.460000	404.495960
1.470000	404.495960
1.480000	383.715975
1.490000	246.814054
1.500000	42.995818
1.510000	-144.816340
1.520000	-288.843269
1.530000	-378.461532
1.540000	-412.676683
1.550000	-412.676683
1.560000	-412.676683
1.570000	-396.997394
1.580000	-354.858122
1.590000	-304.791643
1.600000	-271.424279
1.610000	-271.424279
1.620000	-271.424279
1.630000	-299.244261
1.640000	-305.216230
1.650000	-321.176658
1.660000	-321.176658
1.670000	-321.176658
1.680000	-304.725372
1.690000	-270.620623
1.700000	-244.139998
1.710000	-200.101126
1.720000	-168.677839
1.730000	-125.402893
1.740000	-55.213014
1.750000	6.184227
1.760000	44.338367
1.770000	105.967360
1.780000	145.664568
1.790000	175.937243
1.800000	230.075373
1.810000	322.883713
1.820000	401.327044
1.830000	443.943932
1.840000	448.347056
1.850000	448.347056
1.860000	448.347056
1.870000	286.660216
1.880000	101.100698
1.890000	-76.476555
1.900000	-222.141632
1.910000	-284.512315
1.920000	-326.672925
1.930000	-356.370843
1.940000	-356.370843
1.950000	-356.370843
1.960000	-316.449025
1.970000	-287.372156
1.980000	-244.502315
1.990000	-244.502315
2.000000	-244.502315
2.010000	-248.775946
2.020000	-262.459792
2.030000	-273.403188
2.040000	-273.403188
2.050000	-273.403188
2.060000	-266.238910
2.070000	-232.240097
2.080000	-189.136172
2.090000	-147.359403
2.100000	-93.946756
2.110000	-38.518468
2.120000	4.250897
2.130000	77.503234
2.140000	118.178676
2.150000	164.825678
2.160000	226.045721
2.170000	280.086117
2.180000	345.043428
2.190000	404.272196
2.200000	463.122452
2.210000	527.480493
2.220000	571.133900
2.230000	578.156506
2.240000	578.156506
2.250000	578.156506
2.260000	434.135599
2.270000	230.444278
2.280000	40.461077
2.290000	-120.407802
2.300000	-219.145889
2.310000	-280.399254
2.320000	-305.670471
2.330000	-316.426906
2.340000	-316.426906
2.350000	-316.426906
2.360000	-281.746510
2.370000	-243.255353
2.380000	-243.255353
2.390000	-243.255353
2.400000	-248.711726
2.410000	-280.999897
2.420000	-301.092157
2.430000	-301.092157
2.440000	-301.092157
2.450000	-294.820916
2.460000	-281.963430
2.470000	-255.469191
2.480000	-225.577799
2.490000	-189.064540
2.500000	-142.174922
2.510000	-96.686912
2.520000	-43.699761
2.530000	11.667548
2.540000	64.791951
2.550000	119.059045
2.560000	169.274989
2.570000	219.490673
2.580000	281.794694
2.590000	325.820133
2.600000	373.472255
2.610000	426.107286
2.620000	479.147493
2.630000	479.147493
2.640000	479.147493
2.650000	425.965406
2.660000	265.121532
2.670000	85.652373
2.680000	-67.386304
2.690000	-186.751712
2.700000	-256.858597
2.710000	-263.618489
2.720000	-263.618489
2.730000	-263.618489
2.740000	-245.832078
2.750000	-207.958333
2.760000	-152.345710
2.770000	-129.418785
2.780000	-129.418785
2.790000	-129.418785
2.800000	-141.930039
2.810000	-153.407898
2.820000	-158.671501
2.830000	-158.671501
2.840000	-158.671501
2.850000	-151.196223
2.860000	-134.923187
2.870000	-102.654902
2.880000	-76.244988
2.890000	-32.981659
2.900000	11.336807
2.910000	61.758052
2.920000	110.893505
2.930000	159.529122
2.940000	208.458978
2.950000	258.308326
2.960000	318.055836
2.970000	363.003320
2.980000	415.790840
2.990000	459.597900
3.000000	459.597900
3.010000	459.597900
3.020000	371.798561
3.030000	199.090227
3.040000	-8.875654
3.050000	-159.561320
3.060000	-272.851872
3.070000	-337.119718
3.080000	-367.896263
3.090000	-367.896263
3.100000	-367.896263
3.110000	-364.178997
3.120000	-327.874425
3.130000	-289.857364
3.140000	-264.363958
3.150000	-264.363958
3.160000	-264.363958
3.170000	-292.477180
3.180000	-304.001114
3.190000	-307.569320
3.200000	-307.569320
3.210000	-307.569320
3.220000	-282.895216
3.230000	-276.734534
3.240000	-233.839126
3.250000	-226.465076
3.260000	-171.352315
3.270000	-134.602406
3.280000	-134.602406
3.290000	-134.602406
3.300000	-514.898379
3.310000	-530.260419
3.320000	-530.260419
3.330000	-514.898379
3.340000	-457.257667
3.350000	-448.767348
3.360000	-386.870949
3.370000	-356.830201
3.380000	-308.109243
3.390000	-256.072159
3.400000	-200.302415
3.410000	-149.337040
3.420000	-111.493423
3.430000	-62.510991
3.440000	0.257550
3.450000	43.216752
3.460000	109.219628
3.470000	150.697171
3.480000	202.408746
3.490000	258.065661
3.500000	298.563368
3.510000	327.497092
3.520000	327.497092
3.530000	327.497092
3.540000	255.322013
3.550000	89.647440
3.560000	-117.122637
3.570000	-293.133200
3.580000	-407.680530
3.590000	-471.026694
3.600000	-505.271393
3.610000	-527.908109
3.620000	-535.806296
3.630000	-535.806296
3.640000	-535.806296
3.650000	-499.879249
3.660000	-499.879249
3.670000	-499.879249
3.680000	-489.846479
3.690000	-489.846479
3.700000	-437.502779
3.710000	-402.414665
3.720000	-367.913351
3.730000	-319.403007
3.740000	-259.372642
3.750000	-207.440261
3.760000	-178.821780
3.770000	-118.286035
3.780000	-99.627373
3.790000	-20.650585
3.800000	8.982944
3.810000	55.465585
3.820000	119.410801
3.830000	163.475096
3.840000	163.475096
3.850000	163.475096
3.860000	129.735828
3.870000	-8.956068
3.880000	-201.493494
3.890000	-365.977741
3.900000	-473.872268
3.910000	-541.124551
3.920000	-598.294202
3.930000	-609.090842
3.940000	-609.090842
3.950000	-609.090842
3.960000	-596.909080
3.970000	-553.280487
3.980000	-546.367941
3.990000	-543.562427
4.000000	-543.562427
4.010000	-546.367941
4.020000	-578.130814
4.030000	-578.130814
4.040000	-578.130814
4.050000	-544.449301
4.060000	-543.594160
4.070000	-495.345884
4.080000	-483.467167
4.090000	-416.765573
4.100000	182.718471
4.110000	249.572107
4.120000	269.159795
4.130000	336.834950
4.140000	365.095246
4.150000	437.564154
4.160000	457.531743
4.170000	544.884595
4.180000	544.884595
4.190000	544.884595
4.200000	466.694168
4.210000	309.798124
4.220000	98.971500
4.230000	-55.771694
4.240000	-163.080887
4.250000	-234.352887
4.260000	-279.132045
4.270000	-286.882815
4.280000	-286.882815
4.290000	-286.882815
4.300000	-269.655253
4.310000	-233.519737
4.320000	-229.103144
4.330000	-229.103144
4.340000	-229.103144
4.350000	-233.009567
4.360000	-263.175657
4.370000	-263.175657
4.380000	-263.175657
4.390000	-253.820074
4.400000	139.753010
4.410000	221.897177
4.420000	249.069588
4.430000	318.172080
4.440000	339.870532
4.450000	402.932018
4.460000	449.263971
4.470000	497.899634
4.480000	543.586540
4.490000	593.898292
4.500000	637.853940
4.510000	701.995779
4.520000	701.995779
4.530000	701.995779
4.540000	619.867045
4.550000	451.631817
4.560000	256.737976
4.570000	74.133738
4.580000	-46.365756
4.590000	-106.510530
4.600000	-139.560646
4.610000	-164.119209
4.620000	-226.837294
4.630000	-322.590455
4.640000	-338.349936
4.650000	-342.096574
4.660000	-355.874565
4.670000	-355.874565
4.680000	-388.382389
4.690000	-473.473330
4.700000	-525.577412
4.710000	-525.577412
4.720000	-525.577412
4.730000	-431.874925
4.740000	-417.894920
4.750000	-377.087365
4.760000	-259.372784
4.770000	-144.662106
4.780000	-109.847646
4.790000	-63.780614
4.800000	-31.647347
4.810000	-20.855619
4.820000	83.884610
4.830000	199.519257
4.840000	285.528027
4.850000	344.005803
4.860000	398.224217
4.870000	439.398900
4.880000	504.039389
4.890000	575.640948
4.900000	646.874297
4.910000	722.911842
4.920000	775.612188
4.930000	775.612188
4.940000	775.612188
4.950000	759.758192
4.960000	582.834222
4.970000	396.267414
4.980000	246.504668
4.990000	153.698566
5.000000	79.007166
5.010000	38.273938
5.020000	14.413178
5.030000	5.529966
5.040000	5.529966
5.050000	5.529966
5.060000	32.100684
5.070000	32.100684
5.080000	32.100684
5.090000	29.792341
5.100000	2.930455
5.110000	-12.279901
5.120000	-14.141930
5.130000	-14.141930
5.140000	-12.279901
5.150000	1.320702
5.160000	26.172302
5.170000	47.901681
5.180000	88.574378
5.190000	126.354891
5.200000	186.097430
5.210000	242.663462
5.220000	290.667335
5.230000	341.009294
5.240000	379.159853
5.250000	433.465270
5.260000	484.513506
5.270000	527.954844
5.280000	568.885248
5.290000	622.464120
5.300000	622.464120
5.310000	622.464120
5.320000	528.797652
5.330000	368.894476
5.340000	160.509602
5.350000	11.267911
5.360000	-93.121927
5.370000	-164.360274
5.380000	-164.360274
5.390000	-164.360274
5.400000	-152.998582
5.410000	-133.432135
5.420000	-122.861852
5.430000	-103.803102
5.440000	-70.767553
5.450000	-35.230245
5.460000	0.341799
5.470000	43.359952
5.480000	92.417038
5.490000	122.876354
5.500000	187.695298
5.510000	236.097645
5.520000	296.179886
5.530000	342.160549
5.540000	424.864366
5.550000	444.799977
5.560000	510.108392
5.570000	510.108392
5.580000	510.108392
5.590000	450.400371
5.600000	-236.776934
5.610000	-274.893644
5.620000	-275.313402
5.630000	-275.313402
5.640000	-277.526264
5.650000	-316.743184
5.660000	-321.258791
5.670000	-323.408598
5.680000	-323.408598
5.690000	-321.258791
5.700000	97.346820
5.710000	145.748137
5.720000	181.395823
5.730000	243.191657
5.740000	271.160397
5.750000	271.160397
5.760000	271.160397
5.770000	226.830422
5.780000	85.005499
5.790000	-92.238981
5.800000	-244.465831
5.810000	-350.429702
5.820000	-413.017235
5.830000	-447.668815
5.840000	-447.668815
5.850000	-447.668815
5.860000	-442.111409
5.870000	-394.076942
5.880000	-360.938559
5.890000	-360.938559
5.900000	-360.938559
5.910000	-373.818829
5.920000	-380.029649
5.930000	-413.823662
5.940000	-413.823662
5.950000	-413.823662
5.960000	-412.414844
5.970000	-398.353462
5.980000	-384.051548
5.990000	-353.658048
6.000000	-330.812266
6.010000	-281.820790
6.020000	-239.772103
6.030000	-190.870528
6.040000	-124.757214
6.050000	-101.128581
6.060000	-63.439026
6.070000	0.475437
6.080000	48.714574
6.090000	103.238691
6.100000	153.763387
6.110000	153.763387
6.120000	153.763387
6.130000	144.833886
6.140000	9.716583
6.150000	-147.405231
6.160000	-315.271783
6.170000	-435.531698
6.180000	-506.432360
6.190000	-543.723060
6.200000	-562.841269
6.210000	-562.841269
6.220000	-562.841269
6.230000	-525.965256
6.240000	-487.232781
6.250000	-463.177112
6.260000	-463.177112
6.270000	-463.177112
6.280000	-486.832643
6.290000	-490.338494
6.300000	-493.498272
6.310000	-493.498272
6.320000	-493.498272
6.330000	-471.837200
6.340000	-451.727777
6.350000	-436.200294
6.360000	-404.910549
6.370000	-361.647147
6.380000	-329.162893
6.390000	-281.979019
6.400000	-224.514847
6.410000	-181.383849
6.420000	-134.767752
6.430000	-77.836351
6.440000	-29.107767
6.450000	36.814278
6.460000	77.348032
6.470000	116.630680
6.480000	180.791833
6.490000	180.791833
6.500000	180.791833
6.510000	122.773707
6.520000	-42.178940
6.530000	-228.461279
6.540000	-389.733011
6.550000	-523.835071
6.560000	-597.218325
6.570000	-651.432582
6.580000	-684.601815
6.590000	-703.070108
6.600000	-703.070108
6.610000	-703.070108
6.620000	-681.378471
6.630000	-670.148108
6.640000	-670.148108
6.650000	-670.148108
6.660000	-690.249014
6.670000	-719.780319
6.680000	-740.726691
6.690000	-740.726691
6.700000	-740.726691
6.710000	-734.305217
6.720000	-711.550757
6.730000	-675.167911
6.740000	-659.042158
6.750000	-625.851719
6.760000	-560.611515
6.770000	-517.742672
6.780000	-487.019739
6.790000	-437.593310
6.800000	-387.578679
6.810000	-334.403255
6.820000	-283.174737
6.830000	-214.160892
6.840000	-171.963300
6.850000	-125.726978
6.860000	-59.809230
6.870000	-12.456546
6.880000	19.443078
6.890000	74.897232
6.900000	114.464792
6.910000	153.386184
6.920000	153.386184
6.930000	153.386184
6.940000	41.411282
6.950000	-129.763553
6.960000	-311.575828
6.970000	-461.277943
6.980000	-543.597700
6.990000	-601.020014
7.000000	-641.538839
7.010000	-657.733628
7.020000	-670.571704
7.030000	-670.571704
7.040000	-670.571704
7.050000	-642.325806
7.060000	-642.325806
7.070000	-642.325806
7.080000	-646.330206
7.090000	-656.921064
7.100000	-670.412948
7.110000	-689.654166
7.120000	-689.654166
7.130000	-689.654166
7.140000	-666.226467
7.150000	-646.634587
7.160000	-620.082690
7.170000	-583.648054
7.180000	-533.948886
7.190000	-502.769146
7.200000	-457.649476
7.210000	-393.977366
7.220000	-349.476787
7.230000	-301.028711
7.240000	-246.371412
7.250000	-195.122502
7.260000	-151.260154
7.270000	-101.177384
7.280000	-49.207346
7.290000	12.793039
7.300000	56.737210
7.310000	99.879466
7.320000	159.674004
7.330000	201.815637
7.340000	253.772584
7.350000	316.671796
7.360000	362.784458
7.370000	362.784458
7.380000	362.784458
7.390000	296.870869
7.400000	151.288085
7.410000	-35.998309
7.420000	-188.729427
7.430000	-278.003567
7.440000	-349.958851
7.450000	-386.838943
7.460000	-410.301935
7.470000	-410.301935
7.480000	-410.301935
7.490000	-393.475666
7.500000	-384.073899
7.510000	-384.073899
7.520000	-384.073899
7.530000	-385.532999
7.540000	-415.362950
7.550000	-431.959533
7.560000	-454.206130
7.570000	-454.206130
7.580000	-454.206130
7.590000	-434.229982
7.600000	-420.460502
7.610000	-380.038874
7.620000	-355.945468
7.630000	-325.669458
7.640000	-298.519148
7.650000	-247.200580
7.660000	-207.266255
7.670000	-149.554520
7.680000	-129.245318
7.690000	-59.518492
7.700000	413.509342
7.710000	478.317136
7.720000	478.317136
7.730000	478.317136
7.740000	417.190330
7.750000	283.577667
7.760000	115.610524
7.770000	9.248408
7.780000	-89.378567
7.790000	-127.786267
7.800000	-135.590432
7.810000	-135.590432
7.820000	-135.590432
7.830000	-127.592149
7.840000	-94.266865
7.850000	-49.244216
7.860000	-42.550381
7.870000	-42.550381
7.880000	-42.550381
7.890000	-66.183814
7.900000	-66.183814
7.910000	-66.183814
7.920000	-64.682263
7.930000	-46.373277
7.940000	-40.119274
7.950000	-16.951475
7.960000	21.365998
7.970000	54.426067
7.980000	79.908142
7.990000	134.919349
8.000000	154.176763
8.010000	210.800716
8.020000	250.102548
8.030000	299.917190
8.040000	360.962551
8.050000	404.962974
8.060000	456.978232
8.070000	503.913393
8.080000	555.065082
8.090000	588.788735
8.100000	630.290751
8.110000	689.632851
8.120000	724.382837
8.130000	768.698144
8.140000	830.413663
8.150000	830.413663
8.160000	830.413663
8.170000	735.651633
8.180000	606.693931
8.190000	446.565740
8.200000	308.069983
8.210000	222.433016
8.220000	168.434101
8.230000	168.314268
8.240000	156.994772
8.250000	156.994772
8.260000	156.994772
8.270000	185.444853
8.280000	220.593570
8.290000	242.197374
8.300000	242.197374
8.310000	242.197374
8.320000	225.594901
8.330000	211.893418
8.340000	202.128208
8.350000	202.128208
8.360000	202.128208
8.370000	209.629900
8.380000	239.717908
8.390000	283.127583
8.400000	795.899675
8.410000	851.844698
8.420000	899.874247
8.430000	950.373502
8.440000	1007.848953
8.450000	1058.869460
8.460000	1107.889337
8.470000	1141.332577
8.480000	1141.332577
8.490000	1141.332577
8.500000	542.057995
8.510000	537.309383
8.520000	537.309383
8.530000	537.309383
8.540000	537.309383
8.550000	526.101054
8.560000	515.837863
8.570000	478.521222
8.580000	478.521222
8.590000	478.521222
8.600000	483.730791
8.610000	506.174502
8.620000	532.135265
8.630000	564.598673
8.640000	610.568852
8.650000	649.966583
8.660000	667.032478
8.670000	736.601535
8.680000	764.048926
8.690000	816.699586
8.700000	1302.017915
8.710000	1344.026646
8.720000	1344.026646
8.730000	1344.026646
8.740000	1223.556560
8.750000	1080.089778
8.760000	909.540344
8.770000	789.395305
8.780000	694.259878
8.790000	667.909104
8.800000	639.964238
8.810000	639.964238
8.820000	639.964238
8.830000	674.629725
8.840000	692.203035
8.850000	693.651526
8.860000	693.651526
8.870000	693.651526
8.880000	651.706884
8.890000	638.776405
8.900000	595.730529
8.910000	570.212110
8.920000	558.630939
8.930000	548.638662
8.940000	545.632895
8.950000	544.960716
8.960000	472.555386
8.970000	387.630313
8.980000	328.439681
8.990000	296.654245
9.000000	296.654245
9.010000	296.654245
9.020000	303.172887
9.030000	327.727913
9.040000	408.752485
9.050000	541.699594
9.060000	697.280063
9.070000	851.702182
9.080000	1022.938024
9.090000	1154.515845
9.100000	1172.656427
9.110000	1172.656427
9.120000	1172.656427
9.130000	1166.424567
9.140000	1158.272737
9.150000	1079.899433
9.160000	892.512059
9.170000	703.830805
9.180000	544.424057
9.190000	424.720679
9.200000	340.308903
9.210000	315.703400
9.220000	310.650891
9.230000	309.840548
9.240000	309.840548
9.250000	310.650891
9.260000	353.451023
9.270000	401.998357
9.280000	401.998357
9.290000	401.998357
9.300000	392.136485
9.310000	343.206753
9.320000	322.028250
9.330000	298.175197
9.340000	298.175197
9.350000	298.175197
9.360000	302.042597
9.370000	334.155751
9.380000	352.925911
9.390000	377.327402
9.400000	411.778222
9.410000	467.526535
9.420000	498.481513
9.430000	533.940936
9.440000	567.093574
9.450000	615.429764
9.460000	668.636685
9.470000	701.885865
9.480000	760.379004
9.490000	807.122797
9.500000	840.224030
9.510000	840.224030
9.520000	840.224030
9.530000	749.075799
9.540000	592.193327
9.550000	419.901351
9.560000	272.597455
9.570000	163.656859
9.580000	163.656859
9.590000	163.656859
9.600000	224.800941
9.610000	284.859358
9.620000	322.733046
9.630000	375.169368
9.640000	419.503880
9.650000	472.589493
9.660000	514.174049
9.670000	514.174049
9.680000	514.174049
9.690000	482.753207
9.700000	330.123646
9.710000	137.514672
9.720000	-48.363262
9.730000	-184.735834
9.740000	-288.014239
9.750000	-360.950688
9.760000	-403.660190
9.770000	-432.551706
9.780000	-432.551706
9.790000	-432.551706
