Time(s)	IR_denoised_wiener
0.000000	1806.794089
0.010000	1852.952946
0.020000	1872.955105
0.030000	1894.665146
0.040000	1915.058211
0.050000	1941.870335
0.060000	1974.935773
0.070000	2020.889743
0.080000	2073.907355
0.090000	2123.691132
0.100000	2165.354074
0.110000	2197.628738
0.120000	2225.944780
0.130000	2248.337598
0.140000	2270.346952
0.150000	2288.478444
0.160000	2306.224374
0.170000	2329.414352
0.180000	2351.522405
0.190000	2361.458155
0.200000	2365.320619
0.210000	2361.934139
0.220000	2314.138001
0.230000	2180.515600
0.240000	1991.602652
0.250000	1816.317929
0.260000	1698.111918
0.270000	1639.788960
0.280000	1636.713518
0.290000	1669.665120
0.300000	1704.384743
0.310000	1725.703704
0.320000	1730.197268
0.330000	1743.597123
0.340000	1765.378131
0.350000	1778.885718
0.360000	1780.031995
0.370000	1765.614229
0.380000	1758.193094
0.390000	1750.696804
0.400000	1745.815424
0.410000	1752.563457
0.420000	1769.842295
0.430000	1793.853947
0.440000	1817.623950
0.450000	1836.580123
0.460000	1858.200021
0.470000	1875.025485
0.480000	1889.896798
0.490000	1906.564634
0.500000	1922.332674
0.510000	1942.882444
0.520000	1963.494465
0.530000	1988.311226
0.540000	2010.712133
0.550000	2028.837319
0.560000	2056.054642
0.570000	2084.052319
0.580000	2106.148837
0.590000	2132.726806
0.600000	2162.622671
0.610000	2165.397621
0.620000	2094.795166
0.630000	1974.334211
0.640000	1850.102457
0.650000	1754.638395
0.660000	1692.737009
0.670000	1665.334080
0.680000	1661.740363
0.690000	1663.407531
0.700000	1658.493430
0.710000	1652.257845
0.720000	1661.005312
0.730000	1677.437056
0.740000	1688.226263
0.750000	1683.683774
0.760000	1667.540135
0.770000	1650.671384
0.780000	1625.523179
0.790000	1603.094926
0.800000	1600.239110
0.810000	1619.527886
0.820000	1648.962145
0.830000	1675.670718
0.840000	1696.756639
0.850000	1717.211067
0.860000	1733.234620
0.870000	1743.129920
0.880000	1748.425948
0.890000	1747.409433
0.900000	1747.677480
0.910000	1754.047667
0.920000	1758.926326
0.930000	1751.373146
0.940000	1738.586452
0.950000	1729.730500
0.960000	1730.929706
0.970000	1733.737635
0.980000	1737.983806
0.990000	1745.770766
1.000000	1749.362261
1.010000	1709.400038
1.020000	1592.772470
1.030000	1402.763241
1.040000	1174.951220
1.050000	932.648917
1.060000	664.751502
1.070000	379.332251
1.080000	98.295198
1.090000	-196.917700
1.100000	-514.762064
1.110000	-830.139692
1.120000	-1120.056099
1.130000	-1341.242805
1.140000	-1512.081574
1.150000	-1645.457643
1.160000	-1763.110718
1.170000	-1863.955104
1.180000	-1931.444457
1.190000	-1969.190055
1.200000	-1979.792603
1.210000	-1985.832107
1.220000	-2010.162090
1.230000	-2053.435458
1.240000	-2098.506641
1.250000	-2129.066718
1.260000	-2151.941994
1.270000	-2169.715216
1.280000	-2184.406315
1.290000	-2188.035037
1.300000	-2186.609441
1.310000	-2184.719596
1.320000	-2180.164113
1.330000	-2176.124026
1.340000	-2163.057135
1.350000	-2149.285676
1.360000	-2128.954218
1.370000	-2106.185901
1.380000	-2087.570730
1.390000	-2072.781253
1.400000	-2039.174873
1.410000	-2007.212025
1.420000	-2020.895477
1.430000	-2107.316238
1.440000	-2232.503002
1.450000	-2343.758379
1.460000	-2436.633788
1.470000	-2496.899099
1.480000	-2522.190632
1.490000	-2525.142483
1.500000	-2526.833466
1.510000	-2544.439249
1.520000	-2557.772407
1.530000	-2557.164914
1.540000	-2550.159886
1.550000	-2548.972587
1.560000	-2564.614465
1.570000	-2584.787859
1.580000	-2605.497996
1.590000	-2624.013932
1.600000	-2634.782270
1.610000	-2634.990509
1.620000	-2625.487376
1.630000	-2610.387949
1.640000	-2592.602161
1.650000	-2574.531399
1.660000	-2557.128108
1.670000	-2536.076571
1.680000	-2506.737057
1.690000	-2472.060837
1.700000	-2433.761856
1.710000	-2399.481618
1.720000	-2370.189535
1.730000	-2344.651844
1.740000	-2315.356410
1.750000	-2281.598133
1.760000	-2249.968269
1.770000	-2215.271223
1.780000	-2167.326496
1.790000	-2117.430899
1.800000	-2071.097289
1.810000	-2020.316062
1.820000	-1990.723951
1.830000	-2019.330067
1.840000	-2118.381011
1.850000	-2235.933638
1.860000	-2325.820581
1.870000	-2383.752975
1.880000	-2408.369687
1.890000	-2403.689320
1.900000	-2382.378834
1.910000	-2356.394039
1.920000	-2328.467000
1.930000	-2292.178654
1.940000	-2247.010398
1.950000	-2207.109892
1.960000	-2184.655361
1.970000	-2178.779560
1.980000	-2175.706402
1.990000	-2164.231752
2.000000	-2148.241595
2.010000	-2130.791600
2.020000	-2109.204865
2.030000	-2082.801293
2.040000	-2055.960249
2.050000	-2034.259674
2.060000	-2016.141931
2.070000	-2000.499006
2.080000	-1976.410183
2.090000	-1947.559099
2.100000	-1909.437033
2.110000	-1875.784182
2.120000	-1836.179480
2.130000	-1791.155052
2.140000	-1752.402014
2.150000	-1712.924424
2.160000	-1673.763493
2.170000	-1627.454337
2.180000	-1583.957091
2.190000	-1539.731777
2.200000	-1482.912765
2.210000	-1403.466182
2.220000	-1333.770511
2.230000	-1311.668152
2.240000	-1374.412830
2.250000	-1490.467663
2.260000	-1606.114319
2.270000	-1695.463975
2.280000	-1748.647101
2.290000	-1758.588845
2.300000	-1728.663040
2.310000	-1680.217773
2.320000	-1634.132604
2.330000	-1592.918038
2.340000	-1538.333830
2.350000	-1486.835778
2.360000	-1453.319798
2.370000	-1443.851794
2.380000	-1451.058210
2.390000	-1461.975299
2.400000	-1464.254630
2.410000	-1450.569047
2.420000	-1419.925023
2.430000	-1386.661600
2.440000	-1351.013477
2.450000	-1313.545290
2.460000	-1277.900708
2.470000	-1242.872724
2.480000	-1206.242299
2.490000	-1159.306220
2.500000	-1110.421341
2.510000	-1064.186705
2.520000	-1021.046323
2.530000	-979.185041
2.540000	-933.452897
2.550000	-901.035495
2.560000	-873.245865
2.570000	-840.674763
2.580000	-800.848685
2.590000	-753.444073
2.600000	-714.620909
2.610000	-678.276355
2.620000	-634.172545
2.630000	-584.934717
2.640000	-573.291721
2.650000	-640.045148
2.660000	-751.329817
2.670000	-844.533921
2.680000	-899.608738
2.690000	-923.554195
2.700000	-928.024269
2.710000	-912.999512
2.720000	-894.273610
2.730000	-876.537981
2.740000	-854.953679
2.750000	-824.532867
2.760000	-794.797010
2.770000	-784.676918
2.780000	-794.378806
2.790000	-812.579097
2.800000	-820.730453
2.810000	-821.662906
2.820000	-814.528132
2.830000	-811.906281
2.840000	-814.081265
2.850000	-815.923884
2.860000	-813.760690
2.870000	-806.738055
2.880000	-789.215647
2.890000	-757.011426
2.900000	-716.487940
2.910000	-669.393672
2.920000	-618.551233
2.930000	-569.237208
2.940000	-528.072596
2.950000	-485.490482
2.960000	-438.733348
2.970000	-397.565319
2.980000	-359.146466
2.990000	-324.103137
3.000000	-296.020982
3.010000	-264.722897
3.020000	-233.385053
3.030000	-207.134030
3.040000	-184.516870
3.050000	-160.988954
3.060000	-166.863172
3.070000	-244.662624
3.080000	-368.807430
3.090000	-475.683296
3.100000	-536.966542
3.110000	-572.286724
3.120000	-585.867511
3.130000	-582.341898
3.140000	-571.232310
3.150000	-561.178159
3.160000	-558.373679
3.170000	-550.078804
3.180000	-530.984949
3.190000	-518.156818
3.200000	-522.027015
3.210000	-544.660619
3.220000	-560.441574
3.230000	-560.993373
3.240000	-555.351975
3.250000	-545.420964
3.260000	-534.380047
3.270000	-514.265184
3.280000	-493.232696
3.290000	-458.164336
3.300000	-421.936498
3.310000	-380.463046
3.320000	-346.465665
3.330000	-316.830514
3.340000	-279.081083
3.350000	-247.717087
3.360000	-216.083121
3.370000	-185.068816
3.380000	-147.507172
3.390000	-116.586968
3.400000	-98.020908
3.410000	-78.496122
3.420000	-47.652382
3.430000	-13.565242
3.440000	33.322206
3.450000	91.894255
3.460000	136.119925
3.470000	164.980979
3.480000	182.156034
3.490000	180.931613
3.500000	108.959553
3.510000	-35.753072
3.520000	-191.167726
3.530000	-300.224470
3.540000	-353.197756
3.550000	-374.896502
3.560000	-381.977550
3.570000	-380.979267
3.580000	-377.192140
3.590000	-378.507094
3.600000	-378.471617
3.610000	-363.452506
3.620000	-349.268985
3.630000	-357.517138
3.640000	-381.090558
3.650000	-412.015444
3.660000	-432.988912
3.670000	-438.648627
3.680000	-427.332520
3.690000	-410.419059
3.700000	-394.764813
3.710000	-369.575116
3.720000	-336.999761
3.730000	-309.192082
3.740000	-276.273961
3.750000	-234.257981
3.760000	-200.706426
3.770000	-183.395736
3.780000	-167.842808
3.790000	-137.291955
3.800000	-114.853040
3.810000	-104.566474
3.820000	-85.558502
3.830000	-43.622611
3.840000	6.560407
3.850000	33.846767
3.860000	61.399558
3.870000	103.864186
3.880000	158.094966
3.890000	205.076826
3.900000	242.408497
3.910000	260.509255
3.920000	218.208455
3.930000	111.283370
3.940000	-24.307342
3.950000	-122.285009
3.960000	-173.405212
3.970000	-188.667403
3.980000	-186.949457
3.990000	-187.140885
4.000000	-179.505789
4.010000	-167.407373
4.020000	-139.779167
4.030000	-107.156184
4.040000	-88.832578
4.050000	-89.955096
4.060000	-112.298665
4.070000	-127.091692
4.080000	-132.927808
4.090000	-129.652600
4.100000	-124.664881
4.110000	-114.938369
4.120000	-94.814528
4.130000	-67.668395
4.140000	-38.053164
4.150000	-12.154967
4.160000	11.978852
4.170000	35.605209
4.180000	68.616941
4.190000	107.578157
4.200000	150.843020
4.210000	185.436755
4.220000	213.360688
4.230000	237.882980
4.240000	262.129137
4.250000	285.236446
4.260000	306.817439
4.270000	334.196660
4.280000	366.067953
4.290000	401.410590
4.300000	435.227491
4.310000	458.868108
4.320000	480.019199
4.330000	507.249018
4.340000	504.944198
4.350000	421.507667
4.360000	263.952142
4.370000	98.183700
4.380000	-19.811203
4.390000	-100.065315
4.400000	-146.300615
4.410000	-167.070676
4.420000	-169.528934
4.430000	-162.155445
4.440000	-155.505058
4.450000	-144.940266
4.460000	-134.914268
4.470000	-133.476088
4.480000	-153.410616
4.490000	-196.054266
4.500000	-242.926004
4.510000	-281.054047
4.520000	-308.210372
4.530000	-320.454930
4.540000	-324.262146
4.550000	-320.579096
4.560000	-316.067741
4.570000	-304.405382
4.580000	-286.965246
4.590000	-264.968344
4.600000	-247.287179
4.610000	-232.907213
4.620000	-219.675364
4.630000	-201.236902
4.640000	-179.488218
4.650000	-158.641268
4.660000	-139.025034
4.670000	-121.782139
4.680000	-104.285407
4.690000	-92.012155
4.700000	-81.253742
4.710000	-75.661883
4.720000	-62.242159
4.730000	-41.079642
4.740000	-20.986290
4.750000	-0.533991
4.760000	31.231392
4.770000	50.518909
4.780000	5.307914
4.790000	-114.375970
4.800000	-253.165664
4.810000	-362.351670
4.820000	-443.506183
4.830000	-503.069212
4.840000	-542.227044
4.850000	-563.518203
4.860000	-579.034839
4.870000	-590.666155
4.880000	-594.219199
4.890000	-591.556960
4.900000	-592.150287
4.910000	-608.849154
4.920000	-639.431693
4.930000	-670.167721
4.940000	-693.788424
4.950000	-709.227162
4.960000	-718.543838
4.970000	-713.314154
4.980000	-699.728653
4.990000	-681.449706
5.000000	-656.285799
5.010000	-629.995070
5.020000	-601.879420
5.030000	-577.945949
5.040000	-546.811933
5.050000	-505.639837
5.060000	-460.822218
5.070000	-416.713426
5.080000	-373.539337
5.090000	-332.507424
5.100000	-296.311119
5.110000	-266.347977
5.120000	-241.124608
5.130000	-215.561191
5.140000	-186.659184
5.150000	-142.464705
5.160000	-95.642467
5.170000	-57.077278
5.180000	-17.951774
5.190000	29.928780
5.200000	44.555182
5.210000	-25.469651
5.220000	-163.128182
5.230000	-301.441942
5.240000	-394.580233
5.250000	-449.268707
5.260000	-467.729558
5.270000	-459.491365
5.280000	-431.580684
5.290000	-407.801623
5.300000	-398.101444
5.310000	-387.751304
5.320000	-367.343521
5.330000	-350.470358
5.340000	-356.640883
5.350000	-386.509490
5.360000	-422.258868
5.370000	-449.261565
5.380000	-463.609967
5.390000	-471.410970
5.400000	-478.997660
5.410000	-480.562483
5.420000	-477.105651
5.430000	-472.088497
5.440000	-472.925044
5.450000	-464.251966
5.460000	-453.172289
5.470000	-441.098749
5.480000	-443.824100
5.490000	-457.255442
5.500000	-481.852398
5.510000	-504.738941
5.520000	-511.238632
5.530000	-502.962838
5.540000	-477.642647
5.550000	-446.250982
5.560000	-403.362269
5.570000	-357.938723
5.580000	-300.056196
5.590000	-225.668214
5.600000	-160.857909
5.610000	-159.832740
5.620000	-241.252534
5.630000	-350.820187
5.640000	-434.002565
5.650000	-470.590714
5.660000	-476.540149
5.670000	-451.336978
5.680000	-410.475416
5.690000	-368.099323
5.700000	-340.769851
5.710000	-316.134186
5.720000	-277.737687
5.730000	-236.260978
5.740000	-204.394506
5.750000	-197.076801
5.760000	-190.293254
5.770000	-178.291091
5.780000	-149.189538
5.790000	-110.906851
5.800000	-63.410463
5.810000	-14.891063
5.820000	35.381193
5.830000	79.422819
5.840000	116.181190
5.850000	148.069474
5.860000	178.975771
5.870000	217.720820
5.880000	260.393805
5.890000	315.732605
5.900000	374.087644
5.910000	436.099566
5.920000	492.749136
5.930000	546.492834
5.940000	594.725447
5.950000	633.210941
5.960000	669.397093
5.970000	708.921243
5.980000	755.060008
5.990000	794.584546
6.000000	844.471463
6.010000	899.854005
6.020000	906.748066
6.030000	827.836522
6.040000	692.876731
6.050000	578.950743
6.060000	513.872347
6.070000	483.285285
6.080000	481.561952
6.090000	499.948458
6.100000	522.235497
6.110000	537.631457
6.120000	548.617635
6.130000	570.355275
6.140000	607.310242
6.150000	639.351899
6.160000	652.025981
6.170000	644.059440
6.180000	635.141178
6.190000	634.413735
6.200000	647.255587
6.210000	678.443084
6.220000	723.354714
6.230000	767.456222
6.240000	803.485308
6.250000	832.838444
6.260000	855.624806
6.270000	879.587874
6.280000	903.085225
6.290000	929.364556
6.300000	953.871820
6.310000	982.852281
6.320000	1012.980616
6.330000	1040.019755
6.340000	1064.117468
6.350000	1087.542821
6.360000	1115.947121
6.370000	1148.064139
6.380000	1188.811410
6.390000	1233.911581
6.400000	1273.010774
6.410000	1301.794419
6.420000	1336.953679
6.430000	1361.604584
6.440000	1330.171009
6.450000	1215.485554
6.460000	1066.952565
6.470000	953.106645
6.480000	886.601875
6.490000	853.008233
6.500000	840.613846
6.510000	844.283381
6.520000	854.302370
6.530000	866.596779
6.540000	883.364499
6.550000	906.599613
6.560000	929.091620
6.570000	933.933023
6.580000	916.543408
6.590000	886.997757
6.600000	870.060201
6.610000	864.348920
6.620000	869.270978
6.630000	880.715812
6.640000	904.868990
6.650000	931.062263
6.660000	963.199764
6.670000	993.402638
6.680000	1023.249678
6.690000	1084.519327
6.700000	1155.847198
6.710000	1236.051874
6.720000	1274.001466
6.730000	1307.188621
6.740000	1352.794236
6.750000	1375.542409
6.760000	1323.903636
6.770000	1187.370284
6.780000	1031.249488
6.790000	913.539769
6.800000	849.840694
6.810000	837.688228
6.820000	867.440882
6.830000	909.143027
6.840000	940.424137
6.850000	949.990575
6.860000	953.176273
6.870000	956.844018
6.880000	953.919366
6.890000	935.053856
6.900000	902.724309
6.910000	865.643584
6.920000	836.569845
6.930000	815.227040
6.940000	809.467273
6.950000	806.449934
6.960000	806.096055
6.970000	803.355502
6.980000	802.446643
6.990000	810.966715
7.000000	832.482536
7.010000	874.618787
7.020000	919.143793
7.030000	955.321155
7.040000	981.860695
7.050000	1005.408337
7.060000	1035.281262
7.070000	1063.811837
7.080000	1089.749052
7.090000	1111.243250
7.100000	1138.947360
7.110000	1161.978305
7.120000	1172.516812
7.130000	1185.806030
7.140000	1212.101820
7.150000	1232.917315
7.160000	1182.586326
7.170000	1065.917814
7.180000	921.191640
7.190000	800.986351
7.200000	717.715284
7.210000	669.711405
7.220000	657.941220
7.230000	666.418154
7.240000	680.198140
7.250000	682.815368
7.260000	691.241396
7.270000	709.872389
7.280000	726.265927
7.290000	723.277191
7.300000	701.366010
7.310000	672.072792
7.320000	641.143704
7.330000	610.217124
7.340000	592.980993
7.350000	586.341679
7.360000	586.509159
7.370000	587.151850
7.380000	592.090946
7.390000	613.677651
7.400000	639.296154
7.410000	663.916073
7.420000	678.515309
7.430000	696.908580
7.440000	718.719962
7.450000	737.909780
7.460000	761.651595
7.470000	788.243725
7.480000	816.274241
7.490000	842.596214
7.500000	858.571533
7.510000	858.646650
7.520000	849.926143
7.530000	848.744726
7.540000	821.833198
7.550000	693.080214
7.560000	446.857099
7.570000	72.018842
7.580000	-342.988665
7.590000	-671.053717
7.600000	-879.293137
7.610000	-989.247753
7.620000	-1009.113333
7.630000	-975.579680
7.640000	-930.929696
7.650000	-879.789251
7.660000	-832.075259
7.670000	-797.981172
7.680000	-793.217816
7.690000	-807.082631
7.700000	-828.675487
7.710000	-849.506602
7.720000	-869.472314
7.730000	-885.906548
7.740000	-885.890881
7.750000	-871.999159
7.760000	-842.614926
7.770000	-810.782560
7.780000	-781.300378
7.790000	-748.521519
7.800000	-718.669534
7.810000	-693.566340
7.820000	-684.048243
7.830000	-687.225093
7.840000	-691.387866
7.850000	-693.225547
7.860000	-687.039727
7.870000	-675.902372
7.880000	-655.323252
7.890000	-623.238444
7.900000	-590.962915
7.910000	-566.886011
7.920000	-536.191843
7.930000	-515.606676
7.940000	-553.160008
7.950000	-666.898374
7.960000	-815.284692
7.970000	-919.407710
7.980000	-977.274374
7.990000	-992.920783
8.000000	-982.284023
8.010000	-954.068031
8.020000	-922.964249
8.030000	-900.861802
8.040000	-878.574220
8.050000	-848.648034
8.060000	-815.538002
8.070000	-794.451633
8.080000	-792.133093
8.090000	-803.878394
8.100000	-816.693402
8.110000	-824.980164
8.120000	-821.570795
8.130000	-808.762693
8.140000	-787.766659
8.150000	-762.206659
8.160000	-727.595069
8.170000	-694.680643
8.180000	-658.702391
8.190000	-619.154492
8.200000	-572.790360
8.210000	-529.318760
8.220000	-494.188121
8.230000	-460.102838
8.240000	-420.241980
8.250000	-375.228804
8.260000	-331.299340
8.270000	-289.328102
8.280000	-247.671147
8.290000	-208.759928
8.300000	-180.044708
8.310000	-150.127922
8.320000	-114.424881
8.330000	-107.925810
8.340000	-171.809880
8.350000	-298.577789
8.360000	-426.032399
8.370000	-513.610230
8.380000	-557.008847
8.390000	-562.994029
8.400000	-544.322661
8.410000	-525.397341
8.420000	-521.933421
8.430000	-530.736129
8.440000	-527.807731
8.450000	-503.769025
8.460000	-473.068040
8.470000	-458.478607
8.480000	-455.574053
8.490000	-458.838867
8.500000	-459.391074
8.510000	-462.224076
8.520000	-457.821664
8.530000	-440.941020
8.540000	-416.934596
8.550000	-379.278493
8.560000	-336.408333
8.570000	-287.911281
8.580000	-249.913679
8.590000	-217.138028
8.600000	-193.764308
8.610000	-167.304863
8.620000	-136.966149
8.630000	-103.461487
8.640000	-67.486814
8.650000	-33.279933
8.660000	1.358218
8.670000	38.582965
8.680000	80.885750
8.690000	137.479346
8.700000	185.674128
8.710000	234.812285
8.720000	290.133262
8.730000	327.747353
8.740000	295.196173
8.750000	182.815642
8.760000	49.797322
8.770000	-47.441130
8.780000	-97.375505
8.790000	-110.408698
8.800000	-94.191242
8.810000	-64.047710
8.820000	-22.288163
8.830000	17.632508
8.840000	60.347874
8.850000	107.320732
8.860000	143.956626
8.870000	162.711910
8.880000	158.589398
8.890000	152.524775
8.900000	157.551026
8.910000	169.307194
8.920000	187.541367
8.930000	202.748391
8.940000	224.602007
8.950000	254.517958
8.960000	290.671560
8.970000	320.275322
8.980000	343.127010
8.990000	367.072879
9.000000	398.596895
9.010000	429.849329
9.020000	456.093675
9.030000	483.340389
9.040000	516.606230
9.050000	543.468796
9.060000	566.846237
9.070000	590.952818
9.080000	635.815126
9.090000	684.019522
9.100000	726.492496
9.110000	775.831375
9.120000	821.458560
9.130000	844.974134
9.140000	790.340347
9.150000	682.023805
9.160000	565.966950
9.170000	478.399324
9.180000	427.870074
9.190000	410.092153
9.200000	426.140506
9.210000	459.756633
9.220000	495.098016
9.230000	521.454486
9.240000	553.812049
9.250000	579.428796
9.260000	594.904352
9.270000	584.053933
9.280000	559.093924
9.290000	530.025571
9.300000	510.646492
9.310000	489.948292
9.320000	468.249362
9.330000	432.185933
9.340000	401.963568
9.350000	378.389398
9.360000	363.366520
9.370000	345.909829
9.380000	338.519633
9.390000	410.939766
9.400000	531.412871
9.410000	675.007308
9.420000	725.407257
9.430000	681.744022
9.440000	570.829701
9.450000	450.584816
9.460000	359.550825
9.470000	292.991915
9.480000	258.323756
9.490000	242.695042
9.500000	225.761056
9.510000	179.060749
9.520000	123.685917
9.530000	78.103961
9.540000	57.285806
9.550000	40.065805
9.560000	17.604017
9.570000	-10.264139
9.580000	-29.354061
9.590000	-37.944096
9.600000	-33.626118
9.610000	-19.622131
9.620000	-4.562395
9.630000	8.398758
9.640000	16.519598
9.650000	24.457023
9.660000	31.938355
9.670000	45.216765
9.680000	59.008898
9.690000	72.338392
9.700000	83.427211
9.710000	102.509566
9.720000	114.793257
9.730000	123.078779
9.740000	127.501617
9.750000	141.032792
9.760000	165.863162
9.770000	191.635046
9.780000	222.614154
9.790000	244.535599
9.800000	271.792963
9.810000	297.727340
9.820000	284.234322
9.830000	198.616085
9.840000	64.178222
9.850000	-60.048421
9.860000	-141.936577
9.870000	-194.154201
9.880000	-216.668165
9.890000	-217.935072
9.900000	-211.732906
9.910000	-214.374874
9.920000	-225.737900
9.930000	-225.745362
9.940000	-208.768159
9.950000	-193.167416
9.960000	-197.451254
9.970000	-221.858479
9.980000	-241.050037
9.990000	-247.584727
10.000000	-247.672427
10.010000	-240.611521
10.020000	-233.636223
10.030000	-219.919385
10.040000	-200.274107
10.050000	-174.878685
10.060000	-148.912316
10.070000	-130.165155
10.080000	-115.507271
10.090000	-97.426400
10.100000	-76.444508
10.110000	-50.667964
10.120000	-22.045992
10.130000	1.754339
10.140000	21.722468
10.150000	36.516337
10.160000	55.533120
10.170000	79.935009
10.180000	110.689125
10.190000	142.014298
10.200000	163.177277
10.210000	195.193129
10.220000	225.919964
10.230000	204.945711
10.240000	96.715579
10.250000	-57.411746
10.260000	-184.055553
10.270000	-269.922345
10.280000	-327.218240
10.290000	-361.402675
10.300000	-368.008666
10.310000	-360.921820
10.320000	-349.107390
10.330000	-338.755223
10.340000	-315.137275
10.350000	-284.635283
10.360000	-268.530153
10.370000	-273.798185
10.380000	-292.203439
10.390000	-296.898883
10.400000	-293.287603
10.410000	-284.983687
10.420000	-281.042448
10.430000	-272.341016
10.440000	-261.151090
10.450000	-241.999619
10.460000	-225.626851
10.470000	-208.608616
10.480000	-187.759274
10.490000	-165.221627
10.500000	-141.543399
10.510000	-119.162615
10.520000	-87.614908
10.530000	-53.473256
10.540000	-15.989200
10.550000	16.534986
10.560000	47.679519
10.570000	71.527486
10.580000	86.370104
10.590000	107.911418
10.600000	135.693205
10.610000	167.634433
10.620000	208.712529
10.630000	241.974013
10.640000	224.671105
10.650000	126.357439
10.660000	-15.507125
10.670000	-136.842710
10.680000	-219.133897
10.690000	-270.105033
10.700000	-291.066532
10.710000	-292.382409
10.720000	-284.656717
10.730000	-275.976463
10.740000	-261.869367
10.750000	-242.239531
10.760000	-227.768642
10.770000	-227.154203
10.780000	-241.637855
10.790000	-264.370428
10.800000	-288.831770
10.810000	-312.922618
10.820000	-329.000974
10.830000	-329.465450
10.840000	-316.186742
10.850000	-290.998747
10.860000	-268.732119
10.870000	-245.471146
10.880000	-224.955791
10.890000	-196.561369
10.900000	-167.218297
10.910000	-140.633360
10.920000	-113.786287
10.930000	-89.712615
10.940000	-66.999359
10.950000	-49.129284
10.960000	-27.503216
10.970000	-2.895670
10.980000	25.673776
10.990000	59.347752
11.000000	101.867266
11.010000	140.555443
11.020000	185.131629
11.030000	235.411958
11.040000	254.303976
11.050000	199.597102
11.060000	78.287487
11.070000	-47.390029
11.080000	-138.450191
11.090000	-194.808009
11.100000	-213.169736
11.110000	-205.592172
11.120000	-189.227304
11.130000	-175.350893
11.140000	-157.560351
11.150000	-121.411565
11.160000	-71.937598
11.170000	-32.513318
11.180000	-17.948691
11.190000	-30.905743
11.200000	-45.538855
11.210000	-47.319952
11.220000	-42.510150
11.230000	-33.714817
11.240000	-30.491232
11.250000	-21.375971
11.260000	-6.160582
11.270000	16.308117
11.280000	43.502609
11.290000	78.015588
11.300000	114.820864
11.310000	145.389431
11.320000	172.178622
11.330000	201.449718
11.340000	237.874679
11.350000	270.810605
11.360000	300.610263
11.370000	329.853600
11.380000	360.353059
11.390000	392.568860
11.400000	418.415020
11.410000	443.999062
11.420000	486.516713
11.430000	524.666125
11.440000	503.869590
11.450000	402.432726
11.460000	269.426024
11.470000	163.568329
11.480000	94.189279
11.490000	51.326719
11.500000	39.668512
11.510000	54.401387
11.520000	83.804444
11.530000	104.787131
11.540000	124.365335
11.550000	152.857513
11.560000	182.552237
11.570000	196.912481
11.580000	188.773669
11.590000	176.713569
11.600000	164.630158
11.610000	159.197616
11.620000	163.819623
11.630000	180.352663
11.640000	204.333602
11.650000	231.851051
11.660000	258.187144
11.670000	283.705124
11.680000	307.378550
11.690000	331.911072
11.700000	353.894747
11.710000	382.493071
11.720000	418.395802
11.730000	456.400292
11.740000	480.876228
11.750000	498.376387
11.760000	516.701294
11.770000	547.370507
11.780000	580.140992
11.790000	600.025925
11.800000	619.664146
11.810000	648.012061
11.820000	657.761776
11.830000	593.260999
11.840000	463.711424
11.850000	324.978564
11.860000	228.990615
11.870000	176.562662
11.880000	156.242928
11.890000	160.163307
11.900000	175.153939
11.910000	196.460214
11.920000	221.744626
11.930000	252.106151
11.940000	289.343378
11.950000	312.696156
11.960000	319.999112
11.970000	312.635029
11.980000	300.684404
11.990000	290.569402
12.000000	279.349402
12.010000	279.885804
12.020000	293.654963
12.030000	315.856669
12.040000	337.286665
12.050000	348.498304
12.060000	360.646249
12.070000	385.479400
12.080000	419.969602
12.090000	458.457481
12.100000	491.286043
12.110000	521.808549
12.120000	550.598617
12.130000	577.828796
12.140000	607.592085
12.150000	642.849233
12.160000	678.232479
12.170000	706.868501
12.180000	733.574443
12.190000	764.895133
12.200000	772.489697
12.210000	710.208439
12.220000	589.231141
12.230000	460.967444
12.240000	371.626641
12.250000	315.251306
12.260000	295.382830
12.270000	304.505857
12.280000	330.794695
12.290000	357.079702
12.300000	374.897563
12.310000	400.722247
12.320000	429.608258
12.330000	453.689876
12.340000	455.960061
12.350000	435.701569
12.360000	410.026595
12.370000	389.026175
12.380000	379.081571
12.390000	378.326523
12.400000	389.146380
12.410000	406.604677
12.420000	422.199068
12.430000	436.572042
12.440000	456.265137
12.450000	487.535553
12.460000	520.282952
12.470000	544.161474
12.480000	559.994268
12.490000	574.131804
12.500000	594.037604
12.510000	623.420515
12.520000	655.045969
12.530000	691.063141
12.540000	721.682740
12.550000	749.400419
12.560000	778.652127
12.570000	805.374681
12.580000	790.518784
12.590000	708.044399
12.600000	586.528201
12.610000	477.436089
12.620000	403.116432
12.630000	360.750456
12.640000	349.367884
12.650000	359.031345
12.660000	370.250586
12.670000	371.992619
12.680000	374.515255
12.690000	386.606345
12.700000	405.738330
12.710000	414.501672
12.720000	407.984531
12.730000	389.742043
12.740000	370.906317
12.750000	359.628652
12.760000	360.138068
12.770000	377.170368
12.780000	400.649162
12.790000	423.707232
12.800000	447.167348
12.810000	470.559484
12.820000	493.002978
12.830000	513.730250
12.840000	534.496701
12.850000	555.213403
12.860000	574.971915
12.870000	596.021923
12.880000	621.432351
12.890000	649.800745
12.900000	675.864375
12.910000	704.255203
12.920000	725.906833
12.930000	736.704246
12.940000	750.312035
12.950000	762.417410
12.960000	734.269059
12.970000	639.142927
12.980000	495.662859
12.990000	366.969171
13.000000	280.603576
13.010000	236.029213
13.020000	230.849660
13.030000	239.669452
13.040000	249.104990
13.050000	243.947150
13.060000	241.759023
13.070000	258.528765
13.080000	279.636779
13.090000	283.064060
13.100000	263.868321
13.110000	235.957556
13.120000	217.417306
13.130000	207.103746
13.140000	206.946447
13.150000	208.191846
13.160000	208.798143
13.170000	208.254475
13.180000	206.955518
13.190000	213.308500
13.200000	221.041496
13.210000	235.362506
13.220000	251.066853
13.230000	271.407246
13.240000	291.369870
13.250000	307.756863
13.260000	329.338502
13.270000	348.694274
13.280000	364.622665
13.290000	374.926918
13.300000	386.562780
13.310000	390.746659
13.320000	390.832734
13.330000	404.902860
13.340000	405.941004
13.350000	353.650935
13.360000	233.080066
13.370000	92.533434
13.380000	-21.492329
13.390000	-101.063647
13.400000	-144.790198
13.410000	-157.719751
13.420000	-152.818329
13.430000	-140.745206
13.440000	-131.220069
13.450000	-114.427031
13.460000	-91.362033
13.470000	-77.192142
13.480000	-81.199365
13.490000	-106.987021
13.500000	-133.347751
13.510000	-153.200397
13.520000	-160.545972
13.530000	-156.146368
13.540000	-153.827932
13.550000	-154.772630
13.560000	-158.487473
13.570000	-158.097371
13.580000	-150.540655
13.590000	-141.830697
13.600000	-130.958701
13.610000	-118.620011
13.620000	-96.069280
13.630000	-63.820374
13.640000	-28.248731
13.650000	-2.425720
13.660000	15.559221
13.670000	31.592286
13.680000	51.980276
13.690000	84.225037
13.700000	106.932941
13.710000	126.878974
13.720000	153.168674
13.730000	175.422239
13.740000	142.568333
13.750000	35.328022
13.760000	-103.252786
13.770000	-216.120170
13.780000	-288.248949
13.790000	-332.037115
13.800000	-353.621839
13.810000	-367.036825
13.820000	-368.674505
13.830000	-374.151383
13.840000	-375.057042
13.850000	-368.677930
13.860000	-361.194158
13.870000	-371.971319
13.880000	-403.014693
13.890000	-431.260757
13.900000	-443.260338
13.910000	-444.668503
13.920000	-440.236466
13.930000	-424.113890
13.940000	-404.317899
13.950000	-387.289285
13.960000	-373.116674
13.970000	-359.192513
13.980000	-341.981920
13.990000	-324.516573
14.000000	-309.248815
14.010000	-294.566482
14.020000	-284.602273
14.030000	-271.320859
14.040000	-259.729875
14.050000	-244.786385
14.060000	-228.950605
14.070000	-209.310102
14.080000	-178.900247
14.090000	-146.283602
14.100000	-114.575823
14.110000	-75.299914
14.120000	-46.064788
14.130000	-67.789077
14.140000	-163.580753
14.150000	-296.857304
14.160000	-409.781769
14.170000	-488.456728
14.180000	-530.759390
14.190000	-545.831772
14.200000	-548.497710
14.210000	-552.282084
14.220000	-566.971671
14.230000	-577.410198
14.240000	-576.213689
14.250000	-570.659018
14.260000	-574.220224
14.270000	-591.631720
14.280000	-611.263417
14.290000	-623.358217
14.300000	-631.759661
14.310000	-634.150529
14.320000	-635.358635
14.330000	-630.332512
14.340000	-621.060778
14.350000	-608.261864
14.360000	-593.182250
14.370000	-576.608181
14.380000	-557.049378
14.390000	-532.037396
14.400000	-503.013168
14.410000	-484.254796
14.420000	-468.003023
14.430000	-450.570301
14.440000	-421.060327
14.450000	-393.374819
14.460000	-368.837642
14.470000	-348.266156
14.480000	-326.687579
14.490000	-312.616709
14.500000	-303.930782
14.510000	-283.348420
14.520000	-264.682486
14.530000	-287.908725
14.540000	-384.835464
14.550000	-515.027950
14.560000	-622.035426
14.570000	-679.654857
14.580000	-696.756619
14.590000	-690.730351
14.600000	-681.242873
14.610000	-675.865045
14.620000	-676.472852
14.630000	-669.383310
14.640000	-647.480777
14.650000	-621.042855
14.660000	-608.939402
14.670000	-618.096953
14.680000	-634.434605
14.690000	-648.591875
14.700000	-658.377602
14.710000	-663.520414
14.720000	-660.740919
14.730000	-661.250902
14.740000	-673.860015
14.750000	-704.068234
14.760000	-736.685105
14.770000	-764.002488
14.780000	-770.919807
14.790000	-758.076764
14.800000	-728.591643
14.810000	-696.277604
14.820000	-669.011223
14.830000	-635.523432
14.840000	-592.884799
14.850000	-539.203379
14.860000	-488.232793
14.870000	-445.626030
14.880000	-404.310957
14.890000	-362.495135
14.900000	-311.468907
14.910000	-243.465775
14.920000	-184.485368
14.930000	-184.936050
14.940000	-261.174385
14.950000	-366.332242
14.960000	-439.257224
14.970000	-465.957837
14.980000	-462.522700
14.990000	-440.671599
15.000000	-416.233104
15.010000	-391.782742
15.020000	-383.414557
15.030000	-401.311706
15.040000	-457.033979
15.050000	-536.203749
15.060000	-626.426626
15.070000	-712.522709
15.080000	-776.245540
15.090000	-823.008126
15.100000	-878.889468
15.110000	-985.638274
15.120000	-1143.855510
15.130000	-1292.534439
15.140000	-1364.239211
15.150000	-1344.678637
15.160000	-1276.213990
15.170000	-1199.253015
15.180000	-1128.888176
15.190000	-1081.600194
15.200000	-1064.973627
15.210000	-1060.310925
15.220000	-1044.482674
15.230000	-1012.841542
15.240000	-975.133727
15.250000	-943.815421
15.260000	-918.518714
15.270000	-888.530037
15.280000	-836.989298
15.290000	-757.375517
15.300000	-652.588202
15.310000	-520.309087
15.320000	-408.761649
15.330000	-388.406093
15.340000	-482.574648
15.350000	-677.383837
15.360000	-934.524115
15.370000	-1223.909092
15.380000	-1382.512053
15.390000	-1431.193537
15.400000	-1349.799460
15.410000	-1172.455122
15.420000	-692.542238
15.430000	-388.252736
15.440000	-232.298568
15.450000	-167.486611
15.460000	-153.147670
15.470000	-181.453424
15.480000	-229.723941
15.490000	-311.286988
15.500000	-460.458938
15.510000	-664.954336
15.520000	-834.448979
15.530000	-930.740260
15.540000	-958.358874
15.550000	-965.941974
15.560000	-945.881332
15.570000	-900.604831
15.580000	-795.736142
15.590000	-632.131080
15.600000	-426.461495
15.610000	-200.489241
15.620000	25.869471
15.630000	237.881179
15.640000	396.845904
15.650000	487.507237
15.660000	516.831642
15.670000	522.117923
15.680000	541.053256
15.690000	586.896477
15.700000	651.451053
15.710000	704.850773
15.720000	693.352006
15.730000	587.440494
15.740000	415.982317
15.750000	256.399386
15.760000	162.450238
15.770000	132.107788
15.780000	144.435743
15.790000	169.026484
15.800000	186.688484
15.810000	178.181597
15.820000	155.597281
15.830000	138.928532
15.840000	123.675712
15.850000	96.220777
15.860000	54.355950
15.870000	9.788490
15.880000	-29.068829
15.890000	-65.104025
15.900000	-96.576638
15.910000	-107.386060
15.920000	-108.253630
15.930000	-98.732821
15.940000	-88.386733
15.950000	-83.499078
15.960000	-77.245552
15.970000	-66.704322
15.980000	-39.506575
15.990000	-12.751869
16.000000	9.506988
16.010000	21.100307
16.020000	32.806088
16.030000	44.160716
16.040000	55.346188
16.050000	73.813768
16.060000	102.446538
16.070000	122.981655
16.080000	97.398987
16.090000	20.479448
16.100000	-74.636609
16.110000	-143.752345
16.120000	-181.873048
16.130000	-187.419910
16.140000	-182.601091
16.150000	-173.803507
16.160000	-174.775389
16.170000	-175.882131
16.180000	-161.692894
16.190000	-138.111691
16.200000	-118.055210
16.210000	-113.096318
16.220000	-120.804363
16.230000	-129.814916
16.240000	-137.001188
16.250000	-134.946651
16.260000	-120.969143
16.270000	-94.843130
16.280000	-62.043954
16.290000	-31.506847
16.300000	-7.864554
16.310000	8.750991
16.320000	24.240742
16.330000	38.568646
16.340000	51.922908
16.350000	73.320269
16.360000	108.840192
16.370000	145.930701
16.380000	187.710629
16.390000	236.449042
16.400000	279.450335
16.410000	260.424814
16.420000	168.224652
16.430000	38.105452
16.440000	-74.367710
16.450000	-139.039370
16.460000	-160.811909
16.470000	-154.968129
16.480000	-148.376567
16.490000	-149.936045
16.500000	-152.318376
16.510000	-147.657413
16.520000	-141.050593
16.530000	-140.474695
16.540000	-160.555617
16.550000	-195.323158
16.560000	-229.121657
16.570000	-244.922002
16.580000	-236.805567
16.590000	-212.980197
16.600000	-185.587364
16.610000	-151.750759
16.620000	-118.483131
16.630000	-85.922441
16.640000	-54.800391
16.650000	-22.170408
16.660000	8.445003
16.670000	36.503708
16.680000	69.626856
16.690000	98.378489
16.700000	118.403654
16.710000	143.551065
16.720000	172.720665
16.730000	159.848221
16.740000	75.665359
16.750000	-49.108170
16.760000	-158.070917
16.770000	-232.252071
16.780000	-267.265148
16.790000	-271.181280
16.800000	-254.216223
16.810000	-238.226607
16.820000	-232.884501
16.830000	-228.636320
16.840000	-219.646703
16.850000	-210.491527
16.860000	-216.521916
16.870000	-234.378609
16.880000	-248.112331
16.890000	-243.687242
16.900000	-222.828842
16.910000	-189.083526
16.920000	-145.626828
16.930000	-99.572964
16.940000	-50.486252
16.950000	-2.490271
16.960000	39.570491
16.970000	72.849551
16.980000	99.225347
16.990000	120.775218
17.000000	139.465358
17.010000	155.615316
17.020000	180.989249
17.030000	214.338945
17.040000	242.733816
17.050000	280.390055
17.060000	307.304137
17.070000	279.628905
17.080000	173.181849
17.090000	31.306752
17.100000	-75.946743
17.110000	-135.250697
17.120000	-157.554705
17.130000	-156.895835
17.140000	-151.921056
17.150000	-153.933045
17.160000	-164.338988
17.170000	-170.343189
17.180000	-160.505768
17.190000	-153.246982
17.200000	-158.059510
17.210000	-182.222689
17.220000	-205.950082
17.230000	-217.631866
17.240000	-217.951941
17.250000	-211.462361
17.260000	-199.020852
17.270000	-185.714842
17.280000	-175.496852
17.290000	-169.035010
17.300000	-163.038519
17.310000	-147.747116
17.320000	-129.701162
17.330000	-101.831211
17.340000	-72.482007
17.350000	-42.303198
17.360000	-19.358738
17.370000	-0.820620
17.380000	28.723918
17.390000	61.523330
17.400000	100.093274
17.410000	141.109915
17.420000	153.979910
17.430000	96.590544
17.440000	-38.111306
17.450000	-184.469770
17.460000	-281.622829
17.470000	-323.086407
17.480000	-331.621475
17.490000	-325.430483
17.500000	-309.991625
17.510000	-298.201211
17.520000	-289.397301
17.530000	-276.025592
17.540000	-254.887343
17.550000	-240.972148
17.560000	-248.112907
17.570000	-265.255529
17.580000	-279.404797
17.590000	-276.607745
17.600000	-256.806124
17.610000	-230.727333
17.620000	-213.958350
17.630000	-213.226610
17.640000	-225.487561
17.650000	-254.815731
17.660000	-284.696980
17.670000	-294.129077
17.680000	-269.663494
17.690000	-225.922332
17.700000	-172.685980
17.710000	-110.091494
17.720000	-44.795220
17.730000	17.673802
17.740000	80.384061
17.750000	143.696783
17.760000	190.447205
17.770000	230.726838
17.780000	261.072209
17.790000	252.954013
17.800000	168.604681
17.810000	30.613344
17.820000	-95.478287
17.830000	-178.220836
17.840000	-216.377239
17.850000	-220.821077
17.860000	-210.029665
17.870000	-198.141784
17.880000	-200.751598
17.890000	-198.097350
17.900000	-176.889728
17.910000	-149.187410
17.920000	-136.451677
17.930000	-153.323183
17.940000	-174.969441
17.950000	-189.224427
17.960000	-190.903510
17.970000	-183.212292
17.980000	-171.907944
17.990000	-160.256452
18.000000	-148.634023
18.010000	-132.015134
18.020000	-106.759708
18.030000	-72.511745
18.040000	-36.635279
18.050000	-2.392212
18.060000	24.754875
18.070000	52.034175
18.080000	73.380744
18.090000	99.779843
18.100000	121.221627
18.110000	133.480971
18.120000	155.064743
18.130000	186.405813
18.140000	202.444755
18.150000	143.509392
18.160000	29.316841
18.170000	-95.711598
18.180000	-189.208916
18.190000	-239.742867
18.200000	-252.505425
18.210000	-236.509500
18.220000	-213.227469
18.230000	-198.652173
18.240000	-182.936071
18.250000	-156.853859
18.260000	-133.095272
18.270000	-127.454249
18.280000	-150.630429
18.290000	-176.008533
18.300000	-185.578706
18.310000	-175.992336
18.320000	-157.286095
18.330000	-139.698807
18.340000	-124.691251
18.350000	-102.763481
18.360000	-78.188972
18.370000	-53.210405
18.380000	-27.400281
18.390000	0.958865
18.400000	28.988679
18.410000	56.080837
18.420000	81.992016
18.430000	113.836631
18.440000	154.597860
18.450000	191.496561
18.460000	224.519768
18.470000	263.464673
18.480000	296.664198
18.490000	275.279065
18.500000	177.163888
18.510000	42.546949
18.520000	-72.009151
18.530000	-134.971277
18.540000	-137.962925
18.550000	-101.953673
18.560000	-63.342416
18.570000	-40.603281
18.580000	-35.391925
18.590000	-27.575690
18.600000	-6.850843
18.610000	16.346090
18.620000	23.285514
18.630000	1.904465
18.640000	-11.159183
18.650000	-0.309535
18.660000	31.631184
18.670000	70.731836
18.680000	108.388965
18.690000	142.076246
18.700000	168.431029
18.710000	189.054433
18.720000	207.766229
18.730000	232.999229
18.740000	266.370206
18.750000	302.545995
18.760000	332.919810
18.770000	355.733078
18.780000	374.438792
18.790000	392.208003
18.800000	414.252212
18.810000	444.635493
18.820000	468.636632
18.830000	484.053507
18.840000	506.025027
18.850000	506.308922
18.860000	443.333565
18.870000	308.612158
18.880000	159.780861
18.890000	55.208078
18.900000	-2.300252
18.910000	-18.595391
18.920000	-16.135733
18.930000	-13.429912
18.940000	-15.977194
18.950000	-28.303280
18.960000	-30.125180
18.970000	-15.256507
18.980000	3.968347
18.990000	2.715173
19.000000	-22.252712
19.010000	-41.931645
19.020000	-48.572339
19.030000	-47.654799
19.040000	-47.940790
19.050000	-45.716641
19.060000	-40.357153
19.070000	-26.471298
19.080000	-8.506248
19.090000	9.402716
19.100000	28.654528
19.110000	49.568628
19.120000	74.114893
19.130000	96.341364
19.140000	112.877789
19.150000	129.434671
19.160000	148.928832
19.170000	174.156992
19.180000	201.592039
19.190000	230.516752
19.200000	262.224008
19.210000	283.466669
19.220000	299.202924
19.230000	317.054362
19.240000	300.357515
19.250000	210.935385
19.260000	56.602756
19.270000	-98.063184
19.280000	-203.562064
19.290000	-265.916061
19.300000	-294.771810
19.310000	-311.836859
19.320000	-331.663186
19.330000	-359.433027
19.340000	-393.570258
19.350000	-415.015250
19.360000	-424.565758
19.370000	-430.652137
19.380000	-439.254706
19.390000	-448.300223
19.400000	-451.966480
19.410000	-462.363819
19.420000	-473.661701
19.430000	-479.458365
19.440000	-468.709818
19.450000	-446.295415
19.460000	-421.134252
19.470000	-399.824431
19.480000	-384.912348
19.490000	-363.341829
19.500000	-337.430347
19.510000	-308.554093
19.520000	-285.666381
19.530000	-260.081572
19.540000	-234.630809
19.550000	-208.629254
19.560000	-184.633766
19.570000	-162.866580
19.580000	-142.997690
19.590000	-121.457252
19.600000	-89.709979
19.610000	-57.459782
19.620000	-32.779309
19.630000	-0.760471
19.640000	23.039986
19.650000	-11.516934
19.660000	-134.111744
19.670000	-299.427717
19.680000	-433.544973
19.690000	-519.521476
19.700000	-565.406413
19.710000	-590.338348
19.720000	-602.262845
19.730000	-612.857615
19.740000	-624.786407
19.750000	-635.721464
19.760000	-636.315379
19.770000	-632.317865
19.780000	-638.225855
19.790000	-661.251458
19.800000	-685.763842
19.810000	-697.211313
19.820000	-695.364172
19.830000	-685.208205
19.840000	-672.321877
19.850000	-647.185738
19.860000	-621.359279
19.870000	-585.794829
19.880000	-559.829147
19.890000	-530.335611
19.900000	-498.358468
19.910000	-444.507138
19.920000	-381.328716
19.930000	-307.326300
19.940000	-235.023342
19.950000	-163.126378
19.960000	-106.113145
19.970000	-57.553884
19.980000	-19.577630
19.990000	-75.889610
20.000000	-167.333557
20.010000	-252.958815
20.020000	-239.295033
20.030000	-202.175812
20.040000	-184.180946
20.050000	-198.661287
20.060000	-237.021656
20.070000	-278.795545
20.080000	-316.579281
20.090000	-358.653563
20.100000	-437.884758
20.110000	-552.763801
20.120000	-686.828774
20.130000	-798.484254
20.140000	-866.173374
20.150000	-879.246506
20.160000	-893.712522
20.170000	-990.755656
20.180000	-1165.457499
20.190000	-1278.933954
20.200000	-1311.957551
20.210000	-1270.885479
20.220000	-1175.936383
20.230000	-977.635840
20.240000	-690.990577
20.250000	-555.170788
20.260000	-477.951974
20.270000	-385.859420
20.280000	-215.676661
20.290000	-58.979214
20.300000	5.294470
20.310000	-47.621988
20.320000	-185.916981
20.330000	-340.499892
20.340000	-481.907667
20.350000	-627.509694
20.360000	-798.244296
20.370000	-997.807815
20.380000	-1184.792249
20.390000	-1336.826288
20.400000	-1414.628009
20.410000	-1390.878049
20.420000	-1264.201631
20.430000	-1068.792340
20.440000	-837.080389
20.450000	-597.434337
20.460000	-411.767575
20.470000	-317.899882
20.480000	-316.299419
20.490000	-358.515853
20.500000	-401.508520
20.510000	-398.449946
20.520000	-337.140707
20.530000	-230.781233
20.540000	-134.214149
20.550000	-67.342886
20.560000	-26.548763
20.570000	5.808749
20.580000	35.760066
20.590000	58.272550
20.600000	77.771310
20.610000	104.094879
20.620000	149.800903
20.630000	193.836329
20.640000	223.866429
20.650000	242.631722
20.660000	267.318052
20.670000	296.389331
20.680000	326.111156
20.690000	344.806525
20.700000	364.985969
20.710000	391.551974
20.720000	379.740728
20.730000	294.674805
20.740000	143.962943
20.750000	-5.354499
20.760000	-106.852969
20.770000	-163.166184
20.780000	-181.328075
20.790000	-175.644420
20.800000	-164.460321
20.810000	-154.402649
20.820000	-147.224157
20.830000	-132.104121
20.840000	-112.003085
20.850000	-105.157586
20.860000	-113.045483
20.870000	-132.507274
20.880000	-149.366041
20.890000	-157.854607
20.900000	-154.667366
20.910000	-139.517028
20.920000	-122.971427
20.930000	-107.797067
20.940000	-94.574652
20.950000	-81.040582
20.960000	-64.814967
20.970000	-46.261829
20.980000	-24.354444
20.990000	-5.806772
21.000000	12.497859
21.010000	36.354302
21.020000	70.045217
21.030000	102.506314
21.040000	132.987876
21.050000	164.369144
21.060000	170.552344
21.070000	113.567977
21.080000	-9.751781
21.090000	-145.038798
21.100000	-241.696022
21.110000	-289.719613
21.120000	-300.995722
21.130000	-291.372768
21.140000	-277.257867
21.150000	-262.618786
21.160000	-239.781179
21.170000	-203.163142
21.180000	-167.987003
21.190000	-155.682696
21.200000	-167.093875
21.210000	-183.438713
21.220000	-192.842860
21.230000	-185.155377
21.240000	-166.257899
21.250000	-137.146746
21.260000	-107.651425
21.270000	-77.731335
21.280000	-47.331341
21.290000	-20.279119
21.300000	6.723016
21.310000	33.211369
21.320000	62.837847
21.330000	93.402187
21.340000	126.346319
21.350000	151.946542
21.360000	176.951468
21.370000	215.563369
21.380000	262.555820
21.390000	255.409297
21.400000	167.646186
21.410000	37.487173
21.420000	-68.464017
21.430000	-116.135603
21.440000	-121.990427
21.450000	-97.354456
21.460000	-65.158337
21.470000	-41.496935
21.480000	-25.554977
21.490000	4.811218
21.500000	48.042561
21.510000	84.128532
21.520000	92.699511
21.530000	81.584254
21.540000	72.121754
21.550000	71.730488
21.560000	84.597760
21.570000	108.589220
21.580000	145.481593
21.590000	187.820240
21.600000	221.746035
21.610000	243.811946
21.620000	263.779398
21.630000	292.874203
21.640000	318.815277
21.650000	351.732309
21.660000	389.552485
21.670000	419.964350
21.680000	448.741967
21.690000	480.930866
21.700000	498.605370
21.710000	448.872224
21.720000	336.699109
21.730000	212.677503
21.740000	124.858344
21.750000	82.449096
21.760000	77.376974
21.770000	94.943202
21.780000	121.305859
21.790000	146.857363
21.800000	178.355305
21.810000	217.166182
21.820000	251.445116
21.830000	273.898004
21.840000	273.602650
21.850000	267.785340
21.860000	261.806310
21.870000	292.170781
21.880000	382.721597
21.890000	524.546505
21.900000	678.634972
21.910000	802.326798
21.920000	879.703555
21.930000	915.913875
21.940000	932.566762
21.950000	951.250798
21.960000	972.455735
21.970000	987.647125
21.980000	1000.797051
21.990000	1016.797770
22.000000	1033.203793
22.010000	1060.403025
22.020000	1087.638935
22.030000	1068.998634
22.040000	970.861851
22.050000	826.532491
22.060000	706.274466
22.070000	642.049748
22.080000	635.693343
22.090000	737.456059
22.100000	957.716332
22.110000	1458.957397
22.120000	1718.005031
22.130000	1827.426534
22.140000	1818.815359
22.150000	1825.603132
22.160000	1886.402003
22.170000	1967.005463
22.180000	2045.448333
22.190000	2133.259504
22.200000	2242.589725
22.210000	2356.861622
22.220000	2446.455891
22.230000	2510.637264
22.240000	2557.774837
22.250000	2599.850840
22.260000	2651.529381
22.270000	2711.114584
22.280000	2767.687214
22.290000	2814.150956
22.300000	2843.273622
22.310000	2859.648893
22.320000	2859.934105
22.330000	2855.951121
22.340000	2826.600223
22.350000	2772.408873
22.360000	2707.399579
22.370000	2626.243012
22.380000	2497.891181
22.390000	2309.957465
22.400000	2120.001482
22.410000	1981.630755
22.420000	1900.072072
22.430000	1855.397183
22.440000	1834.590958
22.450000	1828.269475
22.460000	1834.559598
22.470000	1876.305334
22.480000	1967.934013
22.490000	2105.385844
22.500000	2246.967011
22.510000	2367.941387
22.520000	2464.151484
22.530000	2534.600379
22.540000	2586.452944
22.550000	2609.305474
22.560000	2605.884592
22.570000	2594.146276
22.580000	2590.739601
22.590000	2597.038462
22.600000	2602.989602
22.610000	2607.715249
22.620000	2607.323731
22.630000	2607.510431
22.640000	2605.726921
22.650000	2611.095661
22.660000	2607.485017
22.670000	2598.158021
22.680000	2593.686624
22.690000	2588.265061
22.700000	2600.711735
22.710000	2617.037390
22.720000	2607.448347
22.730000	2518.164910
22.740000	2367.804352
22.750000	2218.498625
22.760000	2113.193785
22.770000	2055.142207
22.780000	2024.605046
22.790000	2006.549762
22.800000	1988.774520
22.810000	1968.065152
22.820000	1957.404330
22.830000	1951.278279
22.840000	1930.076636
22.850000	1868.556478
22.860000	1755.868335
22.870000	1609.324525
22.880000	1445.737120
22.890000	1277.157240
22.900000	1116.685806
22.910000	982.413274
22.920000	894.716311
22.930000	847.671863
22.940000	817.772550
22.950000	777.659810
22.960000	731.320717
22.970000	661.327333
22.980000	525.538624
22.990000	311.572787
23.000000	20.941813
23.010000	-316.298307
23.020000	-672.108791
23.030000	-1058.897901
23.040000	-1372.850741
23.050000	-1546.939868
23.060000	-1690.079220
23.070000	-1852.519744
23.080000	-2031.156672
23.090000	-2161.201153
23.100000	-2231.319299
23.110000	-2269.262328
23.120000	-2312.782523
23.130000	-2364.166589
23.140000	-2399.782404
23.150000	-2368.269874
23.160000	-2244.463402
23.170000	-2050.676260
23.180000	-1863.562268
23.190000	-1736.855288
23.200000	-1656.076948
23.210000	-1582.810356
23.220000	-1482.882769
23.230000	-1371.514470
23.240000	-1257.952792
23.250000	-1196.623827
23.260000	-1174.452445
23.270000	-1161.636132
23.280000	-1118.875431
23.290000	-1047.042037
23.300000	-988.362442
23.310000	-935.930605
23.320000	-886.811799
23.330000	-760.223956
23.340000	-534.215913
23.350000	37.238588
23.360000	586.697024
23.370000	569.725804
23.380000	350.060081
23.390000	-28.381307
23.400000	-407.224901
23.410000	-646.049097
23.420000	-771.544947
23.430000	-804.371009
23.440000	-800.176465
23.450000	-768.858222
23.460000	-723.441335
23.470000	-688.669506
23.480000	-672.953684
23.490000	-673.743470
23.500000	-668.036423
23.510000	-677.233060
23.520000	-692.998263
23.530000	-726.403824
23.540000	-767.196498
23.550000	-796.512994
23.560000	-813.406414
23.570000	-814.244341
23.580000	-804.270671
23.590000	-782.589188
23.600000	-760.131511
23.610000	-739.876685
23.620000	-728.300168
23.630000	-718.760085
23.640000	-708.779240
23.650000	-696.611510
23.660000	-678.552656
23.670000	-655.107919
23.680000	-622.280824
23.690000	-587.603465
23.700000	-553.964064
23.710000	-525.403688
23.720000	-536.031746
23.730000	-618.836363
23.740000	-773.644217
23.750000	-937.399198
23.760000	-1058.925857
23.770000	-1125.705068
23.780000	-1153.255020
23.790000	-1153.973199
23.800000	-1143.898657
23.810000	-1132.862385
23.820000	-1121.488740
23.830000	-1101.365436
23.840000	-1078.089597
23.850000	-1066.198945
23.860000	-1073.310949
23.870000	-1087.953115
23.880000	-1092.822967
23.890000	-1080.374338
23.900000	-1055.008293
23.910000	-1030.461929
23.920000	-1005.794255
23.930000	-978.185529
23.940000	-939.540441
23.950000	-902.273714
23.960000	-871.240985
23.970000	-844.986543
23.980000	-817.571382
23.990000	-788.356279
24.000000	-751.195850
24.010000	-706.386407
24.020000	-663.822882
24.030000	-622.362582
24.040000	-591.121276
24.050000	-598.702289
24.060000	-671.390127
24.070000	-785.882775
24.080000	-877.856757
24.090000	-916.131541
24.100000	-908.741811
24.110000	-882.409145
24.120000	-848.896750
24.130000	-807.964867
24.140000	-755.686091
24.150000	-692.510582
24.160000	-625.471582
24.170000	-565.043915
24.180000	-525.579313
24.190000	-510.525647
24.200000	-501.271555
24.210000	-477.648281
24.220000	-443.006987
24.230000	-403.423731
24.240000	-368.731475
24.250000	-326.115786
24.260000	-285.163029
24.270000	-241.749121
24.280000	-198.926628
24.290000	-156.352190
24.300000	-114.003562
24.310000	-69.929138
24.320000	-24.064915
24.330000	18.500471
24.340000	56.571745
24.350000	97.306954
24.360000	149.232706
24.370000	202.750808
24.380000	249.584391
24.390000	287.230893
24.400000	298.248691
24.410000	247.014626
24.420000	128.350132
24.430000	-9.033502
24.440000	-104.495600
24.450000	-137.505131
24.460000	-122.751471
24.470000	-80.305009
24.480000	-32.660868
24.490000	12.288290
24.500000	58.481904
24.510000	111.238317
24.520000	168.624305
24.530000	212.162386
24.540000	236.488807
24.550000	243.793219
24.560000	256.762223
24.570000	276.717923
24.580000	307.060494
24.590000	337.958693
24.600000	371.076004
24.610000	402.870761
24.620000	435.793488
24.630000	468.791978
24.640000	499.526123
24.650000	526.734762
24.660000	556.965387
24.670000	588.339495
24.680000	624.437977
24.690000	662.277766
24.700000	699.263096
24.710000	738.249035
24.720000	770.073125
24.730000	804.623766
24.740000	842.542109
24.750000	885.686069
24.760000	924.998549
24.770000	966.473679
24.780000	995.749575
24.790000	975.214450
24.800000	879.216987
24.810000	743.139566
24.820000	626.099470
24.830000	553.989810
24.840000	514.894316
24.850000	487.831188
24.860000	462.734997
24.870000	438.379178
24.880000	403.898020
24.890000	349.612388
24.900000	251.035474
24.910000	100.239319
24.920000	-86.078057
24.930000	-281.759924
24.940000	-453.156692
24.950000	-600.504786
24.960000	-727.898667
24.970000	-839.903879
24.980000	-931.601052
24.990000	-993.944952
25.000000	-1021.299626
25.010000	-1032.707472
25.020000	-1032.277685
25.030000	-1021.115738
25.040000	-990.883960
25.050000	-949.556440
25.060000	-918.849088
25.070000	-889.901073
25.080000	-851.796616
25.090000	-789.556048
25.100000	-695.084676
25.110000	-580.254265
25.120000	-477.417501
25.130000	-392.535279
25.140000	-307.339164
25.150000	-228.540386
25.160000	-198.347237
25.170000	-237.475471
25.180000	-303.170083
25.190000	-360.755271
25.200000	-399.715234
25.210000	-398.661242
25.220000	-366.666840
25.230000	-321.915104
25.240000	-294.306913
25.250000	-274.049641
25.260000	-238.568318
25.270000	-201.272859
25.280000	-163.453020
25.290000	-134.174092
25.300000	-102.272222
25.310000	-61.077798
25.320000	-15.780863
25.330000	30.366886
25.340000	67.702553
25.350000	95.846667
25.360000	128.567693
25.370000	169.307550
25.380000	219.102288
25.390000	259.724852
25.400000	276.990576
25.410000	281.218641
25.420000	279.880152
25.430000	273.368694
25.440000	261.443614
25.450000	248.874724
25.460000	258.732810
25.470000	298.346238
25.480000	328.903918
25.490000	331.547773
25.500000	337.888775
25.510000	370.733503
25.520000	378.343843
25.530000	275.167888
25.540000	75.121577
25.550000	-130.844354
25.560000	-287.608182
25.570000	-367.590651
25.580000	-391.421272
25.590000	-362.949919
25.600000	-299.597454
25.610000	-217.966182
25.620000	-122.065049
25.630000	-16.643905
25.640000	80.104255
25.650000	147.679105
25.660000	185.669051
25.670000	206.377266
25.680000	229.594555
25.690000	255.695485
25.700000	289.873255
25.710000	325.654867
25.720000	354.820270
25.730000	375.304171
25.740000	382.767292
25.750000	381.316160
25.760000	372.045429
25.770000	366.696674
25.780000	367.971246
25.790000	357.357995
25.800000	324.926255
25.810000	278.072418
25.820000	226.225577
25.830000	187.482594
25.840000	164.153366
25.850000	154.887759
25.860000	147.723595
25.870000	144.000922
25.880000	133.934608
25.890000	69.346519
25.900000	-61.416303
25.910000	-211.810412
25.920000	-317.046261
25.930000	-370.122015
25.940000	-393.085417
25.950000	-402.080270
25.960000	-405.098504
25.970000	-402.346915
25.980000	-392.771349
25.990000	-368.926005
26.000000	-333.134472
26.010000	-299.200179
26.020000	-280.493398
26.030000	-274.761875
26.040000	-271.159252
26.050000	-262.330459
26.060000	-246.170255
26.070000	-224.908444
26.080000	-196.500441
26.090000	-166.504995
26.100000	-134.812835
26.110000	-109.789355
26.120000	-85.417015
26.130000	-53.733085
26.140000	-16.713293
26.150000	21.987016
26.160000	49.968102
26.170000	64.067423
26.180000	70.677255
26.190000	88.850698
26.200000	122.011486
26.210000	140.544478
26.220000	158.800967
26.230000	186.560104
26.240000	216.544581
26.250000	184.085654
26.260000	78.102839
26.270000	-54.896593
26.280000	-170.343622
26.290000	-247.610756
26.300000	-284.172721
26.310000	-282.672126
26.320000	-255.361320
26.330000	-222.756057
26.340000	-194.854320
26.350000	-164.459471
26.360000	-140.057188
26.370000	-123.143903
26.380000	-123.951013
26.390000	-131.771208
26.400000	-146.541204
26.410000	-160.711833
26.420000	-172.815394
26.430000	-171.626366
26.440000	-164.474668
26.450000	-152.524830
26.460000	-134.127156
26.470000	-114.777272
26.480000	-92.092432
26.490000	-70.716849
26.500000	-42.022498
26.510000	-12.031312
26.520000	15.719541
26.530000	34.978644
26.540000	53.498510
26.550000	82.997889
26.560000	103.856393
26.570000	129.105063
26.580000	164.525876
26.590000	186.797071
26.600000	144.783662
26.610000	31.274337
26.620000	-85.419917
26.630000	-165.328439
26.640000	-215.421368
26.650000	-239.591788
26.660000	-239.753150
26.670000	-222.537271
26.680000	-207.456224
26.690000	-196.771362
26.700000	-177.119108
26.710000	-152.388968
26.720000	-135.810509
26.730000	-139.673590
26.740000	-157.787482
26.750000	-174.936487
26.760000	-177.438460
26.770000	-167.245515
26.780000	-148.097602
26.790000	-130.576649
26.800000	-114.062684
26.810000	-94.568635
26.820000	-76.721584
26.830000	-59.883043
26.840000	-43.049757
26.850000	-21.190051
26.860000	9.615294
26.870000	37.455687
26.880000	67.991437
26.890000	98.407590
26.900000	120.348417
26.910000	144.407536
26.920000	170.672481
26.930000	180.351511
26.940000	129.255947
26.950000	17.746941
26.960000	-100.685631
26.970000	-184.227389
26.980000	-228.400845
26.990000	-246.254338
27.000000	-241.762346
27.010000	-221.960964
27.020000	-201.816955
27.030000	-189.319808
27.040000	-173.825154
27.050000	-155.045252
27.060000	-139.523656
27.070000	-137.452309
27.080000	-135.830099
27.090000	-127.881490
27.100000	-115.498755
27.110000	-104.326096
27.120000	-93.822256
27.130000	-83.108321
27.140000	-71.150589
27.150000	-56.561543
27.160000	-37.817228
27.170000	-18.701400
27.180000	1.188864
27.190000	22.487232
27.200000	36.162893
27.210000	45.370436
27.220000	54.802204
27.230000	75.599034
27.240000	85.677904
27.250000	91.567145
27.260000	104.226660
27.270000	101.772554
27.280000	38.704680
27.290000	-85.237033
27.300000	-210.325172
27.310000	-290.958097
27.320000	-326.818794
27.330000	-328.381569
27.340000	-306.319105
27.350000	-266.798855
27.360000	-229.863754
27.370000	-196.169155
27.380000	-159.729797
27.390000	-129.587062
27.400000	-112.261953
27.410000	-120.361418
27.420000	-135.381759
27.430000	-148.502165
27.440000	-147.832961
27.450000	-137.025449
27.460000	-120.292254
27.470000	-105.231275
27.480000	-89.397232
27.490000	-74.120766
27.500000	-64.519263
27.510000	-51.310719
27.520000	-34.005478
27.530000	-9.165966
27.540000	15.470868
27.550000	36.985245
27.560000	58.289772
27.570000	84.803190
27.580000	104.721197
27.590000	117.979850
27.600000	143.865548
27.610000	178.419083
27.620000	172.211407
27.630000	86.881752
27.640000	-42.915852
27.650000	-160.936633
27.660000	-239.796095
27.670000	-278.501249
27.680000	-283.035939
27.690000	-266.091419
27.700000	-246.633505
27.710000	-236.001154
27.720000	-221.839863
27.730000	-200.274731
27.740000	-174.405950
27.750000	-163.600241
27.760000	-168.929058
27.770000	-174.219005
27.780000	-171.147695
27.790000	-159.868359
27.800000	-146.723988
27.810000	-127.496038
27.820000	-105.996345
27.830000	-80.449053
27.840000	-59.638398
27.850000	-36.365534
27.860000	-8.969700
27.870000	16.689953
27.880000	38.033957
27.890000	51.736000
27.900000	80.100615
27.910000	112.350451
27.920000	131.476082
27.930000	147.030442
27.940000	171.184651
27.950000	193.641291
27.960000	157.424240
27.970000	62.066563
27.980000	-51.897687
27.990000	-139.169218
28.000000	-187.985880
28.010000	-206.801356
28.020000	-200.739104
28.030000	-183.464475
28.040000	-167.496710
28.050000	-157.780997
28.060000	-132.856000
28.070000	-104.195529
28.080000	-86.565221
28.090000	-58.446439
