2025-07-21 16:14:13    绿光---红外光---红光---X轴---Y轴---Z轴
53678 249527 277608 -5786 14911 -1867
53672 249538 277611 -5784 14952 -1872
53675 249550 277628 -5753 14953 -1899
53681 249554 277625 -5725 14961 -1933
53686 249570 277637 -5718 15011 -1932
53684 249578 277628 -5698 15041 -1922
53693 249601 277656 -5666 15017 -1918
53700 249636 277683 -5631 14981 -1912
53713 249682 277745 -5610 14959 -1911
53725 249727 277777 -5611 14957 -1917
53737 249751 277801 -5616 14983 -1865
53753 249774 277811 -5610 14972 -1857
53766 249789 277816 -5602 14977 -1869
53780 249803 277819 -5578 15002 -1871
53794 249806 277821 -5560 14995 -1860
53803 249822 277823 -5526 14970 -1863
53814 249822 277792 -5483 14960 -1872
53831 249826 277778 -5448 14972 -1874
53848 249856 277786 -5422 14992 -1877
53863 249855 277786 -5436 14986 -1876
53868 249820 277720 -5477 14991 -1861
53890 249834 277706 -5497 15003 -1855
53908 249809 277652 -5494 15004 -1862
53914 249643 277428 -5489 15009 -1861
53900 249397 277119 -5501 15013 -1860
53886 249208 276907 -5486 15013 -1881
53867 249081 276780 -5449 15013 -1900
53852 249008 276716 -5433 15011 -1896
53835 248997 276726 -5412 15004 -1889
53824 249037 276815 -5398 14989 -1892
53815 249071 276845 -5415 14984 -1892
53805 249066 276846 -5446 15023 -1863
53797 249065 276839 -5444 15066 -1840
53782 249049 276825 -5420 15062 -1857
53777 249070 276853 -5404 15038 -1882
53774 249095 276855 -5384 15019 -1894
53770 249053 276814 -5356 15001 -1902
53764 249038 276778 -5318 14986 -1912
53758 249015 276768 -5281 15004 -1929
53751 248995 276750 -5291 15048 -1945
53738 248979 276736 -5330 15096 -1952
53727 248964 276721 -5341 15131 -1953
53721 248979 276737 -5319 15104 -1957
53715 248994 276754 -5317 15065 -1972
53712 249000 276767 -5344 15079 -1945
53709 249013 276766 -5341 15093 -1922
53709 249015 276770 -5326 15077 -1951
53705 249027 276755 -5323 15053 -1972
53705 249028 276744 -5329 15038 -1983
53701 249021 276738 -5356 15014 -1981
53706 249042 276748 -5400 15016 -1985
53705 249036 276740 -5359 15022 -1997
53713 249048 276744 -5329 15035 -1992
53720 249064 276742 -5312 15069 -1968
53725 249076 276747 -5311 15094 -1938
53729 249075 276714 -5301 15112 -1927
53734 249084 276724 -5285 15122 -1941
53740 249117 276745 -5273 15091 -1947
53753 249125 276761 -5281 15061 -1924
53756 249109 276713 -5279 15128 -1913
53771 249163 276778 -5269 15125 -1936
53787 249173 276776 -5253 15093 -1951
53787 249084 276642 -5239 15079 -1934
53770 248909 276447 -5222 15098 -1910
53745 248778 276333 -5216 15096 -1913
53708 248669 276227 -5240 15095 -1929
53669 248589 276158 -5256 15109 -1937
53634 248550 276139 -5243 15092 -1950
53607 248553 276152 -5303 15111 -1933
53582 248536 276143 -5338 15134 -1898
53556 248521 276132 -5316 15127 -1909
53532 248496 276097 -5288 15103 -1933
53515 248483 276082 -5271 15084 -1913
53503 248505 276091 -5252 15050 -1918
53494 248511 276095 -5236 15046 -1946
53480 248473 276054 -5227 15088 -1954
53469 248457 276029 -5223 15110 -1958
53451 248420 275990 -5242 15128 -1949
53432 248388 275959 -5267 15137 -1915
53406 248339 275910 -5281 15113 -1913
53389 248318 275870 -5282 15077 -1956
53377 248337 275902 -5290 15054 -1953
53365 248362 275925 -5311 15068 -1925
53353 248364 275925 -5307 15077 -1945
53343 248382 275941 -5302 15066 -1980
53335 248383 275937 -5313 15047 -1978
53330 248390 275929 -5333 15022 -1959
53327 248388 275919 -5368 14976 -1939
53326 248377 275879 -5437 14999 -1894
53325 248364 275852 -5452 14968 -1911
53318 248349 275816 -5458 14966 -1927
53315 248336 275792 -5454 15030 -1936
53314 248347 275791 -5417 15097 -1974
53308 248322 275731 -5356 15124 -2023
53298 248277 275664 -5331 15102 -2049
53303 248267 275624 -5341 15087 -2045
53305 248259 275604 -5354 15088 -2043
53302 248239 275569 -5420 15034 -2028
53310 248239 275550 -5429 15012 -2016
53308 248230 275514 -5433 14988 -2010
53315 248226 275487 -5455 14982 -1979
53317 248208 275457 -5467 14982 -1969
53308 248074 275261 -5460 14971 -1989
53274 247834 274975 -5450 14982 -1982
53220 247602 274734 -5434 14992 -1975
53136 247345 274452 -5425 14977 -1991
53032 247065 274121 -5473 15042 -1964
52908 246755 273759 -5475 15069 -1930
52786 246472 273419 -5475 15069 -1946
52665 246161 273033 -5472 15066 -1965
52535 245828 272599 -5469 15051 -1944
52412 245494 272156 -5461 15021 -1926
52300 245187 271758 -5440 15010 -1944
52206 244925 271401 -5411 15035 -1972
52146 244774 271198 -5410 15067 -1973
52102 244633 271006 -5427 15084 -1954
52057 244488 270825 -5440 15090 -1932
52019 244380 270692 -5442 15075 -1915
51983 244293 270591 -5415 15038 -1929
51959 244245 270557 -5412 14996 -1936
51938 244229 270542 -5468 14977 -1900
51917 244221 270515 -5490 14969 -1877
51885 244189 270474 -5472 14961 -1891
51848 244116 270379 -5480 14951 -1887
51822 244053 270292 -5512 14926 -1863
51799 244014 270225 -5539 14933 -1860
51787 243986 270191 -5546 14971 -1870
51772 243945 270124 -5554 14987 -1855
51760 243922 270079 -5561 14986 -1832
51756 243903 270043 -5550 14984 -1824
51759 243895 270018 -5549 14992 -1800
51759 243888 269990 -5538 15008 -1772
51757 243869 269953 -5510 15012 -1783
51757 243871 269946 -5490 15013 -1821
51757 243860 269912 -5484 15012 -1836
51762 243871 269919 -5500 14999 -1823
51765 243872 269923 -5497 15012 -1834
51770 243884 269921 -5495 14996 -1832
51779 243899 269930 -5491 15001 -1839
51779 243891 269895 -5495 15015 -1852
51784 243888 269866 -5491 15014 -1847
51807 243963 269961 -5493 14992 -1837
51823 243947 269918 -5505 14980 -1844
51813 243810 269772 -5520 14987 -1848
51778 243664 269616 -5533 14973 -1840
51722 243534 269513 -5543 14999 -1812
51655 243437 269431 -5569 15035 -1793
51588 243348 269361 -5567 15028 -1818
51534 243314 269355 -5553 15002 -1839
51490 243324 269388 -5537 14996 -1824
51450 243300 269372 -5530 15000 -1804
51411 243272 269340 -5509 14991 -1823
51374 243232 269305 -5478 15002 -1852
51343 243223 269279 -5485 15031 -1877
51322 243235 269291 -5521 15050 -1891
51305 243216 269270 -5538 15048 -1871
51284 243188 269240 -5540 15006 -1852
51262 243151 269205 -5549 14979 -1862
51233 243117 269165 -5574 14995 -1854
51204 243089 269128 -5603 15013 -1822
51177 243057 269101 -5585 15015 -1816
51155 243048 269080 -5551 15000 -1827
51140 243050 269084 -5546 14978 -1826
51125 243049 269078 -5560 14961 -1827
51116 243055 269073 -5577 14959 -1826
51107 243067 269074 -5588 14980 -1812
51099 243065 269065 -5587 14994 -1814
51094 243071 269065 -5580 14980 -1815
51105 243092 269080 -5594 14956 -1791
51107 243117 269109 -5624 14950 -1771
51116 243137 269122 -5633 14963 -1772
51126 243171 269148 -5613 14965 -1778
51133 243182 269132 -5589 14961 -1783
51137 243189 269134 -5573 14950 -1794
51150 243210 269145 -5576 14947 -1810
51165 243234 269158 -5577 14981 -1816
51175 243253 269167 -5581 15013 -1821
51187 243269 269168 -5575 15002 -1841
51200 243301 269198 -5565 14968 -1846
51218 243361 269270 -5594 14948 -1838
51236 243382 269279 -5637 14955 -1834
51255 243404 269276 -5650 14952 -1823
51285 243477 269353 -5624 14928 -1829
51302 243435 269287 -5624 14930 -1835
51295 243282 269105 -5647 14956 -1837
51261 243144 268974 -5636 14943 -1861
51218 243046 268906 -5663 14969 -1842
51163 242977 268873 -5676 14993 -1806
51110 242934 268844 -5648 14983 -1817
51070 242937 268879 -5623 14969 -1839
51041 242955 268909 -5616 14965 -1823
51021 242963 268901 -5585 14952 -1815
51006 242979 268932 -5551 14940 -1828
50998 243004 268966 -5551 14963 -1851
50998 243036 269005 -5564 15028 -1881
51002 243080 269062 -5564 15015 -1883
51005 243088 269072 -5578 14985 -1881
51001 243069 269045 -5582 14965 -1883
50996 243062 269030 -5588 14981 -1869
50990 243063 269037 -5594 14996 -1859
50981 243068 269061 -5578 14997 -1865
50973 243076 269078 -5571 14999 -1869
50971 243080 269080 -5591 14988 -1887
50972 243099 269084 -5617 14978 -1890
50977 243120 269109 -5650 14972 -1870
50980 243127 269099 -5679 14964 -1864
50990 243129 269091 -5704 14944 -1866
50997 243141 269093 -5747 14916 -1841
51007 243139 269076 -5788 14918 -1819
51021 243168 269095 -5796 14934 -1805
51038 243193 269113 -5784 14915 -1793
51059 243220 269138 -5763 14882 -1791
51075 243235 269146 -5737 14888 -1792
51094 243278 269169 -5722 14901 -1796
51121 243322 269207 -5715 14927 -1804
51141 243317 269195 -5695 14947 -1817
51169 243364 269235 -5669 14935 -1828
51198 243405 269270 -5687 14946 -1808
51224 243424 269268 -5735 14966 -1763
51249 243460 269294 -5746 14974 -1744
51276 243506 269343 -5744 14972 -1716
51306 243560 269386 -5768 14935 -1678
51349 243667 269509 -5801 14872 -1668
51385 243681 269488 -5836 14834 -1663
51410 243595 269369 -5877 14858 -1701
51416 243445 269197 -5982 14888 -1737
51398 243301 269057 -6062 14903 -1772
51368 243215 268980 -6072 14908 -1818
51334 243145 268927 -6036 14906 -1870
51306 243109 268921 -5990 14871 -1907
51292 243153 268977 -5971 14819 -1908
51286 243203 269049 -5965 14766 -1892
51284 243222 269072 -5953 14747 -1887
51285 243260 269118 -5843 14884 -1889
51287 243294 269143 -5796 14928 -1910
51301 243355 269225 -5721 14939 -1912
51317 243382 269241 -5653 14949 -1894
51329 243364 269208 -5619 15019 -1873
51329 243351 269192 -5600 15073 -1863
51332 243330 269168 -5595 15054 -1874
51331 243299 269133 -5577 15014 -1867
51338 243314 269163 -5536 14983 -1856
51349 243339 269200 -5508 14956 -1855
51357 243361 269211 -5534 14958 -1849
51367 243382 269228 -5624 14975 -1838
51383 243416 269259 -5695 14994 -1839
51397 243442 269276 -5691 15013 -1865
51415 243459 269278 -5719 15014 -1859
51430 243490 269301 -5773 14978 -1816
51451 243522 269331 -5794 14903 -1785
51472 243569 269370 -5809 14849 -1752
51494 243607 269398 -5811 14855 -1731
51518 243630 269421 -5790 14885 -1706
51545 243669 269449 -5767 14918 -1665
51574 243702 269478 -5773 14925 -1655
51599 243738 269499 -5794 14911 -1666
51624 243736 269489 -5799 14932 -1674
51650 243756 269492 -5791 14953 -1651
51677 243806 269531 -5767 14950 -1643
51704 243826 269536 -5731 14929 -1692
51736 243869 269575 -5707 14912 -1736
51764 243893 269589 -5718 14916 -1746
51789 243906 269570 -5724 14934 -1764
51823 243972 269639 -5685 14961 -1766
51858 244012 269676 -5657 14920 -1802
51875 243912 269540 -5668 14949 -1812
51870 243743 269343 -5701 15032 -1778
51860 243649 269276 -5702 15057 -1763
51849 243604 269258 -5652 15008 -1780
51830 243549 269216 -5576 14959 -1775
51825 243549 269213 -5548 14951 -1752
51815 243562 269240 -5545 14962 -1740
51816 243566 269247 -5540 15026 -1749
51820 243577 269250 -5545 15017 -1755
51828 243587 269251 -5542 15012 -1743
51838 243603 269267 -5568 14997 -1738
51851 243640 269316 -5586 14995 -1745
51864 243649 269309 -5585 15003 -1733
51874 243605 269244 -5607 15001 -1717
51884 243584 269224 -5605 14997 -1742
51893 243566 269201 -5584 14988 -1774
51896 243554 269182 -5612 14972 -1747
51903 243553 269172 -5657 14975 -1757
51910 243561 269164 -5690 14985 -1800
51915 243534 269125 -5709 14982 -1818
51920 243520 269116 -5717 14997 -1802
51930 243528 269096 -5697 15007 -1781
51940 243514 269066 -5668 14973 -1772
51957 243514 269049 -5663 14941 -1765
51975 243554 269085 -5670 14939 -1765
52000 243584 269115 -5678 14958 -1761
52020 243609 269123 -5656 14971 -1733
52049 243669 269186 -5636 14960 -1725
52080 243710 269238 -5641 14937 -1743
52107 243731 269251 -5662 14909 -1748
52132 243766 269275 -5684 14915 -1753
52156 243812 269309 -5700 14957 -1774
52183 243845 269329 -5714 14975 -1781
52209 243864 269345 -5708 14967 -1786
52235 243901 269383 -5706 14953 -1796
52256 243925 269391 -5734 14939 -1773
52278 243922 269371 -5716 14923 -1766
52309 243970 269405 -5734 14933 -1749
52331 243993 269426 -5753 14918 -1756
52350 243976 269353 -5725 14889 -1793
52380 244012 269400 -5727 14936 -1790
52409 244039 269432 -5772 15011 -1744
52424 243933 269287 -5758 15010 -1748
52419 243754 269075 -5708 14945 -1795
52413 243641 268983 -5679 14904 -1795
52405 243588 268969 -5734 14939 -1773
52391 243545 268944 -5716 14923 -1766
52378 243511 268900 -5734 14933 -1749
52374 243522 268916 -5753 14918 -1756
52369 243532 268927 -5725 14889 -1793
52367 243519 268915 -5727 14936 -1790
52367 243529 268911 -5772 15011 -1744
52367 243515 268904 -5758 15010 -1748
52369 243521 268894 -5708 14945 -1795
52378 243561 268936 -5679 14904 -1795
52380 243531 268888 -5635 14953 -1746
52379 243484 268829 -5599 14961 -1787
52382 243471 268817 -5587 14979 -1819
52384 243458 268816 -5619 14983 -1825
52390 243461 268811 -5655 14990 -1822
52394 243462 268823 -5676 15000 -1824
52394 243467 268819 -5679 14977 -1841
52396 243468 268821 -5673 14950 -1832
52407 243502 268851 -5678 14962 -1800
52415 243504 268863 -5682 14987 -1808
52426 243553 268899 -5656 14974 -1846
52438 243585 268948 -5648 14940 -1851
52449 243608 268942 -5672 14928 -1830
52463 243630 268955 -5707 14934 -1829
52477 243653 268978 -5741 14958 -1826
52496 243697 269006 -5749 14969 -1817
52510 243703 269006 -5752 14953 -1824
52529 243724 269031 -5767 14933 -1815
52552 243769 269065 -5761 14899 -1809
52568 243792 269084 -5747 14900 -1802
52584 243796 269064 -5734 14944 -1789
52600 243801 269062 -5718 14967 -1799
52618 243830 269090 -5691 14960 -1831
52638 243865 269114 -5675 14949 -1823
52655 243883 269114 -5696 14945 -1785
52680 243947 269192 -5712 14943 -1794
52705 244021 269264 -5718 14929 -1817
52716 243992 269214 -5721 14929 -1809
52733 244014 269216 -5726 14933 -1796
52753 244049 269247 -5754 14917 -1787
52764 243969 269144 -5768 14909 -1785
52753 243775 268917 -5768 14905 -1783
52731 243595 268730 -5786 14893 -1775
52706 243480 268637 -5781 14879 -1789
52680 243428 268611 -5755 14895 -1811
52658 243414 268587 -5766 14947 -1794
52640 243395 268577 -5791 14959 -1783
52623 243385 268580 -5789 14903 -1798
52610 243397 268589 -5794 14899 -1790
52596 243385 268577 -5817 14972 -1753
52584 243361 268539 -5727 14994 -1760
52578 243376 268560 -5659 14930 -1789
52582 243410 268605 -5615 14907 -1799
52577 243383 268555 -5625 14936 -1781
52568 243331 268515 -5649 14981 -1771
52559 243319 268500 -5649 14990 -1788
52551 243270 268445 -5657 14973 -1812
52541 243248 268417 -5686 14963 -1811
52537 243282 268457 -5701 14952 -1790
52528 243284 268472 -5682 14950 -1780
52525 243279 268456 -5722 14974 -1761
52524 243309 268488 -5742 14974 -1766
52528 243340 268515 -5725 14967 -1778
52532 243357 268535 -5726 14955 -1763
52543 243373 268551 -5735 14911 -1757
52551 243419 268589 -5754 14861 -1792
52561 243464 268659 -5795 14889 -1791
52563 243454 268618 -5829 14923 -1769
52570 243452 268604 -5832 14916 -1753
52581 243491 268658 -5840 14922 -1730
52591 243527 268685 -5869 14915 -1720
52599 243500 268645 -5879 14884 -1715
52612 243503 268622 -5852 14855 -1719
52630 243565 268704 -5805 14879 -1729
52642 243607 268749 -5800 14926 -1718
52655 243635 268765 -5820 14919 -1720
52662 243628 268753 -5783 14888 -1759
52678 243671 268806 -5748 14893 -1785
52694 243744 268890 -5777 14922 -1779
52707 243772 268904 -5793 14920 -1808
52723 243794 268920 -5786 14896 -1883
52745 243837 268958 -5803 14903 -1924
52762 243809 268914 -5844 14933 -1912
52756 243648 268737 -5874 14934 -1863
52730 243499 268578 -5893 14886 -1831
52697 243383 268491 -5892 14853 -1867
52660 243337 268470 -5857 14904 -1879
52624 243327 268482 -5823 14964 -1841
52596 243320 268494 -5801 14945 -1809
52566 243324 268510 -5820 14950 -1740
52549 243309 268492 -5858 14990 -1730
52534 243325 268522 -5842 14961 -1733
52520 243343 268547 -5796 14911 -1717
52510 243374 268581 -5784 14874 -1698
52503 243406 268630 -5820 14854 -1693
52493 243380 268581 -5847 14859 -1711
52481 243354 268546 -5865 14856 -1710
52464 243321 268519 -5866 14853 -1716
52454 243319 268532 -5843 14881 -1749
52435 243319 268534 -5830 14906 -1776
52418 243314 268532 -5854 14923 -1817
52403 243317 268541 -5901 14937 -1835
52395 243331 268568 -5933 14957 -1830
52389 243358 268594 -5940 14979 -1841
52387 243381 268609 -5951 14977 -1852
52389 243404 268632 -5957 14948 -1850
52388 243418 268642 -5954 14921 -1822
52387 243438 268647 -5967 14908 -1792
52391 243457 268679 -5918 14903 -1770
52401 243502 268714 -5912 14898 -1769
52407 243537 268746 -5920 14885 -1762
52421 243572 268780 -5919 14871 -1756
52433 243588 268800 -5914 14875 -1734
52442 243606 268802 -5912 14871 -1723
52451 243628 268810 -5919 14859 -1740
52460 243646 268821 -5938 14858 -1754
52472 243658 268824 -5958 14860 -1749
52486 243678 268834 -5958 14879 -1751
52495 243711 268859 -5952 14897 -1759
52507 243739 268884 -5977 14876 -1762
52521 243767 268904 -6004 14847 -1767
52535 243798 268926 -6018 14836 -1762
52547 243793 268903 -6024 14842 -1750
52559 243816 268915 -6014 14861 -1738
52584 243863 268956 -6005 14868 -1737
52592 243772 268838 -6003 14866 -1740
52569 243549 268590 -6011 14865 -1735
52532 243376 268416 -6026 14858 -1728
52483 243258 268333 -6008 14858 -1700
52426 243181 268284 -5994 14852 -1679
52368 243119 268248 -6004 14827 -1710
52320 243105 268252 -6033 14857 -1713
52283 243103 268269 -6065 14920 -1678
52248 243097 268263 -6056 14929 -1676
52220 243112 268290 -6038 14877 -1686
52192 243108 268292 -6032 14824 -1660
52168 243114 268289 -6023 14824 -1642
52154 243127 268303 -5991 14854 -1660
52134 243098 268271 -5903 14897 -1675
52112 243039 268195 -5928 14883 -1694
52090 242985 268133 -5928 14879 -1703
52065 242942 268092 -5929 14899 -1678
52041 242911 268047 -5923 14914 -1662
52021 242888 268027 -5896 14912 -1659
52003 242892 268030 -5898 14914 -1635
51984 242884 268039 -5906 14938 -1644
51967 242886 268024 -5871 14944 -1697
51956 242890 268030 -5840 14925 -1729
51946 242906 268040 -5878 14894 -1730
51944 242923 268051 -5945 14849 -1728
51939 242943 268067 -6005 14822 -1723
51937 242944 268050 -6021 14829 -1723
51939 242953 268058 -6037 14832 -1714
51940 242968 268072 -6057 14826 -1710
51942 242986 268079 -6048 14834 -1710
51950 243004 268075 -6028 14858 -1719
51959 243017 268092 -5923 14905 -1722
51965 243031 268097 -5932 14901 -1746
51976 243042 268106 -5929 14892 -1759
51983 243056 268096 -5918 14890 -1769
51986 243054 268091 -5918 14903 -1762
51992 243061 268071 -5921 14916 -1748
52002 243059 268061 -5933 14893 -1768
52011 243081 268077 -5947 14881 -1778
52021 243111 268101 -5960 14873 -1777
52032 243106 268075 -5953 14885 -1767
52044 243129 268084 -5981 14857 -1771
52071 243193 268147 -6018 14824 -1765
52090 243151 268090 -6035 14828 -1746
52077 242980 267901 -6017 14850 -1740
52039 242821 267772 -5985 14844 -1761
51985 242721 267703 -6004 14852 -1764
51924 242640 267637 -6053 14882 -1730
51860 242564 267580 -6065 14886 -1719
51808 242530 267556 -5989 14871 -1745
51761 242509 267552 -5983 14881 -1746
51728 242488 267534 -5988 14872 -1756
51698 242470 267515 -5964 14869 -1777
51674 242462 267494 -5919 14890 -1799
51655 242464 267521 -5895 14925 -1804
51644 242466 267524 -5894 14931 -1819
51625 242447 267497 -5915 14902 -1828
51608 242402 267452 -5940 14862 -1824
51588 242361 267403 -5954 14860 -1823
51569 242343 267373 -5951 14887 -1814
51546 242318 267369 -5962 14896 -1802
51525 242303 267348 -5973 14898 -1805
51506 242302 267367 -5960 14887 -1834
51500 242322 267374 -5966 14872 -1844
51490 242331 267371 -5984 14876 -1820
51487 242345 267385 -6014 14870 -1810
51487 242385 267428 -6049 14856 -1815
51488 242398 267441 -6066 14849 -1802
51490 242417 267455 -6066 14842 -1770
51498 242445 267474 -6045 14838 -1756
51510 242479 267518 -6068 14837 -1750
51521 242529 267570 -6086 14832 -1735
51531 242567 267598 -6071 14819 -1744
51543 242600 267627 -6024 14837 -1742
51561 242646 267679 -6023 14865 -1733
51580 242679 267703 -6055 14855 -1741
51598 242696 267718 -6072 14839 -1749
51611 242725 267718 -6065 14839 -1744
51622 242742 267728 -6001 14869 -1710
51639 242762 267750 -6039 14852 -1710
51657 242799 267786 -6069 14841 -1715
51682 242864 267846 -6049 14856 -1736
51703 242890 267861 -6031 14869 -1755
51717 242904 267849 -6034 14883 -1743
51746 242969 267923 -6057 14871 -1714
51774 243023 267969 -6054 14835 -1729
51790 242936 267855 -6061 14833 -1741
51776 242748 267647 -6097 14877 -1706
51743 242598 267506 -6093 14920 -1665
51701 242510 267455 -6063 14902 -1661
51648 242457 267426 -6040 14848 -1676
51606 242423 267413 -6029 14836 -1662
51578 242443 267453 -5991 14871 -1660
51561 242471 267490 -5941 14893 -1677
51548 242495 267522 -5932 14888 -1681
51535 242504 267532 -5957 14885 -1680
51522 242488 267514 -5990 14875 -1689
51522 242516 267538 -6010 14874 -1696
51522 242553 267583 -5989 14863 -1713
51522 242529 267537 -6000 14842 -1732
51516 242485 267492 -6054 14844 -1732
51510 242454 267451 -6111 14849 -1722
51497 242409 267400 -6141 14846 -1734
51490 242395 267385 -6136 14845 -1746
51486 242398 267394 -6177 14826 -1726
51473 242377 267384 -6217 14785 -1725
51466 242359 267348 -6230 14774 -1728
51466 242385 267371 -6241 14788 -1716
51463 242374 267338 -6227 14794 -1705
51464 242366 267319 -6189 14799 -1722
51473 242369 267312 -6179 14802 -1714
51484 242392 267323 -6181 14800 -1687
51496 242386 267324 -6171 14791 -1690
51504 242397 267323 -6159 14791 -1685
51504 242371 267280 -6157 14789 -1676
51505 242337 267224 -6153 14781 -1681
51516 242311 267167 -6158 14804 -1694
51522 242293 267129 -6177 14826 -1693
51546 242306 267124 -6168 14856 -1690
51571 242326 267139 -6160 14858 -1692
51595 242358 267151 -6186 14815 -1690
51622 242390 267191 -6223 14798 -1695
51653 242444 267238 -6255 14798 -1697
51682 242484 267262 -6240 14798 -1689
51715 242553 267340 -6213 14791 -1698
51758 242657 267451 -6239 14778 -1699
51789 242668 267451 -6270 14763 -1711
51802 242546 267306 -6270 14758 -1730
51794 242402 267181 -6276 14832 -1677
51778 242329 267126 -6307 14814 -1681
51752 242286 267119 -6307 14792 -1710
51729 242282 267138 -6280 14783 -1731
51717 242301 267188 -6254 14787 -1709
51715 242351 267254 -6240 14791 -1690
51713 242395 267299 -6236 14780 -1712
51712 242417 267325 -6253 14775 -1725
51710 242424 267341 -6287 14773 -1723
51711 242457 267373 -6303 14759 -1719
51726 242524 267436 -6303 14735 -1691
51737 242536 267459 -6329 14725 -1682
51751 242545 267437 -6345 14744 -1715
51759 242533 267437 -6354 14765 -1729
51767 242549 267472 -6367 14777 -1718
51776 242568 267509 -6357 14787 -1719
51783 242613 267548 -6369 14775 -1722
51796 242651 267611 -6383 14746 -1709
51807 242703 267649 -6374 14725 -1707
51825 242746 267712 -6373 14715 -1703
51841 242794 267761 -6362 14732 -1702
51858 242823 267793 -6373 14742 -1710
51877 242848 267799 -6409 14731 -1709
51897 242878 267818 -6422 14728 -1709
51918 242907 267839 -6421 14716 -1714
51942 242953 267872 -6392 14712 -1702
51967 242997 267914 -6366 14720 -1692
51999 243062 267974 -6363 14712 -1696
52030 243119 268029 -6359 14702 -1693
52063 243172 268082 -6356 14701 -1691
52094 243223 268133 -6297 14728 -1668
52120 243269 268164 -6329 14736 -1689
52148 243308 268203 -6348 14760 -1693
52174 243327 268215 -6346 14780 -1685
52202 243369 268235 -6310 14807 -1686
52236 243415 268295 -6274 14819 -1680
52263 243457 268327 -6264 14806 -1677
52290 243476 268326 -6258 14811 -1672
52327 243556 268415 -6256 14811 -1676
52366 243612 268469 -6216 14783 -1690
52382 243488 268304 -6201 14783 -1676
52378 243308 268119 -6253 14811 -1644
52365 243198 268014 -6277 14831 -1633
52347 243135 267995 -6259 14815 -1653
52329 243104 267991 -6214 14782 -1661
52312 243095 268004 -6183 14774 -1638
52303 243121 268051 -6177 14777 -1618
52297 243148 268074 -6171 14803 -1630
52291 243153 268067 -6165 14849 -1662
52295 243156 268079 -6137 14884 -1688
52297 243172 268100 -6151 14860 -1664
52307 243207 268133 -6177 14825 -1659
52321 243258 268184 -6181 14798 -1694
52333 243257 268175 -6201 14796 -1694
52333 243236 268147 -6219 14824 -1692
52338 243223 268141 -6219 14837 -1723
52342 243221 268141 -6230 14816 -1738
52346 243223 268140 -6250 14777 -1737
52353 243252 268174 -6259 14753 -1707
52366 243304 268242 -6237 14764 -1702
52378 243348 268301 -6234 14790 -1710
52387 243374 268318 -6246 14825 -1706
52396 243402 268341 -6251 14859 -1702
52409 243426 268362 -6254 14849 -1692
52421 243432 268367 -6243 14822 -1695
52436 243464 268383 -6261 14794 -1680
52453 243486 268402 -6289 14762 -1679
52468 243501 268411 -6293 14746 -1674
52483 243527 268443 -6275 14751 -1655
52505 243563 268469 -6233 14778 -1663
52524 243581 268466 -6223 14805 -1669
52538 243598 268469 -6251 14805 -1672
52560 243625 268490 -6283 14783 -1667
52579 243641 268496 -6300 14764 -1670
52601 243673 268504 -6290 14769 -1681
52625 243711 268547 -6285 14788 -1690
52647 243753 268581 -6301 14792 -1707
52675 243798 268632 -6327 14777 -1714
52698 243818 268636 -6358 14762 -1718
52717 243829 268637 -6338 14784 -1692
52751 243893 268706 -6292 14791 -1677
52775 243882 268669 -6261 14756 -1707
52778 243724 268479 -6258 14759 -1704
52759 243539 268292 -6276 14803 -1650
52736 243425 268203 -6251 14839 -1627
52714 243373 268168 -6221 14820 -1644
52688 243328 268154 -6232 14772 -1638
52668 243315 268159 -6253 14760 -1628
52654 243324 268182 -6257 14765 -1624
52642 243330 268172 -6197 14789 -1623
52634 243333 268181 -6213 14790 -1634
52631 243352 268201 -6239 14789 -1662
52630 243368 268216 -6249 14784 -1664
52634 243394 268249 -6255 14786 -1670
52637 243407 268253 -6275 14800 -1667
52636 243374 268213 -6313 14800 -1647
52625 243329 268153 -6353 14776 -1658
52619 243310 268142 -6367 14744 -1688
52614 243310 268145 -6361 14730 -1698
52609 243304 268147 -6347 14737 -1692
52606 243311 268159 -6356 14741 -1692
52611 243337 268176 -6395 14731 -1693
52620 243362 268208 -6416 14736 -1686
52620 243383 268234 -6411 14750 -1685
52628 243418 268260 -6387 14753 -1688
52640 243447 268289 -6382 14735 -1679
52643 243456 268299 -6394 14723 -1663
52769 243597 268316 -6339 14764 -1698
52791 243644 268365 -6342 14750 -1718
52808 243692 268410 -6283 14774 -1708
52823 243694 268383 -6314 14775 -1706
52846 243738 268426 -6318 14750 -1729
52874 243813 268507 -6319 14757 -1747
52888 243756 268432 -6334 14794 -1707
52874 243568 268208 -6345 14809 -1676
52846 243396 268042 -6344 14796 -1684
52808 243273 267950 -6321 14782 -1689
52769 243207 267901 -6316 14769 -1670
52737 243191 267917 -6288 14747 -1648
52716 243228 267981 -6236 14751 -1674
52699 243283 268058 -6224 14805 -1702
52685 243307 268108 -6246 14842 -1688
52668 243309 268102 -6281 14833 -1680
52652 243302 268078 -6272 14829 -1672
52641 243304 268072 -6250 14812 -1659
52631 243310 268082 -6276 14788 -1659
52622 243281 268025 -6338 14769 -1629
52609 243237 267983 -6388 14738 -1599
52594 243201 267948 -6339 14748 -1623
52574 243159 267897 -6368 14733 -1620
52559 243138 267880 -6417 14717 -1633
52546 243126 267874 -6425 14734 -1649
52532 243130 267872 -6409 14762 -1650
52520 243118 267864 -6385 14777 -1647
52510 243113 267849 -6393 14773 -1626
52502 243111 267826 -6422 14740 -1610
52494 243103 267815 -6427 14708 -1611
52494 243128 267842 -6395 14709 -1611
52505 243163 267879 -6361 14710 -1608
52518 243219 267926 -6378 14701 -1606
52525 243249 267946 -6413 14704 -1601
52537 243261 267956 -6424 14708 -1594
52545 243286 267984 -6416 14715 -1617
52553 243309 268013 -6406 14728 -1641
52562 243338 268022 -6418 14733 -1642
52575 243361 268035 -6430 14733 -1660
52580 243374 268050 -6423 14730 -1677
52592 243392 268060 -6421 14732 -1677
52605 243431 268095 -6398 14720 -1678
52615 243433 268097 -6386 14725 -1666
52616 243410 268030 -6410 14710 -1676
52630 243461 268081 -6428 14667 -1705
52647 243498 268105 -6444 14678 -1695
52660 243463 268059 -6452 14743 -1667
52646 243296 267864 -6449 14787 -1657
52615 243138 267702 -6436 14775 -1679
52574 243015 267608 -6403 14769 -1711
52521 242925 267540 -6378 14768 -1708
52473 242875 267498 -6286 14779 -1701
52434 242860 267511 -6318 14789 -1711
52404 242877 267535 -6347 14789 -1728
52380 242889 267552 -6368 14799 -1740
52362 242889 267548 -6346 14811 -1734
52342 242873 267523 -6306 14783 -1744
52334 242902 267568 -6317 14751 -1766
52332 242933 267596 -6348 14752 -1768
52322 242910 267562 -6366 14762 -1760
52314 242881 267525 -6358 14758 -1719
52299 242855 267488 -6379 14720 -1702
52280 242810 267447 -6417 14698 -1709
52258 242776 267416 -6438 14695 -1712
52236 242750 267388 -6435 14723 -1708
52218 242746 267388 -6427 14744 -1691
52205 242744 267387 -6430 14732 -1688
52192 242738 267375 -6447 14711 -1691
52185 242736 267355 -6466 14691 -1679
52182 242746 267363 -6467 14695 -1676
52186 242791 267403 -6456 14698 -1667
52190 242800 267422 -6456 14679 -1676
52196 242808 267418 -6460 14671 -1693
52200 242822 267436 -6465 14681 -1689
52206 242843 267441 -6447 14701 -1694
52211 242861 267451 -6407 14734 -1695
52221 242867 267464 -6405 14742 -1683
52227 242902 267485 -6430 14719 -1673
52237 242928 267503 -6440 14707 -1673
52245 242939 267514 -6435 14706 -1669
52252 242968 267519 -6400 14725 -1649
52258 242964 267515 -6391 14732 -1629
52258 242926 267450 -6395 14717 -1656
52262 242930 267437 -6407 14729 -1678
52275 242947 267451 -6435 14758 -1640
52262 242834 267297 -6410 14780 -1607
52211 242530 266945 -6392 14781 -1622
52104 242146 266500 -6400 14766 -1629
51965 241712 265995 -6384 14755 -1623
51833 241370 265605 -6361 14749 -1621
51727 241135 265340 -6400 14725 -1649
51658 241026 265223 -6391 14732 -1629
51624 241027 265225 -6395 14717 -1656
51609 241063 265280 -6407 14729 -1678
51602 241114 265361 -6435 14758 -1640
51599 241148 265423 -6410 14780 -1607
51592 241204 265471 -6392 14781 -1622
51586 241244 265529 -6400 14766 -1629
51577 241238 265506 -6384 14755 -1623
51567 241205 265487 -6361 14749 -1621
51557 241190 265480 -6243 14775 -1639
51535 241160 265466 -6290 14773 -1653
51517 241130 265430 -6333 14766 -1649
51498 241117 265409 -6357 14754 -1642
51485 241098 265395 -6355 14746 -1649
51479 241117 265405 -6344 14743 -1672
51478 241146 265452 -6376 14743 -1672
51482 241173 265479 -6416 14748 -1663
51484 241200 265504 -6417 14736 -1679
51488 241221 265527 -6389 14727 -1679
51501 241259 265578 -6389 14721 -1659
51508 241276 265590 -6421 14709 -1646
51513 241284 265587 -6435 14721 -1646
51511 241274 265557 -6445 14727 -1654
51505 241254 265540 -6443 14742 -1660
51501 241258 265529 -6432 14755 -1654
51505 241256 265525 -6454 14736 -1632
51504 241259 265523 -6468 14709 -1624
51513 241279 265550 -6447 14703 -1644
51520 241304 265575 -6409 14722 -1656
51534 241343 265607 -6382 14742 -1648
51537 241362 265600 -6394 14742 -1650
51544 241364 265574 -6414 14725 -1645
51568 241421 265645 -6409 14723 -1638
51586 241412 265629 -6390 14737 -1642
51570 241237 265438 -6372 14751 -1645
51532 241068 265278 -6365 14746 -1667
51480 240952 265214 -6374 14736 -1693
51422 240913 265215 -6395 14733 -1701
51365 240880 265219 -6392 14753 -1700
51319 240893 265255 -6362 14800 -1676
51287 240931 265331 -6358 14780 -1681
51257 240952 265371 -6390 14727 -1706
51234 240973 265396 -6431 14731 -1679
51215 240984 265416 -6443 14740 -1653
51198 241006 265446 -6398 14736 -1679
51191 241049 265512 -6355 14720 -1710
51187 241071 265533 -6363 14704 -1699
51173 241055 265515 -6374 14708 -1686
51157 241044 265506 -6367 14725 -1696
51142 241021 265498 -6313 14774 -1694
51122 241005 265486 -6284 14816 -1708
51106 241004 265491 -6320 14813 -1736
51097 241020 265511 -6363 14784 -1729
51093 241028 265535 -6387 14740 -1736
51094 241056 265563 -6362 14743 -1754
51093 241081 265593 -6358 14765 -1737
51097 241121 265623 -6390 14759 -1732
51109 241139 265656 -6408 14739 -1757
51118 241178 265688 -6420 14717 -1750
51134 241224 265739 -6385 14700 -1722
51149 241267 265776 -6404 14707 -1715
51165 241293 265801 -6428 14711 -1718
51177 241318 265824 -6442 14713 -1703
51196 241354 265857 -6421 14722 -1690
51214 241401 265901 -6395 14737 -1682
51237 241438 265953 -6411 14729 -1679
51258 241474 265988 -6423 14714 -1688
51277 241512 266024 -6423 14705 -1695
51298 241551 266050 -6395 14712 -1678
51313 241576 266067 -6349 14745 -1676
51330 241586 266046 -6363 14759 -1699
51357 241626 266088 -6402 14738 -1720
51390 241671 266141 -6418 14712 -1726
51400 241591 266049 -6416 14707 -1709
51386 241422 265868 -6409 14728 -1703
51352 241276 265749 -6410 14743 -1719
51308 241196 265695 -6421 14721 -1729
51268 241145 265671 -6438 14697 -1704
51234 241133 265687 -6428 14711 -1694
51214 241164 265733 -6402 14730 -1708
51195 241188 265757 -6406 14722 -1726
51181 241176 265745 -6434 14725 -1718
51170 241161 265737 -6457 14750 -1670
51165 241148 265711 -6449 14741 -1666
51173 241171 265735 -6402 14721 -1692
51187 241220 265798 -6383 14713 -1682
51197 241226 265794 -6398 14708 -1663
51203 241202 265766 -6391 14725 -1673
51210 241214 265782 -6365 14757 -1698
51208 241204 265786 -6332 14780 -1711
51206 241185 265766 -6334 14766 -1711
51210 241194 265770 -6374 14733 -1702
51214 241201 265785 -6402 14709 -1702
51226 241225 265819 -6407 14719 -1724
51242 241249 265849 -6402 14746 -1717
51256 241304 265896 -6413 14754 -1683
51275 241336 265920 -6430 14743 -1687
51299 241385 265952 -6435 14728 -1705
51321 241400 265972 -6441 14724 -1708
51346 241425 265987 -6410 14717 -1681
51364 241437 266003 -6438 14708 -1693
51391 241470 266017 -6458 14708 -1691
51416 241498 266047 -6468 14705 -1679
51439 241528 266064 -6454 14712 -1681
51468 241560 266100 -6434 14708 -1679
51498 241591 266113 -6439 14701 -1674
51529 241614 266142 -6438 14706 -1681
51559 241662 266167 -6432 14712 -1685
51594 241700 266204 -6414 14727 -1684
51632 241774 266282 -6393 14733 -1680
51663 241789 266278 -6403 14739 -1687
51701 241837 266324 -6431 14732 -1708
51746 241923 266405 -6450 14716 -1727
51778 241891 266361 -6445 14711 -1727
51787 241723 266171 -6436 14713 -1720
51778 241574 266023 -6444 14706 -1719
51760 241476 265955 -6461 14691 -1723
51746 241419 265927 -6473 14689 -1720
51732 241409 265925 -6468 14709 -1705
51725 241424 265952 -6439 14714 -1723
51725 241453 265986 -6430 14686 -1754
51730 241486 266038 -6473 14696 -1745
51739 241535 266077 -6511 14730 -1709
51754 241559 266096 -6495 14737 -1719
51769 241600 266133 -6453 14711 -1741
51793 241662 266223 -6434 14678 -1733
51812 241655 266218 -6446 14671 -1738
51829 241642 266193 -6453 14692 -1760
51845 241636 266181 -6444 14716 -1792
51855 241622 266176 -6422 14711 -1786
51870 241644 266206 -6439 14700 -1759
51884 241656 266217 -6473 14708 -1751
51895 241664 266213 -6461 14702 -1767
51911 241674 266225 -6445 14689 -1783
51934 241709 266263 -6437 14714 -1772
51957 241738 266299 -6439 14742 -1761
51980 241770 266311 -6456 14733 -1772
52000 241782 266310 -6468 14725 -1783
52022 241794 266315 -6464 14724 -1775
52047 241826 266347 -6428 14721 -1744
52073 241864 266370 -6469 14706 -1747
52097 241872 266379 -6506 14692 -1740
52127 241892 266381 -6520 14696 -1729
52153 241930 266410 -6510 14699 -1712
52186 241959 266429 -6494 14691 -1701
52209 241957 266429 -6495 14678 -1696
52234 241987 266432 -6496 14678 -1697
52264 242016 266453 -6494 14682 -1717
52300 242078 266518 -6452 14703 -1713
52329 242117 266556 -6470 14684 -1735
52362 242129 266554 -6490 14665 -1744
52400 242212 266629 -6511 14671 -1728
52435 242239 266653 -6505 14690 -1735
52462 242186 266572 -6484 14697 -1762
52469 242033 266392 -6493 14688 -1776
52469 241900 266271 -6515 14673 -1771
52462 241823 266210 -6527 14673 -1767
52449 241756 266163 -6480 14633 -1768
52443 241734 266152 -6486 14634 -1772
52443 241755 266186 -6518 14663 -1776
52450 241790 266220 -6534 14696 -1775
52468 241820 266259 -6517 14705 -1780
52479 241847 266291 -6490 14695 -1779
52488 241854 266268 -6486 14677 -1761
52504 241903 266318 -6489 14663 -1760
52520 241909 266329 -6492 14659 -1767
52532 241886 266276 -6478 14678 -1765
52542 241856 266237 -6460 14706 -1751
52551 241819 266198 -6480 14706 -1761
52553 241785 266162 -6511 14690 -1768
52557 241782 266146 -6520 14663 -1776
52556 241744 266105 -6516 14661 -1801
52555 241703 266037 -6505 14694 -1796
52552 241662 265977 -6504 14710 -1801
52554 241635 265931 -6526 14700 -1811
52563 241622 265903 -6550 14681 -1798
52565 241597 265869 -6557 14669 -1781
52570 241574 265832 -6558 14656 -1751
52580 241578 265828 -6564 14653 -1751
52735 241807 265997 -6385 14727 -1743
52768 241913 266128 -6381 14732 -1753
52802 242002 266211 -6385 14736 -1733
52815 241936 266128 -6418 14721 -1756
52803 241774 265945 -6423 14691 -1765
52791 241648 265849 -6431 14667 -1751
52772 241566 265784 -6453 14650 -1774
52744 241481 265714 -6435 14656 -1788
52725 241438 265661 -6476 14689 -1755
52713 241443 265675 -6492 14702 -1751
52702 241423 265647 -6458 14708 -1779
52688 241369 265576 -6388 14762 -1802
52670 241291 265468 -6293 14842 -1810
52659 241239 265388 -6221 14857 -1822
52657 241220 265339 -6192 14835 -1840
52657 241211 265337 -6190 14829 -1862
52657 241175 265290 -6202 14845 -1864
52656 241135 265244 -6213 14858 -1850
52661 241115 265231 -6237 14826 -1830
52655 241100 265222 -6263 14773 -1826
52648 241097 265220 -6280 14741 -1843
52653 241110 265233 -6299 14742 -1833
52657 241130 265260 -6301 14751 -1808
52659 241124 265254 -6297 14752 -1816
52660 241137 265251 -6292 14753 -1835
52661 241136 265246 -6292 14754 -1833
52666 241136 265235 -6287 14767 -1823
52667 241141 265234 -6251 14790 -1811
52675 241164 265242 -6252 14804 -1807
52685 241159 265220 -6289 14793 -1816
52696 241169 265223 -6325 14767 -1817
52706 241179 265243 -6360 14741 -1809
52719 241204 265248 -6349 14728 -1785
52727 241188 265222 -6333 14729 -1765
52736 241191 265200 -6338 14725 -1769
52746 241200 265210 -6346 14726 -1758
52760 241215 265227 -6337 14737 -1755
52772 241249 265237 -6289 14762 -1750
52787 241263 265259 -6348 14749 -1759
52801 241292 265266 -6390 14721 -1776
52813 241300 265248 -6404 14698 -1795
52831 241329 265278 -6386 14728 -1796
52854 241355 265305 -6381 14745 -1805
52860 241244 265172 -6417 14723 -1828
52844 241057 264980 -6444 14721 -1829
52823 240936 264875 -6456 14721 -1822
52789 240856 264831 -6424 14712 -1828
52751 240796 264793 -6416 14728 -1816
52721 240764 264800 -6455 14759 -1777
52692 240773 264824 -6466 14761 -1772
52669 240777 264852 -6451 14711 -1798
52644 240767 264838 -6422 14677 -1783
52624 240750 264827 -6408 14694 -1738
52603 240727 264787 -6406 14710 -1730
52595 240752 264824 -6400 14716 -1769
52589 240785 264857 -6392 14732 -1814
52579 240759 264809 -6346 14763 -1791
52566 240723 264774 -6359 14767 -1792
52554 240697 264751 -6368 14758 -1822
52540 240685 264739 -6372 14742 -1834
52526 240689 264747 -6395 14734 -1793
52515 240680 264752 -6409 14734 -1763
52502 240692 264761 -6419 14719 -1780
52495 240693 264763 -6440 14704 -1793
52490 240707 264777 -6453 14697 -1811
52489 240734 264797 -6460 14687 -1817
52486 240755 264831 -6454 14707 -1784
52486 240768 264832 -6459 14729 -1778
52482 240776 264847 -6483 14716 -1782
52482 240782 264840 -6508 14683 -1760
52486 240808 264850 -6508 14660 -1740
52493 240822 264864 -6480 14661 -1728
52497 240845 264884 -6463 14675 -1729
52502 240877 264911 -6473 14690 -1741
52512 240879 264916 -6473 14694 -1746
52517 240888 264908 -6454 14691 -1749
52526 240907 264906 -6413 14705 -1739
52533 240919 264908 -6379 14733 -1734
52541 240947 264939 -6397 14740 -1745
52553 240982 264977 -6424 14734 -1750
52566 240999 264987 -6446 14726 -1746
52572 240993 264959 -6438 14731 -1738
52591 241064 265031 -6421 14734 -1731
52613 241074 265026 -6439 14713 -1735
52607 240916 264859 -6459 14707 -1753
52575 240722 264664 -6467 14712 -1760
52533 240597 264566 -6422 14676 -1780
52482 240519 264520 -6466 14700 -1758
52424 240450 264479 -6504 14721 -1712
52370 240408 264445 -6494 14708 -1730
52333 240402 264463 -6427 14699 -1747
52300 240413 264479 -6380 14699 -1744
52274 240415 264497 -6406 14691 -1731
52252 240420 264493 -6425 14696 -1735
52237 240430 264526 -6410 14710 -1775
52223 240468 264566 -6382 14711 -1798
52214 240498 264590 -6377 14704 -1805
52195 240460 264547 -6412 14711 -1793
52180 240439 264517 -6439 14709 -1801
52163 240424 264532 -6452 14691 -1850
52146 240433 264533 -6460 14698 -1865
52130 240431 264547 -6468 14716 -1845
52115 240436 264562 -6459 14712 -1862
52098 240426 264557 -6438 14700 -1893
52088 240444 264567 -6440 14694 -1892
52080 240451 264564 -6439 14702 -1869
52079 240470 264577 -6423 14712 -1849
52075 240475 264597 -6430 14701 -1861
52072 240488 264596 -6463 14690 -1857
52074 240515 264602 -6485 14682 -1826
52076 240528 264612 -6490 14681 -1800
52080 240542 264612 -6469 14687 -1796
52083 240567 264635 -6468 14681 -1808
52088 240606 264667 -6491 14669 -1805
52099 240629 264687 -6496 14670 -1794
52110 240663 264716 -6476 14670 -1804
52120 240688 264743 -6444 14676 -1787
52127 240706 264755 -6437 14685 -1783
52135 240719 264746 -6459 14685 -1802
52145 240716 264733 -6475 14691 -1803
52155 240755 264766 -6480 14708 -1810
52172 240786 264789 -6468 14725 -1801
52179 240796 264757 -6459 14714 -1799
52201 240862 264851 -6477 14697 -1790
52221 240870 264832 -6477 14683 -1789
52223 240728 264682 -6463 14671 -1800
52200 240551 264506 -6419 14696 -1771
52158 240428 264412 -6433 14684 -1794
52105 240348 264361 -6474 14699 -1763
52051 240288 264332 -6497 14715 -1739
52000 240259 264326 -6461 14718 -1760
51952 240269 264340 -6430 14704 -1755
51919 240268 264357 -6433 14687 -1748
51892 240266 264361 -6433 14681 -1762
51868 240279 264350 -6441 14679 -1784
51852 240294 264379 -6406 14707 -1805
51841 240309 264397 -6379 14738 -1832
51831 240306 264382 -6413 14742 -1851
51815 240280 264344 -6438 14724 -1824
51802 240249 264309 -6453 14694 -1807
51784 240222 264285 -6452 14690 -1818
51763 240190 264253 -6458 14706 -1804
51738 240161 264238 -6487 14703 -1806
51721 240157 264226 -6493 14699 -1837
51703 240173 264230 -6484 14703 -1843
51696 240184 264261 -6470 14701 -1812
51692 240217 264282 -6473 14685 -1820
51687 240223 264288 -6484 14673 -1825
51684 240238 264292 -6499 14664 -1821
51687 240262 264322 -6511 14671 -1795
51691 240292 264336 -6504 14686 -1764
51696 240310 264353 -6505 14675 -1752
51702 240325 264350 -6510 14667 -1742
51711 240357 264365 -6505 14666 -1735
51718 240365 264372 -6481 14680 -1727
51725 240378 264363 -6441 14701 -1731
51734 240393 264375 -6437 14702 -1747
51744 240415 264376 -6460 14696 -1760
51755 240434 264393 -6482 14682 -1764
51769 240464 264406 -6492 14675 -1767
51779 240498 264440 -6477 14672 -1772
51793 240547 264487 -6471 14677 -1778
51806 240562 264483 -6485 14675 -1792
51827 240617 264547 -6486 14660 -1797
51856 240680 264614 -6476 14665 -1794
51866 240604 264513 -6456 14701 -1774
51855 240435 264341 -6436 14717 -1777
51821 240301 264234 -6455 14699 -1791
51770 240209 264182 -6491 14700 -1763
51718 240147 264156 -6518 14714 -1716
51659 240114 264143 -6498 14711 -1699
51623 240139 264182 -6464 14694 -1727
51588 240152 264203 -6454 14675 -1736
51560 240148 264193 -6448 14678 -1727
51544 240163 264197 -6447 14697 -1742
51532 240190 264236 -6376 14765 -1794
51528 240239 264282 -6411 14759 -1802
51530 240296 264344 -6440 14729 -1790
51534 240291 264336 -6445 14695 -1788
51525 240267 264299 -6430 14683 -1807
51511 240240 264279 -6438 14702 -1816
51502 240231 264293 -6475 14711 -1813
51489 240245 264290 -6503 14698 -1832
51476 240238 264298 -6519 14685 -1853
51461 240241 264296 -6512 14681 -1829
51449 240238 264288 -6510 14676 -1803
51444 240249 264308 -6531 14680 -1800
51444 240270 264318 -6544 14679 -1810
51448 240289 264331 -6552 14679 -1805
51454 240314 264352 -6542 14688 -1789
51462 240357 264400 -6521 14692 -1776
51472 240383 264397 -6503 14692 -1780
51477 240389 264411 -6499 14676 -1790
51488 240421 264438 -6502 14661 -1775
51497 240454 264461 -6479 14665 -1754
51512 240482 264491 -6450 14673 -1752
51521 240503 264492 -6446 14677 -1769
51536 240527 264501 -6465 14686 -1773
51553 240553 264512 -6484 14685 -1770
51564 240578 264532 -6477 14689 -1762
51578 240607 264569 -6461 14712 -1766
51588 240614 264547 -6465 14716 -1793
51602 240638 264548 -6479 14693 -1802
51630 240718 264643 -6490 14675 -1790
51656 240712 264617 -6488 14688 -1776
51662 240559 264445 -6461 14706 -1775
51642 240397 264297 -6433 14693 -1794
51610 240296 264222 -6453 14702 -1790
51566 240225 264190 -6490 14723 -1747
51516 240172 264147 -6484 14717 -1726
51473 240151 264146 -6448 14706 -1749
51445 240173 264175 -6432 14693 -1761
51429 240200 264215 -6442 14682 -1753
51417 240222 264227 -6449 14687 -1771
51400 240220 264215 -6441 14705 -1811
51391 240241 264235 -6389 14746 -1838
51399 240292 264294 -6443 14725 -1836
51402 240291 264291 -6458 14700 -1828
51405 240269 264269 -6457 14686 -1830
51404 240249 264231 -6448 14703 -1822
51401 240240 264218 -6442 14719 -1815
51396 240214 264200 -6455 14720 -1833
51392 240218 264204 -6468 14719 -1860
51392 240235 264215 -6478 14709 -1847
51395 240249 264224 -6455 14664 -1786
51403 240271 264250 -6464 14672 -1784
51415 240303 264264 -6479 14682 -1778
51421 240309 264282 -6482 14685 -1768
51433 240333 264288 -6479 14696 -1756
51448 240355 264303 -6478 14693 -1746
51462 240368 264313 -6471 14685 -1752
51484 240380 264316 -6466 14679 -1761
51511 240426 264347 -6467 14686 -1774
51538 240457 264375 -6444 14703 -1775
51563 240479 264386 -6399 14709 -1772
51584 240481 264376 -6399 14705 -1798
51606 240494 264370 -6435 14696 -1829
51630 240516 264380 -6459 14692 -1836
51655 240557 264417 -6457 14697 -1841
51678 240575 264429 -6443 14707 -1841
51695 240559 264378 -6455 14699 -1829
51720 240599 264403 -6473 14685 -1832
51752 240643 264446 -6480 14694 -1825
51771 240572 264361 -6396 14700 -1833
51764 240388 264161 -6430 14717 -1813
51744 240238 264024 -6469 14736 -1783
51715 240138 263954 -6466 14726 -1789
51683 240084 263930 -6429 14716 -1802
51654 240063 263924 -6380 14718 -1793
51635 240061 263919 -6368 14710 -1797
51626 240078 263950 -6379 14711 -1818
51620 240092 263961 -6379 14739 -1836
51622 240107 263983 -6371 14775 -1848
51627 240138 264008 -6407 14734 -1846
51638 240165 264043 -6431 14702 -1855
51651 240203 264072 -6440 14690 -1858
51660 240190 264049 -6449 14702 -1851
51670 240171 264024 -6431 14741 -1832
51679 240163 264021 -6405 14767 -1837
51680 240138 263996 -6416 14753 -1846
51680 240123 263982 -6437 14718 -1836
51683 240113 263964 -6445 14695 -1822
51692 240122 263978 -6420 14692 -1803
51696 240148 263996 -6420 14696 -1782
51705 240162 264003 -6440 14699 -1781
51709 240170 263996 -6455 14699 -1774
51723 240164 263980 -6460 14690 -1760
51740 240182 263986 -6434 14702 -1749
51759 240227 264031 -6420 14706 -1743
51782 240251 264060 -6431 14696 -1759
51803 240280 264079 -6432 14693 -1759
51822 240309 264094 -6418 14696 -1755
51845 240325 264107 -6393 14717 -1759
51868 240350 264121 -6398 14736 -1751
51890 240373 264138 -6426 14736 -1750
51917 240398 264146 -6433 14713 -1780
51946 240438 264190 -6445 14692 -1801
51974 240463 264199 -6436 14700 -1788
52002 240466 264182 -6417 14729 -1771
52028 240502 264223 -6431 14736 -1786
52064 240539 264254 -6437 14702 -1824
52091 240473 264154 -6448 14686 -1824
52087 240297 263966 -6443 14765 -1762
52072 240160 263847 -6431 14744 -1784
52059 240070 263788 -6410 14722 -1786
52031 240013 263748 -6404 14715 -1753
52008 239973 263730 -6375 14718 -1755
51999 239994 263766 -6336 14722 -1784
51996 240023 263797 -6339 14738 -1805
51993 240035 263813 -6362 14746 -1809
51998 240056 263822 -6385 14737 -1801
51999 240059 263825 -6373 14724 -1767
52014 240096 263845 -6407 14721 -1770
52031 240125 263870 -6423 14731 -1784
52044 240115 263862 -6428 14739 -1803
52049 240085 263823 -6421 14744 -1828
52050 240048 263795 -6393 14744 -1817
52052 240020 263754 -6390 14734 -1791
52054 240006 263730 -6426 14709 -1786
52057 240000 263727 -6454 14701 -1785
52065 240002 263727 -6453 14716 -1782
52070 240020 263737 -6424 14721 -1777
52080 240037 263752 -6417 14715 -1781
52087 240030 263733 -6426 14719 -1767
52102 240048 263754 -6425 14716 -1744
52118 240077 263773 -6424 14709 -1745
52140 240109 263783 -6390 14724 -1750
52156 240127 263804 -6366 14739 -1748
52174 240134 263798 -6387 14736 -1758
52193 240137 263800 -6402 14742 -1778
52213 240155 263798 -6394 14751 -1784
52236 240174 263820 -6370 14750 -1785
52254 240211 263834 -6371 14739 -1795
52273 240230 263854 -6399 14716 -1803
52299 240268 263901 -6415 14719 -1803
52320 240283 263910 -6422 14739 -1810
52343 240299 263888 -6419 14742 -1826
52368 240336 263937 -6404 14725 -1844
52395 240349 263946 -6413 14717 -1838
52402 240235 263810 -6433 14722 -1800
52396 240074 263656 -6438 14730 -1783
52383 239965 263561 -6401 14739 -1786
52361 239893 263523 -6360 14732 -1776
52341 239832 263489 -6357 14721 -1758
52321 239823 263491 -6362 14720 -1752
52310 239840 263518 -6357 14724 -1774
52301 239846 263523 -6351 14749 -1789
52289 239838 263521 -6356 14777 -1784
52286 239830 263502 -6372 14768 -1783
52281 239835 263498 -6395 14730 -1784
52283 239859 263538 -6402 14703 -1795
52291 239869 263548 -6368 14755 -1776
52293 239846 263516 -6398 14748 -1785
52295 239821 263491 -6416 14734 -1791
52292 239799 263467 -6410 14729 -1783
52287 239771 263455 -6419 14720 -1765
52283 239772 263450 -6425 14716 -1760
52279 239782 263480 -6440 14705 -1767
52281 239807 263501 -6461 14696 -1772
52285 239824 263519 -6460 14696 -1777
52285 239836 263539 -6431 14689 -1736
52293 239859 263559 -6431 14693 -1733
52300 239879 263569 -6434 14699 -1740
52309 239885 263582 -6429 14698 -1743
52315 239906 263585 -6426 14697 -1756
52326 239923 263597 -6403 14708 -1762
52331 239932 263597 -6386 14715 -1763
52345 239947 263615 -6409 14694 -1772
52359 239971 263632 -6429 14682 -1778
52368 239990 263651 -6427 14692 -1775
52379 240017 263682 -6395 14711 -1782
52387 240031 263678 -6401 14737 -1801
52397 240060 263708 -6420 14755 -1814
52406 240064 263703 -6403 14746 -1829
52415 240048 263656 -6398 14734 -1838
52432 240083 263698 -6404 14751 -1812
52453 240085 263688 -6417 14760 -1771
52454 239946 263527 -6428 14728 -1779
52439 239782 263362 -6418 14696 -1798
52407 239637 263239 -6396 14694 -1789
52372 239544 263176 -6357 14698 -1758
52337 239506 263151 -6345 14696 -1760
52307 239487 263172 -6375 14705 -1804
52284 239512 263194 -6394 14716 -1824
52264 239516 263198 -6413 14716 -1820
52242 239499 263196 -6421 14724 -1795
52222 239480 263169 -6424 14709 -1794
52206 239493 263198 -6437 14688 -1819
52200 239533 263242 -6450 14708 -1820
52190 239527 263228 -6452 14725 -1818
52180 239487 263192 -6357 14698 -1758
52170 239459 263155 -6345 14696 -1760
52157 239427 263131 -6375 14705 -1804
52138 239415 263131 -6394 14716 -1824
52123 239412 263128 -6413 14716 -1820
52105 239410 263123 -6421 14724 -1795
52090 239403 263118 -6424 14709 -1794
52075 239397 263108 -6437 14688 -1819
52060 239393 263092 -6450 14708 -1820
52050 239382 263089 -6452 14725 -1818
52040 239401 263102 -6387 14722 -1805
52034 239399 263102 -6414 14708 -1810
52030 239410 263099 -6440 14690 -1805
52029 239431 263124 -6458 14696 -1801
52028 239445 263125 -6452 14709 -1795
52027 239453 263133 -6430 14735 -1784
52030 239465 263148 -6427 14749 -1772
52033 239493 263161 -6445 14735 -1763
52041 239496 263151 -6449 14716 -1774
52043 239496 263158 -6422 14707 -1763
52048 239509 263166 -6404 14699 -1739
52048 239514 263154 -6407 14693 -1748
52049 239494 263097 -6406 14699 -1769
52056 239492 263097 -6419 14710 -1779
52070 239542 263146 -6441 14716 -1775
52080 239480 263075 -6429 14720 -1785
52069 239321 262897 -6402 14729 -1804
52036 239163 262747 -6411 14728 -1791
51995 239044 262661 -6437 14708 -1781
51942 238962 262589 -6407 14705 -1762
51894 238910 262575 -6401 14720 -1777
51855 238896 262578 -6392 14712 -1825
51828 238909 262582 -6404 14724 -1832
51808 238908 262591 -6444 14741 -1789
51789 238918 262609 -6455 14733 -1775
51774 238921 262614 -6416 14713 -1791
51767 238944 262630 -6387 14698 -1787
51758 238971 262670 -6384 14695 -1776
51747 238949 262643 -6360 14700 -1786
51729 238916 262605 -6304 14730 -1794
51714 238879 262574 -6294 14766 -1800
51698 238854 262560 -6333 14762 -1817
51680 238842 262544 -6367 14738 -1821
51660 238841 262550 -6392 14720 -1805
51647 238853 262550 -6395 14718 -1796
51631 238833 262538 -6377 14742 -1787
51619 238824 262518 -6376 14752 -1779
51611 238826 262503 -6405 14752 -1793
51605 238820 262502 -6416 14753 -1813
51603 238831 262505 -6393 14754 -1805
51602 238838 262507 -6398 14727 -1789
51600 238837 262503 -6434 14692 -1778
51603 238854 262521 -6460 14693 -1774
51610 238890 262550 -6473 14703 -1777
51616 238920 262582 -6469 14715 -1776
51620 238945 262619 -6445 14732 -1763
51624 238954 262628 -6426 14728 -1739
51625 238958 262618 -6436 14709 -1726
51628 238980 262625 -6438 14708 -1724
51637 238999 262660 -6363 14734 -1737
51645 239042 262695 -6359 14728 -1759
51648 239032 262673 -6371 14710 -1771
51653 239046 262673 -6393 14708 -1777
51670 239105 262741 -6420 14711 -1768
51683 239086 262708 -6415 14716 -1762
51665 238932 262546 -6388 14721 -1766
51628 238770 262404 -6393 14705 -1766
51576 238655 262315 -6423 14697 -1769
51519 238580 262266 -6401 14737 -1778
51458 238539 262240 -6398 14699 -1806
51412 238510 262236 -6438 14706 -1777
51372 238501 262244 -6470 14744 -1733
51335 238485 262229 -6468 14749 -1719
51306 238491 262235 -6430 14722 -1740
51275 238471 262213 -6383 14715 -1747
51256 238468 262216 -6372 14726 -1735
51242 238497 262256 -6379 14734 -1754
51225 238479 262230 -6355 14750 -1772
51205 238423 262161 -6329 14782 -1778
51183 238389 262135 -6352 14775 -1789
51165 238382 262133 -6387 14742 -1786
51145 238372 262127 -6401 14724 -1764
51127 238373 262131 -6397 14717 -1772
51112 238380 262153 -6383 14732 -1789
51103 238409 262192 -6367 14769 -1778
51094 238417 262198 -6371 14779 -1774
51085 238420 262202 -6398 14753 -1779
51082 238436 262214 -6408 14726 -1773
51079 238448 262216 -6386 14722 -1759
51077 238456 262231 -6389 14718 -1746
51075 238478 262235 -6418 14701 -1740
51073 238478 262233 -6433 14700 -1746
51074 238490 262232 -6446 14709 -1753
51075 238492 262234 -6453 14721 -1752
51080 238508 262226 -6427 14742 -1748
51081 238509 262237 -6402 14745 -1735
51091 238527 262245 -6409 14727 -1721
51098 238540 262239 -6413 14715 -1720
51107 238558 262275 -6347 14727 -1703
51121 238603 262313 -6370 14721 -1713
51133 238628 262324 -6409 14719 -1723
51149 238638 262329 -6433 14718 -1720
51168 238711 262399 -6434 14731 -1728
51184 238701 262382 -6398 14749 -1736
51177 238563 262232 -6374 14742 -1725
51149 238409 262090 -6392 14732 -1733
51098 238291 262008 -6419 14729 -1739
51039 238210 261943 -6359 14718 -1753
50986 238163 261915 -6390 14721 -1764
50938 238150 261919 -6433 14739 -1746
50899 238155 261939 -6428 14732 -1747
50863 238141 261935 -6413 14714 -1752
50837 238129 261933 -6388 14720 -1735
50810 238097 261893 -6347 14737 -1719
50790 238100 261898 -6337 14741 -1736
50776 238119 261929 -6350 14743 -1769
50763 238104 261921 -6319 14785 -1768
50746 238076 261873 -6353 14767 -1748
50731 238057 261864 -6379 14735 -1724
50710 238032 261857 -6389 14722 -1735
50693 238030 261844 -6408 14722 -1739
50678 238019 261846 -6409 14744 -1714
50662 238015 261838 -6390 14780 -1719
50647 238014 261829 -6387 14781 -1733
50638 238024 261841 -6414 14751 -1719
50636 238031 261845 -6419 14736 -1694
50637 238042 261853 -6396 14743 -1682
50639 238058 261861 -6395 14737 -1693
50643 238070 261866 -6418 14725 -1699
50647 238090 261892 -6430 14714 -1700
50653 238122 261918 -6425 14711 -1695
50658 238147 261925 -6415 14715 -1673
50662 238135 261901 -6390 14724 -1650
50670 238161 261926 -6382 14719 -1643
50685 238188 261948 -6404 14717 -1632
50702 238214 261970 -6398 14738 -1627
50717 238233 261990 -6357 14741 -1636
50729 238252 261990 -6340 14738 -1647
50739 238265 261997 -6357 14733 -1672
50757 238288 262016 -6377 14731 -1697
50768 238284 261987 -6390 14735 -1703
50782 238281 261965 -6405 14732 -1696
50809 238340 262025 -6396 14744 -1693
50835 238330 262009 -6381 14749 -1699
50838 238202 261874 -6398 14739 -1709
50811 238039 261722 -6409 14745 -1712
50770 237930 261646 -6317 14744 -1733
50723 237871 261616 -6359 14742 -1724
50684 237857 261626 -6410 14756 -1687
50659 237869 261654 -6415 14754 -1686
50636 237880 261676 -6404 14731 -1709
50621 237876 261673 -6370 14724 -1693
50607 237876 261685 -6323 14732 -1686
50595 237869 261665 -6315 14746 -1714
50592 237888 261689 -6328 14757 -1744
50595 237933 261745 -6307 14793 -1750
50593 237939 261746 -6338 14781 -1740
50589 237916 261721 -6365 14750 -1740
50587 237896 261697 -6382 14724 -1759
50581 237882 261686 -6391 14722 -1770
50574 237864 261672 -6385 14742 -1747
50570 237859 261656 -6368 14768 -1736
50568 237857 261662 -6372 14770 -1733
50571 237865 261671 -6400 14747 -1731
50572 237848 261634 -6402 14717 -1735
50575 237812 261569 -6372 14716 -1731
50574 237765 261492 -6365 14740 -1724
50578 237743 261440 -6385 14747 -1722
50586 237721 261409 -6411 14740 -1701
50598 237737 261425 -6429 14729 -1688
50611 237773 261456 -6421 14724 -1682
50629 237802 261478 -6391 14723 -1661
50648 237826 261501 -6379 14722 -1665
50667 237847 261505 -6396 14727 -1675
50693 237895 261539 -6398 14735 -1680
50723 237946 261599 -6374 14744 -1682
50756 238001 261646 -6369 14753 -1676
50786 238040 261687 -6394 14754 -1682
50806 238067 261691 -6399 14745 -1697
50832 238117 261735 -6397 14745 -1704
50861 238159 261773 -6397 14760 -1700
50894 238212 261832 -6377 14776 -1697
50939 238315 261944 -6370 14768 -1706
50977 238328 261948 -6388 14741 -1726
50989 238205 261823 -6401 14725 -1728
50980 238078 261699 -6327 14719 -1743
50964 238007 261655 -6385 14735 -1719
50944 237978 261660 -6426 14734 -1692
50929 237993 261701 -6432 14715 -1706
50923 238009 261730 -6407 14711 -1738
50922 238039 261763 -6352 14721 -1731
50927 238058 261795 -6316 14719 -1706
50929 238078 261809 -6328 14724 -1704
50923 238056 261769 -6334 14743 -1738
50921 238000 261683 -6330 14788 -1757
50911 237903 261536 -6370 14769 -1750
50903 237814 261422 -6411 14715 -1743
50894 237722 261288 -6435 14670 -1762
50887 237640 261191 -6456 14653 -1778
50878 237616 261165 -6475 14692 -1750
50863 237577 261122 -6450 14773 -1734
50829 237466 260988 -6422 14818 -1767
50785 237291 260743 -6446 14806 -1785
50739 237096 260485 -6479 14777 -1757
50721 237015 260364 -6478 14764 -1722
50731 237070 260423 -6482 14723 -1697
50752 237150 260527 -6505 14679 -1694
50778 237215 260593 -6514 14663 -1721
50807 237296 260676 -6522 14655 -1729
50837 237356 260738 -6523 14646 -1702
50847 237352 260722 -6509 14634 -1683
50859 237341 260697 -6502 14641 -1685
50867 237365 260717 -6499 14659 -1694
50885 237395 260735 -6486 14682 -1703
50906 237431 260776 -6475 14683 -1696
50928 237474 260824 -6484 14681 -1695
50947 237484 260819 -6498 14703 -1711
50973 237503 260838 -6502 14706 -1728
51007 237559 260891 -6508 14696 -1746
51039 237635 260981 -6512 14692 -1745
51081 237737 261090 -6492 14683 -1735
51126 237870 261251 -6491 14674 -1737
51170 238027 261433 -6506 14660 -1754
51203 238069 261447 -6507 14657 -1763
51217 237926 261282 -6484 14654 -1763
51208 237742 261090 -6465 14643 -1779
51156 237465 260785 -6498 14665 -1750
51076 237143 260387 -6533 14691 -1683
51014 236935 260168 -6524 14683 -1679
50985 236944 260189 -6502 14670 -1710
50973 236993 260264 -6503 14658 -1708
50997 237176 260510 -6538 14634 -1697
51093 237706 261225 -6600 14585 -1723
51158 238063 261682 -6625 14583 -1739
51169 238161 261804 -6681 14702 -1769
51170 238230 261866 -6692 14677 -1785
51172 238253 261906 -6670 14658 -1777
51169 238203 261844 -6645 14701 -1802
51167 238140 261753 -6644 14736 -1798
51175 238108 261697 -6698 14676 -1727
51174 237953 261474 -6768 14593 -1669
51164 237693 261097 -6790 14563 -1659
51170 237498 260843 -6786 14534 -1644
51199 237436 260736 -6817 14467 -1607
51231 237398 260678 -6876 14436 -1591
51266 237417 260678 -6896 14470 -1625
51299 237407 260649 -6883 14525 -1655
51330 237460 260704 -6878 14559 -1659
51367 237547 260812 -6864 14591 -1645
51417 237723 261050 -6846 14606 -1636
51471 237946 261344 -6850 14583 -1633
51531 238164 261614 -6825 14557 -1635
51591 238401 261920 -6801 14531 -1626
51648 238619 262193 -6818 14521 -1593
51702 238800 262418 -6847 14514 -1599
51739 238878 262491 -6853 14500 -1629
51768 238888 262472 -6871 14504 -1642
51794 238888 262439 -6905 14536 -1648
51825 238891 262424 -6898 14588 -1664
51866 238945 262472 -6884 14598 -1679
51915 239023 262554 -6902 14558 -1680
51966 239085 262627 -6909 14545 -1674
52006 239103 262666 -6910 14555 -1668
52017 238989 262543 -6889 14510 -1680
51992 238765 262295 -6898 14477 -1676
51961 238589 262124 -6957 14489 -1630
51942 238508 262045 -6961 14510 -1583
51933 238484 262024 -6916 14535 -1591
51933 238496 262057 -6872 14541 -1623
51944 238546 262102 -6843 14537 -1628
51950 238556 262120 -6833 14535 -1623
51953 238550 262099 -6817 14548 -1627
51948 238519 262055 -6781 14561 -1640
51941 238489 262010 -6773 14582 -1644
51946 238499 262019 -6831 14562 -1634
51950 238474 261969 -6810 14559 -1661
51954 238406 261892 -6781 14569 -1699
51952 238374 261835 -6779 14572 -1676
51957 238340 261810 -6791 14578 -1658
51947 238290 261768 -6803 14566 -1679
51939 238266 261718 -6818 14553 -1677
51944 238246 261693 -6815 14569 -1676
51954 238258 261709 -6814 14583 -1666
51963 238264 261709 -6827 14569 -1659
51975 238275 261724 -6840 14556 -1652
51980 238290 261722 -6839 14562 -1630
51988 238279 261721 -6832 14561 -1611
52004 238295 261714 -6821 14552 -1610
52018 238322 261737 -6799 14543 -1616
52035 238362 261773 -6800 14534 -1619
52050 238376 261793 -6806 14529 -1625
52067 238390 261793 -6790 14538 -1634
52079 238398 261784 -6778 14552 -1640
52091 238412 261798 -6783 14585 -1642
52108 238426 261804 -6777 14576 -1639
52122 238432 261778 -6754 14586 -1655
52144 238470 261808 -6735 14599 -1673
52172 238512 261861 -6718 14572 -1694
52192 238497 261856 -6717 14556 -1705
52190 238393 261743 -6762 14577 -1691
52170 238285 261677 -6786 14599 -1678
52138 238211 261635 -6772 14611 -1679
52111 238190 261643 -6754 14600 -1681
52083 238170 261643 -6740 14565 -1693
52065 238199 261683 -6720 14541 -1707
52053 238204 261690 -6695 14549 -1713
52039 238201 261682 -6676 14576 -1728
52029 238196 261681 -6670 14611 -1734
52025 238205 261697 -6685 14627 -1738
52024 238244 261738 -6713 14632 -1732
52028 238271 261760 -6725 14628 -1733
52031 238266 261766 -6703 14608 -1755
52026 238263 261753 -6692 14608 -1758
52019 238249 261743 -6714 14604 -1743
52011 238243 261749 -6733 14595 -1725
52006 238243 261757 -6728 14594 -1729
52001 238259 261783 -6717 14584 -1731
52000 238287 261796 -6723 14578 -1714
52004 238325 261846 -6740 14582 -1701
52007 238360 261884 -6768 14559 -1694
52011 238382 261908 -6785 14551 -1695
52013 238399 261916 -6775 14577 -1693
52020 238413 261923 -6759 14578 -1689
52031 238432 261931 -6758 14553 -1660
52034 238445 261928 -6729 14568 -1655
52043 238457 261937 -6711 14580 -1662
52056 238499 261978 -6697 14577 -1676
52076 238556 262041 -6688 14578 -1694
52087 238571 262041 -6710 14596 -1700
52101 238629 262097 -6733 14599 -1703
52123 238705 262182 -6718 14573 -1726
52134 238705 262191 -6708 14570 -1744
52122 238575 262060 -6760 14618 -1710
52092 238433 261932 -6734 14618 -1720
52053 238318 261839 -6709 14601 -1745
52008 238242 261782 -6686 14586 -1744
51977 238243 261801 -6660 14577 -1743
51951 238257 261833 -6644 14586 -1752
51930 238264 261842 -6662 14625 -1734
51916 238267 261839 -6674 14650 -1749
51900 238257 261820 -6676 14645 -1781
51886 238261 261815 -6676 14616 -1782
51884 238286 261840 -6686 14599 -1783
51878 238281 261835 -6694 14607 -1776
51872 238268 261800 -6689 14622 -1764
51858 238230 261740 -6686 14632 -1770
51842 238182 261712 -6690 14624 -1794
51828 238171 261701 -6711 14606 -1792
51819 238188 261719 -6735 14578 -1766
51815 238211 261748 -6742 14562 -1762
51817 238248 261788 -6746 14568 -1751
51817 238275 261822 -6757 14563 -1736
51821 238318 261866 -6774 14550 -1729
51830 238353 261908 -6784 14554 -1725
51830 238378 261925 -6783 14557 -1724
51835 238417 261942 -6781 14563 -1720
51843 238456 261979 -6762 14567 -1729
51850 238476 262002 -6749 14555 -1726
51860 238506 262025 -6761 14540 -1707
51869 238562 262091 -6753 14548 -1712
51878 238567 262078 -6741 14563 -1716
51885 238573 262057 -6729 14574 -1717
51908 238642 262130 -6726 14536 -1743
51930 238662 262152 -6740 14572 -1741
51928 238539 262032 -6751 14609 -1707
51903 238397 261883 -6745 14606 -1715
51864 238292 261815 -6726 14588 -1757
51813 238220 261768 -6724 14586 -1755
51767 238179 261744 -6732 14579 -1729
51734 238195 261781 -6707 14590 -1729
51708 238213 261810 -6682 14623 -1732
51685 238238 261833 -6676 14646 -1731
51668 238248 261859 -6674 14658 -1743
51650 238237 261847 -6682 14644 -1746
51633 238256 261853 -6687 14615 -1747
51621 238283 261900 -6675 14594 -1760
51605 238270 261865 -6678 14600 -1734
51593 238246 261833 -6697 14621 -1723
51581 238235 261837 -6708 14620 -1744
51567 238237 261836 -6706 14602 -1745
51561 238265 261895 -6707 14589 -1719
51554 238306 261933 -6741 14581 -1700
51545 238344 261979 -6737 14582 -1703
51548 238404 262030 -6730 14585 -1699
51555 238450 262090 -6736 14572 -1694
51562 238500 262156 -6742 14558 -1686
51573 238554 262203 -6749 14557 -1677
51579 238585 262226 -6748 14579 -1678
51586 238606 262244 -6728 14596 -1687
51590 238642 262270 -6710 14592 -1696
51596 238656 262285 -6695 14589 -1686
51599 238671 262303 -6678 14595 -1680
51608 238697 262317 -6673 14594 -1679
51622 238741 262358 -6673 14595 -1691
51635 238778 262380 -6690 14593 -1695
51653 238791 262380 -6692 14581 -1697
51674 238861 262454 -6695 14589 -1713
51692 238868 262466 -6747 14629 -1692
51681 238715 262304 -6770 14652 -1677
51644 238551 262136 -6738 14613 -1711
51591 238449 262084 -6711 14570 -1735
51543 238403 262074 -6717 14549 -1723
51498 238380 262078 -6716 14551 -1705
51458 238392 262107 -6690 14576 -1703
51428 238412 262145 -6673 14602 -1718
51394 238405 262128 -6671 14624 -1739
51369 238393 262138 -6675 14633 -1749
51345 238391 262120 -6693 14620 -1731
51328 238394 262122 -6700 14601 -1725
51321 238433 262162 -6692 14592 -1750
51310 238420 262148 -6708 14601 -1739
51298 238390 262120 -6733 14615 -1722
51283 238368 262098 -6736 14604 -1725
51270 238359 262095 -6730 14590 -1728
51260 238363 262093 -6723 14589 -1744
51249 238377 262126 -6723 14588 -1754
51242 238387 262133 -6734 14588 -1751
51235 238410 262145 -6751 14589 -1752
51231 238426 262172 -6763 14590 -1754
51228 238427 262167 -6761 14597 -1737
51227 238439 262147 -6754 14596 -1726
51236 238453 262157 -6747 14554 -1707
51242 238483 262175 -6737 14556 -1724
51252 238502 262205 -6722 14571 -1727
51265 238547 262248 -6709 14580 -1734
51280 238580 262279 -6690 14589 -1753
51288 238603 262293 -6698 14589 -1747
51297 238625 262299 -6729 14571 -1724
51313 238646 262321 -6727 14565 -1720
51333 238701 262373 -6704 14571 -1738
51355 238734 262392 -6693 14568 -1734
51381 238771 262431 -6702 14571 -1735
51414 238835 262510 -6724 14605 -1735
51428 238782 262465 -6734 14645 -1709
51406 238610 262282 -6716 14660 -1722
51363 238440 262126 -6684 14642 -1743
51316 238354 262068 -6650 14617 -1738
51271 238328 262088 -6630 14590 -1714
51241 238327 262110 -6630 14580 -1707
51217 238338 262127 -6636 14600 -1734
51197 238358 262155 -6655 14617 -1751
51187 238383 262188 -6705 14606 -1749
51171 238385 262191 -6732 14594 -1741
51162 238394 262219 -6715 14593 -1759
51161 238435 262258 -6693 14595 -1799
51162 238458 262298 -6680 14611 -1801
51157 238448 262284 -6684 14619 -1779
51153 238423 262242 -6705 14627 -1766
51151 238419 262237 -6716 14629 -1759
51149 238415 262238 -6721 14604 -1763
51152 238444 262273 -6738 14572 -1776
51155 238488 262318 -6798 14545 -1771
51159 238506 262331 -6850 14550 -1754
51162 238504 262324 -6827 14565 -1764
51164 238503 262323 -6801 14565 -1786
51153 238479 262268 -6792 14559 -1775
51138 238429 262208 -6770 14548 -1762
51142 238423 262200 -6773 14537 -1767
51156 238464 262224 -6778 14541 -1774
51181 238512 262264 -6753 14563 -1785
51213 238568 262317 -6741 14575 -1789
51246 238633 262399 -6798 14528 -1764
51284 238714 262480 -6795 14530 -1770
51322 238773 262544 -6766 14546 -1794
51358 238835 262601 -6756 14561 -1821
51395 238911 262685 -6767 14573 -1809
51426 238978 262749 -6779 14581 -1789
51449 238984 262734 -6775 14556 -1798
51482 239047 262783 -6777 14564 -1801
51519 239078 262821 -6776 14603 -1761
51533 238975 262711 -6741 14594 -1788
51526 238803 262555 -6707 14590 -1794
51501 238679 262423 -6681 14583 -1787
51468 238606 262374 -6676 14585 -1785
51440 238570 262366 -6675 14600 -1786
51421 238574 262397 -6690 14615 -1779
51413 238608 262422 -6727 14614 -1766
51410 238612 262438 -6748 14616 -1757
51409 238625 262451 -6738 14600 -1756
51406 238610 262426 -6734 14558 -1758
51410 238635 262444 -6756 14539 -1730
51424 238699 262518 -6769 14547 -1697
51438 238708 262522 -6760 14577 -1710
51443 238684 262492 -6747 14602 -1726
51448 238663 262471 -6730 14615 -1730
51449 238654 262453 -6738 14612 -1724
51459 238656 262464 -6771 14588 -1696
51466 238669 262483 -6790 14570 -1672
51476 238692 262494 -6777 14571 -1671
51483 238701 262505 -6761 14577 -1669
51496 238719 262507 -6770 14571 -1657
51508 238738 262525 -6772 14570 -1639
51531 238766 262545 -6743 14570 -1625
51555 238806 262566 -6713 14558 -1628
51581 238856 262619 -6693 14558 -1635
51604 238885 262655 -6683 14564 -1647
51628 238924 262686 -6692 14583 -1663
51653 238949 262702 -6705 14606 -1672
51677 238982 262723 -6699 14610 -1691
51700 239000 262733 -6691 14608 -1718
51720 239043 262770 -6720 14602 -1697
51741 239059 262760 -6742 14562 -1692
51757 239051 262719 -6738 14519 -1728
51788 239121 262799 -6763 14541 -1721
51826 239167 262847 -6790 14596 -1711
51850 239113 262768 -6792 14621 -1719
51855 238958 262613 -6790 14607 -1736
51850 238838 262511 -6778 14582 -1744
51833 238752 262426 -6759 14557 -1734
51817 238691 262403 -6733 14547 -1743
51804 238701 262419 -6717 14579 -1761
51799 238727 262454 -6727 14594 -1759
51803 238754 262493 -6730 14610 -1766
51808 238784 262527 -6720 14593 -1781
51811 238786 262513 -6705 14574 -1800
51819 238814 262538 -6724 14585 -1787
51836 238878 262606 -6755 14592 -1765
51845 238870 262574 -6753 14599 -1782
51856 238847 262542 -6734 14600 -1804
51862 238821 262513 -6735 14577 -1792
51867 238810 262501 -6766 14564 -1768
51883 238831 262533 -6782 14574 -1763
51893 238866 262566 -6780 14578 -1783
51905 238879 262585 -6777 14580 -1794
51920 238900 262605 -6765 14587 -1780
51931 238924 262609 -6769 14578 -1753
51950 238961 262633 -6789 14552 -1728
51970 238987 262660 -6781 14547 -1733
51993 239015 262677 -6750 14563 -1740
52014 239052 262721 -6738 14575 -1729
52039 239088 262738 -6745 14574 -1706
52061 239113 262761 -6742 14574 -1702
52084 239149 262783 -6733 14582 -1713
52108 239180 262803 -6727 14578 -1715
52133 239224 262835 -6720 14579 -1699
52164 239286 262895 -6720 14580 -1681
52192 239306 262919 -6724 14542 -1704
52221 239338 262921 -6745 14533 -1727
52257 239418 263003 -6767 14591 -1720
52288 239421 262994 -6768 14626 -1701
52298 239289 262846 -6745 14574 -1706
52293 239139 262709 -6742 14574 -1702
52279 239032 262625 -6733 14582 -1713
52270 238961 262572 -6727 14578 -1715
52268 238965 262611 -6720 14579 -1699
52271 239039 262697 -6720 14580 -1681
52279 239084 262757 -6724 14542 -1704
52282 239097 262782 -6745 14533 -1727
52289 239122 262802 -6767 14591 -1720
52289 239116 262785 -6768 14626 -1701
52301 239135 262799 -6768 14570 -1695
52316 239201 262861 -6762 14546 -1685
52327 239200 262866 -6734 14527 -1714
52327 239173 262823 -6692 14537 -1759
52333 239151 262795 -6685 14577 -1777
52346 239178 262825 -6694 14629 -1790
52361 239220 262892 -6691 14677 -1804
52375 239264 262940 -6688 14680 -1798
52393 239310 262998 -6683 14643 -1786
52408 239350 263038 -6682 14621 -1780
52420 239380 263073 -6691 14627 -1762
52435 239406 263086 -6706 14632 -1736
52449 239427 263079 -6726 14600 -1737
52463 239453 263106 -6740 14556 -1742
52483 239497 263155 -6750 14543 -1746
52503 239544 263195 -6779 14542 -1744
52522 239577 263219 -6790 14555 -1736
52544 239605 263242 -6768 14592 -1748
52565 239628 263252 -6740 14624 -1754
52583 239650 263270 -6748 14602 -1720
52610 239674 263293 -6745 14571 -1718
52629 239711 263326 -6716 14563 -1735
52654 239757 263359 -6697 14573 -1747
52669 239763 263342 -6696 14589 -1755
52690 239773 263337 -6718 14613 -1752
52721 239840 263412 -6737 14633 -1746
52739 239780 263335 -6734 14634 -1747
52732 239601 263147 -6720 14607 -1746
52715 239452 263008 -6724 14570 -1741
52693 239350 262937 -6752 14554 -1734
52671 239304 262917 -6755 14565 -1743
52655 239296 262927 -6719 14573 -1772
52643 239318 262957 -6692 14569 -1803
52632 239328 262973 -6701 14601 -1791
52618 239321 262980 -6734 14638 -1755
52608 239327 262989 -6757 14638 -1746
52597 239308 262978 -6742 14616 -1751
52594 239332 263008 -6716 14586 -1751
52598 239389 263062 -6706 14565 -1749
52594 239382 263059 -6702 14562 -1738
52592 239346 263030 -6700 14584 -1733
52586 239330 263012 -6687 14610 -1746
52581 239341 263012 -6677 14623 -1757
52572 239342 263024 -6684 14617 -1763
52571 239351 263040 -6693 14604 -1758
52569 239356 263042 -6711 14582 -1759
52569 239367 263060 -6721 14563 -1757
52573 239383 263080 -6716 14584 -1746
52574 239416 263103 -6717 14611 -1744
52583 239437 263117 -6738 14574 -1743
52589 239455 263124 -6736 14551 -1731
52599 239490 263153 -6735 14567 -1734
52614 239518 263190 -6748 14578 -1744
52628 239545 263214 -6752 14576 -1751
52637 239575 263235 -6774 14561 -1740
52644 239584 263243 -6807 14543 -1722
52657 239613 263260 -6788 14551 -1723
52670 239650 263299 -6756 14573 -1721
52689 239678 263319 -6737 14574 -1717
52700 239712 263334 -6729 14567 -1710
52719 239755 263378 -6723 14573 -1712
52737 239790 263416 -6720 14577 -1716
52753 239794 263392 -6719 14587 -1719
52774 239819 263414 -6719 14598 -1739
52802 239862 263467 -6727 14591 -1735
52805 239761 263346 -6744 14573 -1713
52788 239569 263154 -6735 14567 -1719
52756 239416 263020 -6708 14574 -1741
52712 239315 262959 -6727 14578 -1724
52672 239270 262927 -6713 14564 -1753
52636 239247 262935 -6705 14571 -1793
52604 239246 262955 -6714 14612 -1781
52576 239237 262946 -6737 14631 -1739
52541 239205 262916 -6751 14612 -1735
52515 239181 262897 -6754 14591 -1723
52484 239152 262860 -6741 14572 -1689
52466 239159 262875 -6711 14556 -1683
52448 239170 262898 -6707 14570 -1706
52432 239152 262881 -6705 14601 -1723
52415 239151 262887 -6713 14619 -1740
52405 239161 262898 -6728 14622 -1737
52387 239159 262901 -6733 14618 -1741
52366 239138 262888 -6734 14604 -1750
52350 239145 262896 -6762 14593 -1731
52341 239160 262912 -6779 14584 -1720
52332 239188 262944 -6758 14584 -1738
52328 239231 262993 -6765 14580 -1750
52324 239253 263017 -6798 14560 -1739
52319 239271 263033 -6810 14552 -1723
52320 239293 263065 -6798 14553 -1717
52318 239337 263086 -6782 14553 -1712
52322 239366 263117 -6771 14559 -1728
52326 239399 263148 -6755 14563 -1743
52326 239423 263175 -6775 14555 -1727
52332 239462 263207 -6794 14549 -1716
52335 239493 263236 -6762 14562 -1725
52345 239520 263243 -6737 14573 -1724
52353 239552 263276 -6737 14582 -1708
52362 239577 263295 -6727 14595 -1717
52372 239598 263303 -6704 14592 -1749
52382 239635 263338 -6694 14601 -1771
52398 239691 263381 -6690 14612 -1777
52410 239713 263395 -6695 14609 -1770
52423 239728 263398 -6718 14607 -1778
52451 239805 263490 -6728 14607 -1781
52468 239804 263487 -6713 14610 -1783
52458 239642 263310 -6710 14605 -1784
52418 239457 263132 -6753 14581 -1758
52367 239325 263038 -6742 14576 -1785
52309 239260 263002 -6725 14568 -1820
52251 239216 262987 -6732 14588 -1809
52206 239208 263011 -6750 14607 -1769
52165 239202 263008 -6755 14599 -1766
52131 239201 263005 -6770 14584 -1777
52096 239193 263012 -6772 14570 -1756
52060 239187 263005 -6754 14565 -1719
52032 239185 263011 -6696 14576 -1736
52008 239212 263036 -6696 14576 -1764
51988 239216 263036 -6705 14592 -1785
51967 239188 263005 -6722 14609 -1778
51944 239160 262987 -6735 14597 -1766
51924 239163 262980 -6733 14585 -1784
51908 239171 262984 -6748 14589 -1780
51891 239186 263022 -6757 14584 -1767
51878 239211 263046 -6739 14580 -1789
51864 239230 263074 -6742 14587 -1799
51860 239279 263126 -6762 14588 -1781
51853 239309 263166 -6759 14582 -1770
51850 239354 263206 -6748 14591 -1782
51851 239378 263224 -6749 14593 -1789
51855 239414 263259 -6740 14578 -1784
51865 239472 263316 -6731 14574 -1785
51878 239555 263404 -6755 14569 -1775
51890 239627 263493 -6769 14563 -1763
51904 239708 263590 -6750 14565 -1766
51915 239797 263688 -6741 14557 -1773
51933 239855 263737 -6740 14545 -1748
51949 239906 263775 -6734 14550 -1728
51971 239953 263835 -6720 14568 -1743
51989 239998 263872 -6707 14562 -1759
51946 239746 263666 -6744 14562 -1835
51890 239708 263656 -6779 14596 -1818
51851 239750 263728 -6792 14606 -1796
51820 239816 263814 -6781 14582 -1794
51789 239830 263847 -6760 14554 -1797
51758 239831 263854 -6741 14559 -1786
51721 239785 263794 -6709 14585 -1787
51682 239740 263725 -6682 14595 -1818
51652 239720 263693 -6684 14603 -1826
51629 239695 263667 -6693 14620 -1829
51595 239630 263600 -6702 14613 -1822
51547 239504 263432 -6710 14575 -1814
51497 239368 263250 -6742 14535 -1812
51449 239248 263102 -6759 14546 -1801
51410 239188 263025 -6754 14581 -1776
51376 239184 263026 -6766 14559 -1764
51359 239229 263075 -6782 14544 -1762
51327 239163 262975 -6783 14587 -1755
51271 238914 262611 -6794 14589 -1764
51224 238729 262362 -6839 14543 -1765
51231 238837 262499 -6886 14520 -1748
51205 238832 262482 -6887 14536 -1735
51202 238874 262527 -6902 14522 -1708
51237 239139 262886 -6973 14437 -1650
51296 239492 263340 -7053 14379 -1654
51332 239649 263508 -7120 14405 -1698
51327 239626 263459 -7136 14410 -1667
51330 239743 263620 -7210 14331 -1625
51349 239944 263885 -7296 14332 -1636
51378 240157 264159 -7269 14464 -1651
51384 240232 264238 -7242 14554 -1619
51376 240157 264121 -7278 14514 -1608
51364 240017 263895 -7348 14414 -1619
51351 239837 263633 -7396 14383 -1597
51343 239712 263440 -7418 14393 -1589
51343 239613 263303 -7445 14349 -1560
51329 239419 263092 -7453 14292 -1546
51290 239220 262885 -7459 14281 -1563
51228 239033 262723 -7482 14253 -1559
51154 238878 262575 -7494 14189 -1566
51092 238783 262511 -7527 14203 -1571
51054 238819 262598 -7551 14275 -1567
51035 238969 262802 -7543 14308 -1571
51046 239182 263083 -7521 14285 -1557
51074 239429 263425 -7501 14291 -1557
51106 239681 263769 -7466 14328 -1579
51137 239916 264061 -7359 14284 -1616
51152 240008 264138 -7370 14263 -1647
51159 239984 264076 -7419 14282 -1660
51163 239938 264010 -7442 14351 -1680
51161 239903 263977 -7423 14405 -1689
51162 239872 263927 -7418 14416 -1686
51178 239969 264050 -7443 14424 -1685
51196 240104 264247 -7473 14435 -1692
51217 240213 264385 -7504 14402 -1702
51230 240276 264464 -7514 14306 -1672
51245 240326 264509 -7522 14228 -1649
51259 240353 264509 -7515 14219 -1660
51280 240394 264542 -7507 14248 -1642
51302 240434 264560 -7514 14273 -1623
51325 240441 264548 -7514 14285 -1629
51353 240471 264564 -7521 14296 -1631
51385 240533 264624 -7526 14278 -1621
51414 240597 264674 -7519 14273 -1606
51443 240623 264685 -7507 14283 -1585
51469 240642 264682 -7477 14255 -1573
51498 240673 264714 -7478 14267 -1572
51526 240716 264738 -7470 14299 -1581
51562 240749 264761 -7457 14328 -1588
51592 240781 264772 -7455 14327 -1580
51627 240792 264767 -7449 14332 -1571
51659 240828 264785 -7431 14326 -1569
51701 240881 264831 -7420 14314 -1580
51721 240775 264715 -7427 14330 -1596
51717 240593 264543 -7426 14335 -1609
51694 240447 264413 -7390 14318 -1625
51665 240347 264344 -7388 14337 -1615
51638 240307 264323 -7451 14379 -1582
51614 240298 264339 -7474 14381 -1576
51596 240311 264369 -7441 14370 -1616
51585 240344 264410 -7392 14369 -1612
51581 240350 264417 -7348 14340 -1574
51575 240361 264429 -7308 14317 -1577
51577 240384 264458 -7284 14343 -1588
51582 240415 264475 -7290 14380 -1602
51593 240440 264505 -7290 14392 -1614
51598 240424 264483 -7279 14401 -1619
51602 240410 264456 -7286 14420 -1628
51607 240401 264455 -7292 14413 -1644
51613 240392 264449 -7301 14408 -1647
51617 240404 264464 -7324 14410 -1650
51626 240429 264491 -7323 14397 -1668
51636 240457 264519 -7312 14380 -1672
51649 240472 264540 -7315 14392 -1663
51666 240494 264557 -7301 14421 -1660
51681 240515 264572 -7305 14402 -1641
51700 240532 264581 -7318 14414 -1621
51723 240561 264596 -7320 14405 -1598
51744 240590 264618 -7324 14387 -1588
51771 240616 264636 -7315 14384 -1588
51798 240636 264645 -7301 14381 -1584
51825 240663 264651 -7287 14355 -1573
51857 240707 264703 -7277 14366 -1574
51889 240755 264738 -7280 14409 -1562
51917 240780 264735 -7265 14417 -1553
51951 240816 264754 -7236 14399 -1573
51989 240869 264809 -7226 14410 -1592
52012 240816 264750 -7231 14437 -1600
52020 240665 264608 -7217 14440 -1604
52007 240516 264472 -7200 14434 -1619
51991 240430 264417 -7211 14445 -1625
51974 240392 264391 -7239 14439 -1602
51964 240392 264408 -7236 14421 -1619
51964 240413 264455 -7215 14425 -1637
51960 240441 264473 -7199 14410 -1609
51961 240451 264495 -7186 14379 -1593
51966 240477 264518 -7163 14397 -1610
51980 240526 264569 -7135 14455 -1637
51997 240581 264622 -7140 14493 -1657
52017 240599 264637 -7151 14497 -1664
52028 240583 264612 -7153 14467 -1650
52039 240563 264594 -7170 14424 -1649
52049 240570 264598 -7191 14425 -1669
52060 240571 264616 -7216 14459 -1660
52077 240606 264648 -7227 14458 -1638
52092 240643 264687 -7227 14425 -1625
52110 240678 264723 -7227 14414 -1613
52133 240711 264764 -7229 14422 -1613
52153 240752 264795 -7241 14430 -1609
52171 240786 264816 -7247 14436 -1598
52195 240811 264848 -7260 14437 -1585
52219 240850 264879 -7267 14427 -1580
52243 240884 264907 -7264 14398 -1578
52274 240917 264925 -7254 14400 -1581
52301 240960 264956 -7237 14418 -1577
52329 241000 264989 -7207 14363 -1553
52353 241012 264956 -7204 14402 -1578
52384 241052 265006 -7200 14439 -1596
52420 241134 265093 -7199 14461 -1612
52456 241170 265131 -7207 14464 -1616
52471 241049 264992 -7191 14427 -1628
52464 240887 264852 -7182 14379 -1634
52450 240798 264781 -7215 14416 -1632
52439 240747 264751 -7247 14485 -1618
52435 240763 264795 -7244 14483 -1626
52436 240796 264861 -7209 14450 -1652
52443 240840 264916 -7176 14436 -1649
52449 240875 264950 -7143 14428 -1660
52455 240886 264947 -7121 14439 -1657
52466 240903 264973 -7121 14466 -1651
52482 240985 265048 -7130 14478 -1665
52500 241031 265081 -7151 14453 -1662
52516 241030 265099 -7148 14428 -1660
52529 241026 265089 -7134 14430 -1679
52538 241016 265077 -7175 14435 -1660
52547 241017 265061 -7177 14467 -1662
52563 241043 265099 -7190 14490 -1672
52580 241070 265138 -7190 14487 -1672
52597 241107 265193 -7190 14472 -1668
52617 241169 265246 -7204 14449 -1643
52638 241215 265283 -7205 14414 -1629
52658 241224 265288 -7221 14402 -1626
52679 241253 265310 -7241 14423 -1619
52698 241290 265337 -7244 14446 -1612
52724 241329 265364 -7250 14441 -1599
52748 241346 265385 -7255 14425 -1596
52776 241406 265443 -7241 14425 -1592
52803 241458 265483 -7208 14426 -1588
52821 241454 265445 -7188 14424 -1589
52850 241508 265485 -7174 14431 -1595
52884 241571 265561 -7169 14442 -1581
52906 241523 265513 -7192 14436 -1567
52906 241375 265365 -7183 14411 -1603
52893 241250 265260 -7190 14407 -1618
52876 241167 265210 -7241 14422 -1579
52860 241127 265189 -7252 14437 -1569
52847 241139 265231 -7218 14446 -1602
52842 241167 265279 -7186 14443 -1599
52844 241196 265315 -7158 14449 -1592
52847 241233 265358 -7109 14456 -1612
52850 241260 265393 -7095 14458 -1623
52863 241305 265436 -7121 14465 -1638
52877 241366 265484 -7132 14480 -1652
52892 241377 265508 -7139 14475 -1651
52903 241389 265512 -7161 14408 -1677
52911 241379 265512 -7137 14445 -1674
52921 241376 265510 -7144 14480 -1670
52932 241385 265533 -7157 14487 -1673
52956 241486 265669 -7160 14484 -1661
52997 241662 265912 -7142 14459 -1646
53042 241826 266114 -7143 14425 -1627
53076 241963 266276 -7155 14414 -1623
53100 242048 266365 -7173 14435 -1622
53119 242073 266391 -7153 14435 -1600
53141 242086 266400 -7149 14451 -1598
53159 242113 266393 -7156 14455 -1606
53184 242143 266424 -7160 14458 -1610
53201 242165 266440 -7159 14466 -1611
53220 242172 266426 -7168 14458 -1604
53243 242198 266435 -7176 14429 -1583
53267 242226 266457 -7168 14405 -1574
53283 242237 266458 -7140 14431 -1586
53312 242292 266514 -7134 14458 -1598
53338 242324 266559 -7136 14424 -1613
53341 242193 266414 -7124 14416 -1626
53318 242014 266249 -7151 14479 -1613
53291 241902 266174 -7199 14528 -1595
53265 241849 266167 -7193 14525 -1615
53240 241832 266185 -7136 14492 -1644
53232 241900 266293 -7106 14444 -1649
53263 242164 266704 -7087 14421 -1635
53334 242713 267482 -7063 14437 -1640
53379 243063 267944 -7076 14446 -1671
53371 243105 267970 -7101 14436 -1683
53359 243053 267874 -7108 14443 -1654
53357 243053 267882 -7098 14472 -1634
53375 243136 267993 -7106 14477 -1657
53394 243251 268154 -7120 14462 -1689
53405 243306 268238 -7146 14457 -1701
53418 243386 268356 -7181 14443 -1694
53439 243526 268557 -7170 14427 -1708
53455 243648 268718 -7144 14429 -1739
53471 243741 268830 -7149 14435 -1755
53485 243808 268927 -7190 14414 -1719
53499 243853 268971 -7212 14435 -1723
53515 243895 269018 -7232 14451 -1715
53532 243947 269075 -7241 14455 -1715
53553 244020 269164 -7254 14437 -1709
53572 244087 269237 -7264 14404 -1698
53589 244128 269298 -7251 14390 -1699
53604 244173 269322 -7219 14415 -1702
53617 244185 269342 -7189 14450 -1707
53630 244191 269325 -7187 14389 -1670
53640 244184 269298 -7189 14394 -1690
53655 244187 269284 -7171 14423 -1708
53661 244113 269166 -7171 14455 -1716
53667 244035 269037 -7181 14435 -1715
53679 244002 268973 -7212 14408 -1720
53677 243883 268843 -7254 14431 -1693
53653 243660 268599 -7272 14469 -1654
53609 243452 268400 -7261 14470 -1656
53566 243322 268300 -7229 14417 -1650
53525 243258 268253 -7193 14379 -1629
53490 243217 268216 -7160 14391 -1624
53464 243201 268220 -7111 14413 -1645
53438 243205 268242 -7075 14441 -1672
53419 243211 268266 -7098 14466 -1697
53400 243229 268294 -7150 14488 -1717
53399 243343 268469 -7188 14464 -1706
53403 243495 268690 -7203 14426 -1714
53416 243654 268901 -7224 14427 -1742
53423 243777 269080 -7257 14423 -1734
53429 243870 269216 -7254 14413 -1723
53430 243952 269344 -7218 14428 -1741
53429 244000 269421 -7204 14461 -1745
53427 244035 269455 -7204 14472 -1742
53423 244032 269448 -7224 14471 -1743
53414 243999 269406 -7249 14463 -1744
53412 244011 269407 -7274 14411 -1741
53414 244031 269424 -7299 14352 -1715
53412 244029 269421 -7311 14351 -1692
53415 244038 269420 -7320 14368 -1681
53418 244056 269415 -7329 14339 -1687
53422 244037 269397 -7322 14336 -1705
53426 244049 269384 -7309 14368 -1712
53435 244060 269398 -7302 14379 -1717
53442 244063 269390 -7280 14380 -1729
53444 244048 269347 -7264 14392 -1739
53455 244041 269344 -7262 14411 -1730
53463 244060 269339 -7275 14401 -1721
53469 244040 269294 -7307 14410 -1711
53488 244089 269341 -7320 14421 -1715
53518 244117 269360 -7314 14338 -1752
53524 244022 269264 -7372 14400 -1716
53506 243829 269071 -7389 14444 -1702
53469 243676 268931 -7344 14448 -1718
53423 243582 268865 -7300 14438 -1716
53377 243523 268844 -7262 14400 -1693
53343 243510 268855 -7229 14367 -1670
53312 243500 268840 -7215 14391 -1670
53286 243477 268817 -7227 14424 -1685
53268 243466 268811 -7284 14395 -1670
53250 243446 268782 -7303 14378 -1679
53234 243454 268794 -7299 14373 -1693
53222 243456 268789 -7311 14394 -1683
53207 243391 268696 -7333 14420 -1663
53184 243278 268539 -7327 14442 -1663
53150 243126 268323 -7321 14428 -1658
53112 242960 268091 -7334 14400 -1641
53074 242795 267897 -7358 14384 -1620
53035 242629 267671 -7378 14373 -1613
53000 242486 267473 -7388 14346 -1611
52982 242401 267351 -7410 14323 -1599
52968 242373 267310 -7452 14320 -1586
52959 242354 267283 -7476 14331 -1575
52944 242318 267214 -7477 14340 -1568
52932 242262 267142 -7457 14330 -1559
52925 242221 267067 -7432 14291 -1536
52903 242118 266900 -7424 14272 -1509
52859 241860 266526 -7429 14297 -1505
52811 241577 266127 -7425 14311 -1516
52747 241232 265611 -7401 14276 -1510
52688 240885 265108 -7411 14263 -1496
52619 240490 264541 -7439 14326 -1485
52548 240135 264024 -7416 14367 -1527
52511 239995 263811 -7453 14293 -1557
52498 239906 263684 -7574 14232 -1523
52467 239711 263452 -7616 14313 -1515
52427 239517 263239 -7605 14373 -1529
52381 239375 263126 -7637 14312 -1530
52339 239330 263128 -7680 14235 -1510
52301 239312 263152 -7633 14171 -1481
52251 239270 263106 -7695 14141 -1474
52200 239205 263022 -7828 14106 -1443
52159 239166 262977 -7987 14127 -1421
52141 239169 262978 -8043 14135 -1431
52158 239307 263169 -8085 14031 -1417
52201 239544 263461 -8172 13905 -1395
52255 239755 263721 -8205 13889 -1381
52295 239878 263870 -8231 13864 -1367
52317 239930 263946 -7680 14235 -1510
52326 240005 264058 -7633 14171 -1481
52332 240103 264212 -7695 14141 -1474
52340 240238 264409 -7828 14106 -1443
52348 240344 264574 -7987 14127 -1421
52365 240452 264709 -8043 14135 -1431
52359 240427 264669 -8085 14031 -1417
52364 240418 264655 -8172 13905 -1395
52389 240496 264746 -8205 13889 -1381
52413 240562 264826 -8231 13864 -1367
52442 240640 264926 -8339 13721 -1337
52455 240678 264981 -8351 13770 -1328
52469 240726 265024 -8368 13762 -1311
52486 240793 265116 -8395 13716 -1281
52536 241064 265494 -8413 13737 -1261
52630 241662 266327 -8421 13805 -1259
52734 242273 267152 -8449 13733 -1248
52747 242342 267185 -8495 13565 -1216
52692 241983 266668 -8525 13482 -1195
52633 241607 266142 -8538 13509 -1187
52577 241216 265624 -8526 13565 -1183
52528 240920 265272 -8515 13568 -1168
52508 240837 265244 -8514 13557 -1171
52491 240847 265335 -8509 13557 -1193
52467 240826 265365 -8495 13551 -1201
52445 240857 265449 -8471 13589 -1143
52438 240945 265599 -8459 13668 -1091
52417 240970 265621 -8423 13719 -1139
52397 240965 265625 -8421 13687 -1190
52386 241000 265667 -8515 13588 -1165
52364 240971 265648 -8592 13514 -1176
52353 240990 265648 -8569 13536 -1205
52344 240976 265622 -8505 13565 -1174
52333 240931 265568 -8461 13568 -1154
52322 240894 265522 -8437 13545 -1148
52313 240860 265487 -8413 13565 -1147
52304 240848 265500 -8362 13686 -1161
52294 240849 265507 -8331 13762 -1196
52293 240863 265518 -8341 13785 -1197
52292 240883 265526 -8351 13775 -1162
52297 240920 265575 -8364 13750 -1148
52302 240935 265588 -8371 13765 -1158
52304 240950 265602 -8368 13772 -1159
52309 240959 265607 -8365 13743 -1156
52314 240970 265605 -8366 13704 -1172
52321 240984 265613 -8374 13691 -1186
52330 241002 265625 -8378 13717 -1191
52340 241028 265663 -8376 13758 -1196
52352 241061 265681 -8373 13762 -1190
52368 241104 265724 -8384 13706 -1183
52387 241139 265752 -8409 13685 -1184
52403 241165 265751 -8408 13711 -1183
52422 241197 265795 -8393 13734 -1169
52426 241110 265691 -8384 13732 -1161
52409 240924 265494 -8373 13702 -1166
52371 240735 265316 -8367 13685 -1176
52323 240626 265231 -8359 13687 -1192
52285 240562 265187 -8349 13704 -1189
52251 240542 265187 -8346 13712 -1175
52224 240546 265220 -8360 13704 -1175
52202 240567 265243 -8362 13710 -1210
52188 240575 265270 -8371 13748 -1200
52174 240586 265280 -8386 13756 -1170
52163 240604 265318 -8393 13752 -1161
52160 240642 265361 -8378 13738 -1182
52157 240659 265382 -8356 13722 -1194
52154 240646 265366 -8330 13727 -1189
52145 240624 265357 -8307 13735 -1198
52138 240621 265345 -8301 13758 -1205
52131 240635 265365 -8299 13781 -1215
52134 240667 265413 -8304 13801 -1228
52131 240701 265466 -8317 13833 -1227
52136 240714 265490 -8318 13844 -1224
52142 240745 265518 -8308 13830 -1236
52150 240789 265561 -8318 13812 -1226
52160 240834 265602 -8323 13819 -1217
52173 240862 265633 -8297 13827 -1250
52184 240886 265658 -8284 13814 -1259
52198 240918 265694 -8285 13819 -1249
52210 240948 265712 -8286 13830 -1257
52225 240979 265735 -8274 13826 -1258
52244 241033 265803 -8266 13827 -1250
52264 241088 265839 -8278 13821 -1246
52280 241110 265868 -8287 13822 -1241
52305 241163 265924 -8280 13834 -1243
52331 241185 265957 -8262 13849 -1251
52332 241093 265870 -8248 13850 -1247
52316 240948 265732 -8243 13835 -1252
52289 240847 265667 -8245 13862 -1259
52266 240820 265688 -8244 13882 -1255
52244 240839 265734 -8218 13855 -1287
52236 240872 265792 -8233 13869 -1275
52225 240905 265851 -8228 13835 -1294
52221 240942 265922 -8249 13838 -1307
52222 241001 265998 -8293 13880 -1284
52223 241064 266068 -8300 13882 -1280
52233 241138 266170 -8278 13840 -1315
52242 241204 266246 -8270 13802 -1327
52248 241252 266296 -8279 13785 -1311
52252 241258 266333 -8266 13773 -1309
52253 241256 266325 -8277 13782 -1326
52257 241281 266369 -8286 13801 -1337
52266 241336 266435 -8286 13828 -1330
52271 241361 266487 -8282 13840 -1341
52280 241407 266522 -8278 13832 -1369
52292 241441 266576 -8272 13817 -1359
52301 241496 266624 -8268 13809 -1337
52316 241531 266686 -8258 13838 -1348
52327 241578 266724 -8231 13853 -1343
52349 241626 266781 -8221 13844 -1331
52365 241665 266824 -8231 13864 -1330
52385 241707 266865 -8239 13895 -1343
52406 241764 266935 -8248 13903 -1355
52427 241805 266962 -8237 13900 -1350
52446 241840 267000 -8226 13908 -1337
52467 241881 267042 -8211 13900 -1326
52489 241932 267099 -8192 13883 -1321
52516 241999 267173 -8188 13885 -1325
52541 242046 267202 -8172 13884 -1337
52564 242076 267219 -8146 13872 -1322
52594 242116 267264 -8146 13887 -1300
52610 242083 267228 -8166 13921 -1314
52607 241926 267075 -8167 13935 -1334
52580 241764 266926 -8165 13924 -1326
52556 241674 266859 -8171 13903 -1317
52539 241644 266865 -8169 13912 -1318
52527 241668 266925 -8165 13935 -1333
52528 241723 266999 -8144 13933 -1373
52528 241774 267051 -8124 13937 -1399
52531 241816 267110 -8140 13950 -1395
52543 241860 267182 -8160 13970 -1382
52553 241918 267247 -8161 13980 -1380
52567 241976 267307 -8158 13956 -1368
52585 242038 267388 -8155 13940 -1350
52596 242050 267399 -8136 13928 -1348
52604 242055 267398 -8112 13923 -1354
52614 242061 267424 -8089 13942 -1371
52620 242095 267449 -8098 13958 -1384
52631 242116 267487 -8133 13976 -1384
52641 242158 267529 -8108 13912 -1396
52654 242189 267552 -8134 13937 -1410
52667 242221 267584 -8161 13954 -1386
52683 242255 267630 -8172 13957 -1378
52699 242293 267669 -8177 13945 -1386
52717 242322 267687 -8167 13918 -1394
52733 242352 267710 -8145 13913 -1395
52750 242377 267717 -8154 13916 -1391
52768 242417 267744 -8183 13913 -1390
52788 242449 267786 -8156 13915 -1390
52813 242489 267819 -8172 13927 -1380
52833 242534 267860 -8190 13917 -1378
52854 242563 267883 -8190 13889 -1375
52875 242610 267910 -8179 13867 -1368
52897 242632 267933 -8175 13869 -1363
52920 242671 267969 -8159 13887 -1367
52939 242726 268023 -8135 13901 -1386
52963 242766 268055 -8126 13917 -1406
52984 242791 268048 -8126 13925 -1397
53013 242855 268111 -8117 13920 -1376
53038 242856 268116 -8114 13928 -1373
53043 242734 267998 -8135 13936 -1374
53030 242569 267853 -8149 13923 -1378
53008 242452 267759 -8153 13947 -1379
52987 242385 267709 -8166 13983 -1376
52969 242357 267690 -8138 13952 -1413
52958 242337 267662 -8120 13922 -1438
52959 242308 267634 -8168 13953 -1399
52954 242284 267612 -8195 13980 -1386
52952 242268 267565 -8167 13942 -1412
52943 242207 267477 -8144 13896 -1412
52929 242125 267337 -8147 13888 -1390
52913 241975 267112 -8143 13891 -1365
52881 241758 266797 -8114 13915 -1360
52844 241569 266561 -8099 13946 -1364
52813 241391 266317 -8101 13946 -1376
52783 241247 266130 -8085 13931 -1385
52766 241130 265957 -8079 13930 -1402
52753 241012 265786 -8087 13941 -1426
52750 240914 265639 -8073 13925 -1414
52750 240858 265542 -8085 13935 -1414
52760 240828 265498 -8095 13955 -1409
52777 240835 265494 -8103 13986 -1416
52786 240827 265461 -8122 14033 -1414
52803 240832 265469 -8166 14059 -1370
52825 240872 265523 -8165 14029 -1335
52841 240920 265588 -8135 13979 -1336
52854 240960 265625 -8130 13936 -1333
52859 240966 265636 -8109 13866 -1285
52873 241011 265698 -8142 13836 -1273
52893 241076 265775 -8162 13841 -1270
52909 241157 265884 -8160 13888 -1277
52934 241296 266072 -8161 13954 -1294
52959 241425 266222 -8165 13973 -1296
52973 241467 266268 -8166 13933 -1293
52995 241555 266373 -8173 13891 -1299
53024 241682 266546 -8194 13874 -1311
53045 241708 266604 -8219 13842 -1345
53049 241647 266578 -8231 13808 -1344
53044 241569 266530 -8245 13802 -1317
53034 241512 266516 -8250 13785 -1334
53018 241479 266502 -8268 13776 -1363
53002 241453 266508 -8304 13800 -1377
53001 241520 266592 -8319 13832 -1358
53005 241576 266674 -8279 13857 -1363
53000 241592 266681 -8212 13858 -1400
52999 241604 266686 -8189 13861 -1404
53006 241641 266730 -8174 13877 -1421
53015 241700 266797 -8128 13875 -1465
53022 241720 266825 -8111 13910 -1494
53030 241756 266884 -8147 13966 -1494
53037 241792 266936 -8171 13984 -1479
53043 241817 266992 -8174 13973 -1471
53048 241884 267081 -8179 13971 -1463
53051 241929 267139 -8190 13980 -1446
53058 241960 267189 -8178 13947 -1440
53065 241997 267217 -8174 13893 -1437
53074 242018 267244 -8194 13866 -1417
53090 242059 267295 -8191 13858 -1403
53105 242124 267350 -8196 13872 -1391
53120 242168 267391 -8209 13909 -1377
53133 242186 267404 -8196 13935 -1373
53144 242176 267383 -8172 13942 -1362
53157 242186 267353 -8166 13929 -1349
53167 242182 267342 -8157 13923 -1340
53177 242162 267301 -8123 13924 -1332
53188 242150 267262 -8098 13926 -1327
53196 242150 267230 -8108 13937 -1317
53215 242191 267274 -8071 13921 -1314
53246 242275 267356 -8099 13954 -1310
53259 242241 267294 -8113 13956 -1316
53282 242205 267204 -8121 13931 -1311
53331 242293 267333 -8132 13928 -1322
53376 242346 267437 -8141 13950 -1347
53382 242227 267346 -8119 13984 -1358
53345 241990 267096 -8086 14009 -1353
53289 241744 266829 -8058 13986 -1348
53244 241616 266700 -8047 13962 -1379
53196 241518 266612 -8059 13976 -1392
53164 241511 266591 -8097 13988 -1355
53144 241543 266640 -8115 14001 -1332
53132 241610 266743 -8092 13993 -1330
53127 241700 266852 -8073 13943 -1329
53123 241794 266972 -8058 13925 -1323
53129 241897 267119 -8022 13962 -1340
53141 242022 267267 -7985 14019 -1364
53141 242084 267337 -7983 14083 -1372
53141 242105 267383 -7978 14110 -1375
53140 242136 267432 -7946 14067 -1378
53133 242151 267462 -7957 14028 -1381
53128 242175 267493 -8016 14046 -1373
53128 242219 267552 -8049 14066 -1364
53124 242254 267603 -8045 14060 -1360
53122 242287 267615 -8037 14042 -1376
53119 242307 267639 -8035 14021 -1388
53118 242320 267654 -8029 14005 -1393
53114 242310 267616 -8033 14006 -1412
53113 242307 267588 -8037 14020 -1414
53114 242293 267548 -8008 14023 -1406
53120 242298 267538 -8004 14017 -1385
53131 242312 267524 -8038 14027 -1348
53137 242265 267442 -8049 14036 -1343
53132 242202 267323 -8042 14039 -1338
53141 242175 267258 -8033 14041 -1335
53142 242111 267158 -8005 14037 -1349
53151 242089 267093 -7980 14034 -1358
53166 242107 267096 -7991 14046 -1359
53174 242086 267042 -8027 14057 -1338
53185 242070 266980 -8007 14013 -1318
53213 242098 267011 -8030 14007 -1337
53232 242059 266966 -8028 13989 -1341
53223 241878 266777 -8018 13999 -1325
53189 241709 266633 -8023 14037 -1308
53148 241609 266560 -8003 14014 -1327
53104 241566 266555 -7994 13978 -1350
53069 241551 266567 -8033 14002 -1321
53035 241544 266577 -8062 14039 -1287
53001 241540 266571 -8012 14031 -1302
52975 241546 266574 -7945 14009 -1328
52949 241553 266580 -7917 14005 -1341
52932 241573 266593 -7914 13991 -1349
52926 241618 266629 -7923 13998 -1353
52928 241665 266690 -7931 14034 -1370
52927 241675 266701 -7966 14054 -1384
52922 241679 266709 -7997 14052 -1379
52915 241682 266715 -8012 14036 -1387
52903 241691 266751 -8029 14026 -1405
52896 241705 266771 -8020 14019 -1380
52886 241736 266801 -8016 14073 -1382
52880 241754 266824 -8028 14115 -1388
52878 241796 266868 -8021 14110 -1378
52881 241825 266901 -8004 14103 -1378
52883 241855 266914 -8007 14097 -1376
52886 241870 266921 -8009 14083 -1365
52896 241904 266948 -8008 14070 -1359
52910 241949 266989 -8007 14057 -1347
52923 241987 267016 -8004 14031 -1321
52938 242019 267029 -7989 13996 -1305
52951 242039 267041 -7995 13996 -1302
52956 242028 267022 -8016 14000 -1296
52964 242045 267020 -8015 14012 -1285
52981 242092 267057 -8025 14036 -1269
52996 242134 267093 -8046 14042 -1251
53000 242099 267025 -8039 14038 -1250
53015 242153 267039 -7999 14008 -1263
53042 242216 267121 -7995 13992 -1258
53063 242195 267111 -8022 14001 -1252
53061 242055 266972 -8027 14006 -1242
53037 241903 266858 -8016 13982 -1258
52999 241796 266793 -8016 13962 -1280
52948 241713 266743 -8048 14004 -1256
52905 241672 266722 -8095 14075 -1218
52872 241690 266757 -8095 14113 -1219
52850 241719 266779 -8058 14088 -1254
52832 241757 266829 -8023 14037 -1260
52821 241790 266850 -7992 13991 -1243
52814 241805 266861 -7963 13972 -1245
52817 241851 266904 -7915 13968 -1275
52817 241865 266902 -7896 14000 -1291
52817 241859 266888 -7926 14070 -1285
52818 241850 266891 -7943 14109 -1271
52810 241845 266872 -7945 14121 -1273
52805 241816 266845 -7942 14132 -1305
52793 241811 266833 -7937 14155 -1306
52783 241810 266833 -7907 14146 -1302
52780 241823 266840 -7869 14154 -1328
52776 241834 266845 -7866 14186 -1337
52779 241849 266851 -7872 14115 -1335
52783 241880 266858 -7905 14100 -1316
52787 241895 266856 -7952 14087 -1300
52795 241919 266875 -7983 14067 -1307
52809 241947 266898 -7995 14059 -1300
52820 241983 266928 -7988 14051 -1288
52833 242012 266936 -7974 14039 -1288
52845 242032 266951 -7971 14033 -1299
52857 242044 266953 -7977 14049 -1309
52872 242069 266972 -7944 14024 -1309
52891 242124 267003 -7947 14035 -1299
52904 242108 266958 -7959 14055 -1294
52928 242148 266992 -7964 14060 -1291
52960 242232 267085 -7961 14077 -1281
52980 242178 267039 -7973 14111 -1270
52974 242024 266898 -7965 14089 -1290
52947 241894 266813 -7942 14066 -1326
52908 241830 266774 -7970 14102 -1318
52869 241787 266775 -8003 14115 -1277
52828 241746 266757 -7980 14086 -1273
52797 241760 266779 -7940 14067 -1294
52776 241789 266814 -7915 14063 -1277
52759 241800 266843 -7912 14075 -1259
52745 241808 266839 -7901 14088 -1259
52739 241823 266842 -7875 14095 -1272
52739 241862 266879 -7859 14123 -1302
52745 241884 266898 -7856 14142 -1321
52742 241876 266876 -7854 14143 -1330
52740 241852 266842 -7842 14106 -1337
52734 241833 266841 -7861 14100 -1319
52727 241826 266848 -7904 14116 -1300
52723 241848 266857 -7905 14119 -1303
52726 241865 266892 -7897 14107 -1307
52727 241887 266906 -7883 14095 -1303
52728 241902 266912 -7873 14111 -1288
52730 241918 266927 -7877 14126 -1279
52740 241947 266935 -7878 14136 -1273
52746 241959 266941 -7861 14150 -1286
52757 241970 266938 -7835 14137 -1302
52769 242001 266965 -7844 14122 -1280
52786 242026 266992 -7870 14119 -1259
52798 242066 266995 -7873 14108 -1265
52817 242086 267016 -7868 14098 -1268
52835 242121 267050 -7866 14109 -1264
52857 242159 267072 -7862 14120 -1253
52872 242155 267040 -7854 14111 -1246
52896 242195 267064 -7853 14105 -1256
52926 242241 267132 -7861 14116 -1246
52948 242186 267080 -7839 14094 -1249
52938 242045 266943 -7809 14065 -1293
52913 241908 266852 -7835 14087 -1292
52882 241834 266819 -7884 14148 -1241
52844 241796 266814 -7908 14184 -1222
52814 241779 266798 -7893 14169 -1252
52790 241782 266819 -7869 14138 -1269
52775 241813 266848 -7858 14122 -1253
52772 241840 266880 -7844 14117 -1242
52761 241846 266872 -7820 14124 -1253
52761 241852 266884 -7770 14173 -1301
52763 241890 266926 -7796 14199 -1292
52769 241904 266940 -7806 14209 -1296
52769 241902 266918 -7811 14202 -1294
52773 241898 266930 -7825 14172 -1270
52778 241912 266953 -7841 14147 -1246
52782 241928 266962 -7839 14145 -1240
52785 241938 266984 -7825 14134 -1257
52788 241948 266989 -7817 14140 -1268
52794 241962 266996 -7788 14155 -1262
52801 241973 267000 -7770 14158 -1250
52813 241986 267007 -7785 14170 -1246
52827 242009 267028 -7816 14167 -1235
52841 242031 267031 -7844 14151 -1208
52858 242047 267039 -7845 14140 -1195
52876 242070 267035 -7838 14131 -1194
52895 242099 267036 -7847 14132 -1192
52913 242089 267030 -7847 14123 -1210
52933 242102 267021 -7831 14110 -1227
52953 242128 267038 -7818 14115 -1230
52976 242156 267048 -7792 14104 -1249
52991 242133 266996 -7780 14096 -1253
53016 242150 266999 -7792 14118 -1243
53052 242195 267045 -7809 14145 -1235
53069 242130 266980 -7815 14151 -1242
53064 241962 266826 -7799 14132 -1268
53046 241827 266724 -7809 14155 -1271
53025 241756 266691 -7846 14197 -1248
53001 241724 266667 -7854 14215 -1239
52983 241721 266686 -7824 14221 -1262
52978 241755 266733 -7776 14182 -1278
52978 241792 266788 -7742 14146 -1277
52982 241843 266858 -7735 14160 -1276
52983 241868 266866 -7732 14187 -1297
52989 241896 266892 -7735 14212 -1322
53004 241955 266964 -7741 14215 -1333
53012 241961 266958 -7752 14198 -1322
53016 241951 266936 -7760 14200 -1309
53023 241933 266929 -7736 14222 -1309
53026 241919 266921 -7748 14249 -1285
53029 241914 266913 -7738 14190 -1314
53038 241938 266938 -7754 14213 -1311
53046 241954 266950 -7762 14226 -1299
53057 241967 266955 -7767 14221 -1290
53072 241986 266976 -7779 14208 -1293
53085 242004 266983 -7791 14200 -1300
53100 242016 266978 -7790 14201 -1301
53114 242017 266972 -7787 14182 -1307
53130 242047 266972 -7790 14157 -1305
53149 242070 266996 -7780 14126 -1296
53173 242095 267002 -7772 14096 -1294
53194 242123 267019 -7781 14100 -1283
53217 242138 267032 -7791 14123 -1273
53240 242161 267029 -7806 14145 -1272
53263 242206 267076 -7805 14162 -1274
53283 242200 267040 -7807 14177 -1287
53299 242204 267017 -7813 14162 -1304
53334 242286 267114 -7818 14128 -1295
53366 242307 267139 -7833 14111 -1275
53375 242188 267007 -7783 14063 -1307
53365 242033 266869 -7839 14112 -1281
53343 241920 266787 -7887 14173 -1260
53317 241837 266725 -7871 14190 -1287
53291 241799 266709 -7843 14183 -1304
53277 241807 266727 -7818 14158 -1301
53267 241826 266756 -7789 14130 -1294
53262 241853 266781 -7774 14122 -1295
53258 241868 266787 -7775 14136 -1307
53256 241861 266766 -7763 14170 -1304
53262 241898 266802 -7766 14185 -1291
53276 241936 266851 -7789 14168 -1292
53284 241941 266857 -7794 14160 -1301
53290 241934 266835 -7802 14174 -1286
53291 241922 266833 -7814 14179 -1274
53293 241929 266846 -7829 14196 -1278
53297 241945 266878 -7836 14208 -1294
53303 241960 266901 -7834 14169 -1307
53311 241970 266912 -7843 14114 -1303
53316 242007 266941 -7856 14087 -1290
53322 242026 266961 -7848 14067 -1281
53334 242051 266984 -7838 14070 -1279
53345 242071 266992 -7849 14116 -1270
53356 242100 267007 -7849 14143 -1271
53372 242135 267037 -7851 14137 -1262
53389 242152 267050 -7864 14128 -1240
53406 242166 267055 -7868 14142 -1237
53421 242180 267060 -7844 14157 -1254
53445 242239 267110 -7822 14157 -1274
53463 242267 267125 -7822 14167 -1287
53474 242239 267075 -7796 14147 -1296
53502 242290 267122 -7833 14167 -1268
53528 242341 267170 -7833 14140 -1263
53551 242311 267139 -7834 14126 -1271
53550 242183 267004 -7871 14163 -1275
53537 242059 266923 -7892 14197 -1272
53513 241971 266862 -7876 14179 -1270
53484 241925 266843 -7849 14135 -1280
53462 241915 266853 -7829 14131 -1274
53445 241918 266869 -7773 14117 -1290
53441 241946 266889 -7778 14137 -1298
53439 241970 266923 -7789 14171 -1307
53431 241969 266893 -7799 14190 -1302
53425 241978 266903 -7804 14168 -1289
53436 242048 266974 -7794 14148 -1297
53443 242058 266986 -7806 14169 -1294
53444 242034 266960 -7824 14178 -1269
