Time(s)	GREEN_denoised_wiener
0.000000	-78.129847
0.010000	-110.360355
0.020000	-115.302461
0.030000	-117.234227
0.040000	-115.863767
0.050000	-111.789740
0.060000	-105.771338
0.070000	-98.691379
0.080000	-91.692037
0.090000	-85.938793
0.100000	-79.951140
0.110000	-72.866871
0.120000	-63.889349
0.130000	-53.477281
0.140000	-41.839047
0.150000	-28.765347
0.160000	-15.137168
0.170000	-2.734600
0.180000	7.889407
0.190000	17.621467
0.200000	27.905587
0.210000	37.959536
0.220000	49.583686
0.230000	61.276739
0.240000	73.254746
0.250000	79.565284
0.260000	77.255704
0.270000	67.186001
0.280000	53.253410
0.290000	41.133381
0.300000	30.222357
0.310000	20.738209
0.320000	9.838127
0.330000	-0.655547
0.340000	-8.556462
0.350000	-12.395930
0.360000	-10.963042
0.370000	-7.827353
0.380000	-3.706329
0.390000	-0.272568
0.400000	2.878294
0.410000	6.939962
0.420000	11.113057
0.430000	17.816986
0.440000	26.662465
0.450000	38.352741
0.460000	51.528643
0.470000	64.209261
0.480000	76.389425
0.490000	87.386469
0.500000	97.909951
0.510000	107.884143
0.520000	117.420315
0.530000	128.375975
0.540000	140.246922
0.550000	152.523889
0.560000	158.378971
0.570000	155.674179
0.580000	144.506687
0.590000	129.827359
0.600000	115.287086
0.610000	102.297338
0.620000	90.719538
0.630000	79.755175
0.640000	69.811668
0.650000	61.870981
0.660000	58.230493
0.670000	58.301969
0.680000	60.971006
0.690000	63.384673
0.700000	66.378162
0.710000	70.122089
0.720000	74.106677
0.730000	77.515245
0.740000	82.499952
0.750000	89.560490
0.760000	98.882346
0.770000	108.255827
0.780000	117.259675
0.790000	126.276748
0.800000	136.295396
0.810000	147.619202
0.820000	158.649322
0.830000	170.291983
0.840000	182.323609
0.850000	193.953351
0.860000	204.321196
0.870000	209.596730
0.880000	206.644207
0.890000	195.238295
0.900000	178.967893
0.910000	162.874055
0.920000	147.937308
0.930000	134.498278
0.940000	121.894191
0.950000	110.114519
0.960000	100.177461
0.970000	94.056948
0.980000	91.778945
0.990000	93.657066
1.000000	96.694904
1.010000	100.253891
1.020000	104.269334
1.030000	108.841395
1.040000	114.167589
1.050000	119.082042
1.060000	125.063324
1.070000	132.309383
1.080000	140.614824
1.090000	148.857741
1.100000	156.825682
1.110000	165.399286
1.120000	174.357022
1.130000	184.266497
1.140000	194.542015
1.150000	205.793803
1.160000	217.046116
1.170000	226.976940
1.180000	231.867066
1.190000	227.147827
1.200000	215.030034
1.210000	198.978870
1.220000	183.519269
1.230000	168.453609
1.240000	154.668124
1.250000	142.917939
1.260000	133.472237
1.270000	125.034536
1.280000	117.937362
1.290000	113.811205
1.300000	112.052831
1.310000	111.576332
1.320000	110.489169
1.330000	111.009135
1.340000	112.574227
1.350000	115.433821
1.360000	119.982638
1.370000	125.511728
1.380000	132.383543
1.390000	139.575346
1.400000	147.110132
1.410000	155.295854
1.420000	162.821677
1.430000	172.349971
1.440000	182.177220
1.450000	192.398309
1.460000	203.188891
1.470000	213.766545
1.480000	224.192028
1.490000	229.443258
1.500000	225.854615
1.510000	212.783951
1.520000	194.185451
1.530000	176.119335
1.540000	159.490984
1.550000	141.767409
1.560000	122.457536
1.570000	103.410599
1.580000	87.081050
1.590000	74.705687
1.600000	66.690799
1.610000	62.987982
1.620000	60.279967
1.630000	57.264149
1.640000	54.863525
1.650000	53.527231
1.660000	54.103000
1.670000	54.771082
1.680000	56.671973
1.690000	58.997550
1.700000	62.900907
1.710000	66.871215
1.720000	72.459366
1.730000	78.725759
1.740000	87.011745
1.750000	95.893632
1.760000	104.553313
1.770000	112.382876
1.780000	120.085878
1.790000	128.526556
1.800000	131.920777
1.810000	126.663414
1.820000	111.081438
1.830000	90.473139
1.840000	68.223829
1.850000	47.268539
1.860000	28.347032
1.870000	10.044791
1.880000	-6.870410
1.890000	-22.528131
1.900000	-36.098665
1.910000	-45.778567
1.920000	-51.679107
1.930000	-54.043030
1.940000	-56.281991
1.950000	-58.645953
1.960000	-60.563166
1.970000	-62.265035
1.980000	-62.186764
1.990000	-59.567083
2.000000	-53.490768
2.010000	-46.225439
2.020000	-38.805688
2.030000	-30.894398
2.040000	-23.137748
2.050000	-15.576201
2.060000	-8.485028
2.070000	0.066746
2.080000	9.145112
2.090000	18.363083
2.100000	26.758826
2.110000	33.645260
2.120000	34.680853
2.130000	26.916209
2.140000	9.259530
2.150000	-12.475730
2.160000	-34.181734
2.170000	-53.554615
2.180000	-71.981863
2.190000	-91.651160
2.200000	-109.783882
2.210000	-127.106262
2.220000	-139.588503
2.230000	-147.589148
2.240000	-151.408760
2.250000	-152.424185
2.260000	-152.245584
2.270000	-150.269128
2.280000	-147.436034
2.290000	-143.460145
2.300000	-138.644273
2.310000	-132.665673
2.320000	-126.204889
2.330000	-118.884642
2.340000	-111.117410
2.350000	-102.116776
2.360000	-92.049061
2.370000	-81.032011
2.380000	-69.331072
2.390000	-57.297490
2.400000	-44.962265
2.410000	-33.583117
2.420000	-23.942315
2.430000	-20.562567
2.440000	-27.604974
2.450000	-44.880388
2.460000	-66.268379
2.470000	-87.888114
2.480000	-107.620426
2.490000	-126.588600
2.500000	-144.987160
2.510000	-161.301678
2.520000	-174.372203
2.530000	-182.363618
2.540000	-185.112598
2.550000	-184.114252
2.560000	-180.202026
2.570000	-175.552803
2.580000	-169.969202
2.590000	-164.345327
2.600000	-160.088804
2.610000	-156.148820
2.620000	-152.228234
2.630000	-147.635691
2.640000	-142.721688
2.650000	-137.472760
2.660000	-131.231272
2.670000	-124.664733
2.680000	-117.088437
2.690000	-108.877611
2.700000	-99.962404
2.710000	-89.439587
2.720000	-77.524193
2.730000	-65.021295
2.740000	-57.450401
2.750000	-60.621968
2.760000	-76.049668
2.770000	-97.553061
2.780000	-119.669150
2.790000	-139.509496
2.800000	-159.321033
2.810000	-178.476356
2.820000	-196.324527
2.830000	-211.793759
2.840000	-223.345124
2.850000	-230.131468
2.860000	-231.384363
2.870000	-229.496301
2.880000	-226.775161
2.890000	-224.209315
2.900000	-220.177276
2.910000	-217.285774
2.920000	-214.253888
2.930000	-211.385100
2.940000	-205.673266
2.950000	-198.849300
2.960000	-191.441209
2.970000	-182.996011
2.980000	-175.233661
2.990000	-167.153792
3.000000	-158.713952
3.010000	-148.994371
3.020000	-138.884417
3.030000	-129.186580
3.040000	-119.737427
3.050000	-114.408397
3.060000	-117.610440
3.070000	-131.308677
3.080000	-151.485527
3.090000	-171.553733
3.100000	-190.059872
3.110000	-207.823511
3.120000	-226.989660
3.130000	-245.099101
3.140000	-261.944076
3.150000	-274.719319
3.160000	-281.920478
3.170000	-283.361553
3.180000	-281.589428
3.190000	-279.021786
3.200000	-275.603250
3.210000	-273.038493
3.220000	-270.294499
3.230000	-267.409727
3.240000	-262.331559
3.250000	-256.141092
3.260000	-249.385308
3.270000	-242.891347
3.280000	-237.122811
3.290000	-230.988713
3.300000	-223.879644
3.310000	-215.103818
3.320000	-205.324789
3.330000	-194.568384
3.340000	-183.790322
3.350000	-173.048272
3.360000	-163.276002
3.370000	-155.880484
3.380000	-155.454740
3.390000	-164.390908
3.400000	-180.638815
3.410000	-197.572917
3.420000	-213.186340
3.430000	-227.110133
3.440000	-240.756075
3.450000	-253.993709
3.460000	-267.679055
3.470000	-280.221038
3.480000	-288.280982
3.490000	-289.802238
3.500000	-286.911348
3.510000	-282.067901
3.520000	-277.558050
3.530000	-272.675421
3.540000	-267.557072
3.550000	-262.633676
3.560000	-256.567757
3.570000	-250.615495
3.580000	-243.253836
3.590000	-234.952401
3.600000	-224.618489
3.610000	-213.645583
3.620000	-202.997991
3.630000	-192.685417
3.640000	-180.386945
3.650000	-167.417668
3.660000	-152.785234
3.670000	-138.172848
3.680000	-122.190569
3.690000	-107.287299
3.700000	-95.276124
3.710000	-91.092194
3.720000	-96.701966
3.730000	-110.903398
3.740000	-127.462232
3.750000	-141.065279
3.760000	-152.253293
3.770000	-162.577887
3.780000	-174.728663
3.790000	-186.424590
3.800000	-196.889143
3.810000	-203.279828
3.820000	-203.733083
3.830000	-201.162185
3.840000	-197.254213
3.850000	-193.725070
3.860000	-188.445121
3.870000	-180.972820
3.880000	-171.985887
3.890000	-163.571111
3.900000	-157.539117
3.910000	-149.833061
3.920000	-140.115554
3.930000	-128.442297
3.940000	-118.715310
3.950000	-108.379769
3.960000	-96.665819
3.970000	-83.665336
3.980000	-70.631792
3.990000	-57.292196
4.000000	-44.613199
4.010000	-32.929227
4.020000	-21.937974
4.030000	-13.918339
4.040000	-12.611634
4.050000	-20.916549
4.060000	-35.947362
4.070000	-52.586460
4.080000	-66.964224
4.090000	-78.275702
4.100000	-89.000897
4.110000	-99.971080
4.120000	-110.042685
4.130000	-117.675782
4.140000	-121.428360
4.150000	-121.729112
4.160000	-119.826316
4.170000	-116.791859
4.180000	-114.235519
4.190000	-111.859004
4.200000	-108.652276
4.210000	-103.936435
4.220000	-98.081156
4.230000	-91.356035
4.240000	-84.186106
4.250000	-74.778384
4.260000	-65.310668
4.270000	-55.201726
4.280000	-44.110993
4.290000	-32.301690
4.300000	-21.256159
4.310000	-10.738292
4.320000	0.928077
4.330000	14.481450
4.340000	28.097663
4.350000	40.361508
4.360000	52.266530
4.370000	61.893033
4.380000	65.757373
4.390000	59.414994
4.400000	46.262965
4.410000	30.599444
4.420000	17.096401
4.430000	3.759204
4.440000	-7.732984
4.450000	-19.430725
4.460000	-29.557835
4.470000	-37.964293
4.480000	-42.716826
4.490000	-42.505142
4.500000	-39.557637
4.510000	-34.379891
4.520000	-31.414423
4.530000	-29.243569
4.540000	-28.615379
4.550000	-25.432024
4.560000	-21.169593
4.570000	-15.620331
4.580000	-10.065571
4.590000	-3.807405
4.600000	3.700637
4.610000	11.664578
4.620000	20.800535
4.630000	30.796752
4.640000	43.235454
4.650000	55.246653
4.660000	66.340335
4.670000	74.689780
4.680000	83.790200
4.690000	94.456046
4.700000	105.899636
4.710000	112.205668
4.720000	108.676658
4.730000	96.970455
4.740000	82.461731
4.750000	69.062532
4.760000	56.566934
4.770000	44.819654
4.780000	34.673273
4.790000	26.574159
4.800000	21.446222
4.810000	18.990734
4.820000	20.555918
4.830000	25.066340
4.840000	30.662612
4.850000	36.143032
4.860000	41.104241
4.870000	47.559233
4.880000	53.868841
4.890000	61.316592
4.900000	70.297592
4.910000	79.736632
4.920000	89.395491
4.930000	98.488812
4.940000	108.834307
4.950000	118.899017
4.960000	128.611158
4.970000	138.979670
4.980000	149.050220
4.990000	159.398919
5.000000	170.155906
5.010000	181.151984
5.020000	188.586376
5.030000	186.901769
5.040000	174.028087
5.050000	155.006199
5.060000	136.141835
5.070000	120.771150
5.080000	105.907008
5.090000	91.212287
5.100000	77.678181
5.110000	65.988375
5.120000	57.787904
5.130000	53.764521
5.140000	55.569736
5.150000	59.863196
5.160000	62.351969
5.170000	63.645126
5.180000	65.473851
5.190000	69.764269
5.200000	74.922851
5.210000	80.891186
5.220000	88.711874
5.230000	96.346749
5.240000	102.841086
5.250000	108.476359
5.260000	115.312607
5.270000	123.939459
5.280000	133.116735
5.290000	143.746177
5.300000	154.586146
5.310000	167.231960
5.320000	179.048646
5.330000	187.054931
5.340000	185.842718
5.350000	173.893588
5.360000	155.992535
5.370000	137.405426
5.380000	120.807191
5.390000	105.246019
5.400000	90.295431
5.410000	75.090974
5.420000	60.460643
5.430000	49.614887
5.440000	44.294321
5.450000	44.138956
5.460000	44.789698
5.470000	44.342541
5.480000	43.297872
5.490000	41.884995
5.500000	42.150741
5.510000	43.760701
5.520000	47.011890
5.530000	50.638748
5.540000	54.883901
5.550000	58.853814
5.560000	63.768610
5.570000	68.402473
5.580000	74.669006
5.590000	81.617081
5.600000	89.245914
5.610000	98.174043
5.620000	106.824194
5.630000	113.070317
5.640000	109.729486
5.650000	95.323242
5.660000	72.988521
5.670000	49.928483
5.680000	30.581188
5.690000	12.857101
5.700000	-3.813919
5.710000	-20.540963
5.720000	-34.857662
5.730000	-46.269486
5.740000	-53.223462
5.750000	-56.663083
5.760000	-58.583622
5.770000	-60.045504
5.780000	-63.605871
5.790000	-66.404276
5.800000	-67.959136
5.810000	-65.748512
5.820000	-61.648801
5.830000	-57.082404
5.840000	-52.660390
5.850000	-47.402662
5.860000	-40.663553
5.870000	-33.718769
5.880000	-26.653932
5.890000	-19.692321
5.900000	-11.630711
5.910000	-4.999694
5.920000	-0.592866
5.930000	-4.311157
5.940000	-18.869581
5.950000	-43.603230
5.960000	-69.446364
5.970000	-90.894806
5.980000	-109.365124
5.990000	-127.178418
6.000000	-145.269541
6.010000	-161.108556
6.020000	-172.497493
6.030000	-178.364321
6.040000	-179.386025
6.050000	-177.612876
6.060000	-175.932450
6.070000	-173.506700
6.080000	-170.804538
6.090000	-167.052422
6.100000	-163.002699
6.110000	-157.247329
6.120000	-149.859948
6.130000	-140.429155
6.140000	-132.382561
6.150000	-123.918002
6.160000	-115.231945
6.170000	-105.725845
6.180000	-96.406813
6.190000	-88.187732
6.200000	-79.562570
6.210000	-71.644238
6.220000	-68.045847
6.230000	-73.758408
6.240000	-89.504506
6.250000	-111.848154
6.260000	-133.272178
6.270000	-152.274535
6.280000	-168.696877
6.290000	-185.362331
6.300000	-200.428545
6.310000	-212.771770
6.320000	-221.146100
6.330000	-224.835440
6.340000	-225.857154
6.350000	-224.212780
6.360000	-223.229766
6.370000	-222.565676
6.380000	-222.924097
6.390000	-223.232418
6.400000	-221.267201
6.410000	-217.892780
6.420000	-212.591521
6.430000	-206.542688
6.440000	-199.897774
6.450000	-192.509732
6.460000	-184.522649
6.470000	-176.127930
6.480000	-167.464938
6.490000	-158.061868
6.500000	-147.056769
6.510000	-135.651952
6.520000	-129.979145
6.530000	-134.888715
6.540000	-150.872940
6.550000	-171.757081
6.560000	-192.085147
6.570000	-209.617241
6.580000	-224.620390
6.590000	-238.128846
6.600000	-249.132541
6.610000	-257.625584
6.620000	-261.621476
6.630000	-262.781078
6.640000	-261.421975
6.650000	-258.252744
6.660000	-254.538945
6.670000	-250.035042
6.680000	-245.640349
6.690000	-241.128712
6.700000	-235.052697
6.710000	-227.206593
6.720000	-218.782855
6.730000	-210.931491
6.740000	-203.823957
6.750000	-195.965276
6.760000	-187.181979
6.770000	-177.646461
6.780000	-167.185329
6.790000	-155.974708
6.800000	-145.170630
6.810000	-137.285764
6.820000	-138.143928
6.830000	-149.230294
6.840000	-168.084936
6.850000	-187.473407
6.860000	-203.011954
6.870000	-216.377833
6.880000	-227.913120
6.890000	-238.594965
6.900000	-245.113286
6.910000	-248.133604
6.920000	-246.619174
6.930000	-242.323446
6.940000	-237.436275
6.950000	-234.156466
6.960000	-232.222911
6.970000	-228.624693
6.980000	-224.663953
6.990000	-219.061526
7.000000	-213.087491
7.010000	-206.135161
7.020000	-199.157064
7.030000	-193.518142
7.040000	-188.529002
7.050000	-182.539617
7.060000	-174.877881
7.070000	-165.536964
7.080000	-156.205251
7.090000	-145.833748
7.100000	-134.843398
7.110000	-126.444719
7.120000	-124.456192
7.130000	-131.023858
7.140000	-143.027065
7.150000	-156.238950
7.160000	-166.904673
7.170000	-174.768873
7.180000	-181.759944
7.190000	-188.266009
7.200000	-191.912181
7.210000	-190.735273
7.220000	-183.370165
7.230000	-173.188091
7.240000	-162.127866
7.250000	-152.612327
7.260000	-145.517845
7.270000	-139.332965
7.280000	-133.212383
7.290000	-126.356226
7.300000	-117.541356
7.310000	-106.350396
7.320000	-93.508594
7.330000	-80.648617
7.340000	-67.772676
7.350000	-54.580424
7.360000	-42.341919
7.370000	-30.140167
7.380000	-16.209200
7.390000	0.665109
7.400000	19.283664
7.410000	36.164460
7.420000	46.807651
7.430000	48.034931
7.440000	42.047474
7.450000	33.279503
7.460000	24.317093
7.470000	15.218908
7.480000	6.289400
7.490000	-2.807862
7.500000	-11.032021
7.510000	-15.125819
7.520000	-13.321236
7.530000	-6.414285
7.540000	1.082780
7.550000	8.344384
7.560000	14.523985
7.570000	19.141544
7.580000	22.672201
7.590000	27.314729
7.600000	35.191737
7.610000	44.849860
7.620000	54.749707
7.630000	65.429604
7.640000	76.343843
7.650000	88.386014
7.660000	100.639289
7.670000	113.719818
7.680000	128.976833
7.690000	144.418096
7.700000	161.029777
7.710000	176.481384
7.720000	185.783099
7.730000	185.590438
7.740000	177.591722
7.750000	169.089951
7.760000	164.434163
7.770000	164.956670
7.780000	168.643129
7.790000	175.204068
7.800000	183.225171
7.810000	194.169088
7.820000	209.517203
7.830000	228.170513
7.840000	249.855215
7.850000	271.541632
7.860000	292.911484
7.870000	313.623713
7.880000	335.351190
7.890000	357.410772
7.900000	380.506363
7.910000	404.574253
7.920000	429.373116
7.930000	455.786428
7.940000	481.276275
7.950000	507.389154
7.960000	532.884640
7.970000	558.710942
7.980000	584.201810
7.990000	609.414809
8.000000	632.895097
8.010000	652.162976
8.020000	662.629881
8.030000	663.970310
8.040000	661.427584
8.050000	659.490023
8.060000	660.600947
8.070000	661.040905
8.080000	661.167085
8.090000	662.309517
8.100000	666.450211
8.110000	672.952939
8.120000	682.452295
8.130000	694.308455
8.140000	708.839397
8.150000	722.368842
8.160000	736.623961
8.170000	749.802267
8.180000	762.798775
8.190000	774.613430
8.200000	785.359687
8.210000	795.809534
8.220000	803.628621
8.230000	810.065448
8.240000	813.940935
8.250000	818.717565
8.260000	822.956644
8.270000	828.428749
8.280000	833.680474
8.290000	840.532622
8.300000	846.442730
8.310000	846.012436
8.320000	837.933376
8.330000	824.218561
8.340000	811.152970
8.350000	798.457225
8.360000	786.090471
8.370000	773.745756
8.380000	761.412722
8.390000	750.421906
8.400000	741.784698
8.410000	738.153156
8.420000	740.201822
8.430000	748.267372
8.440000	761.666685
8.450000	777.760061
8.460000	794.851287
8.470000	810.969106
8.480000	825.423144
8.490000	838.898955
8.500000	852.045207
8.510000	865.545817
8.520000	877.710938
8.530000	888.915137
8.540000	900.763432
8.550000	913.330226
8.560000	927.534801
8.570000	941.119722
8.580000	953.025834
8.590000	957.612908
8.600000	952.241272
8.610000	937.831926
8.620000	919.183296
8.630000	902.437111
8.640000	886.487762
8.650000	869.422292
8.660000	848.171122
8.670000	827.143271
8.680000	810.234846
8.690000	800.911349
8.700000	797.332116
8.710000	794.719312
8.720000	790.483175
8.730000	782.576366
8.740000	772.357675
8.750000	760.478709
8.760000	747.946858
8.770000	736.763959
8.780000	725.239205
8.790000	713.768039
8.800000	702.911563
8.810000	694.153995
8.820000	687.625990
8.830000	682.583109
8.840000	680.725799
8.850000	679.378639
8.860000	677.541740
8.870000	669.873531
8.880000	654.077084
8.890000	630.753843
8.900000	599.988213
8.910000	567.693777
8.920000	533.926605
8.930000	500.682123
8.940000	467.567919
8.950000	434.380196
8.960000	404.260690
8.970000	378.448364
8.980000	360.334411
8.990000	348.879117
9.000000	343.450387
9.010000	339.339521
9.020000	336.954305
9.030000	334.835059
9.040000	334.506388
9.050000	334.695918
9.060000	335.769007
9.070000	338.597238
9.080000	342.064934
9.090000	346.541095
9.100000	350.393516
9.110000	354.864023
9.120000	358.752924
9.130000	363.899179
9.140000	369.475241
9.150000	376.977298
9.160000	383.220962
9.170000	384.757294
9.180000	376.330665
9.190000	358.923039
9.200000	337.151973
9.210000	315.121994
9.220000	293.330994
9.230000	269.346851
9.240000	245.556861
9.250000	222.934425
9.260000	204.822160
9.270000	191.546296
9.280000	183.787336
9.290000	179.850199
9.300000	176.446344
9.310000	172.859026
9.320000	169.472552
9.330000	166.230466
9.340000	164.198648
9.350000	163.295205
9.360000	164.624098
9.370000	167.049535
9.380000	170.080037
9.390000	174.168152
9.400000	179.229169
9.410000	184.646284
9.420000	189.738741
9.430000	195.489239
9.440000	202.941705
9.450000	211.687730
9.460000	220.835837
9.470000	229.578580
9.480000	231.740317
9.490000	222.497868
9.500000	201.681931
9.510000	178.466799
9.520000	156.966587
9.530000	137.114143
9.540000	116.601277
9.550000	96.794059
9.560000	79.258618
9.570000	63.490009
9.580000	50.608433
9.590000	42.208225
9.600000	37.973586
9.610000	35.942122
9.620000	34.693383
9.630000	33.029406
9.640000	31.436868
9.650000	30.803137
9.660000	31.864904
9.670000	34.592679
9.680000	38.642945
9.690000	45.069880
9.700000	53.433653
9.710000	61.224449
9.720000	68.915225
9.730000	76.393030
9.740000	84.414422
9.750000	92.239019
9.760000	100.598799
9.770000	109.095990
9.780000	118.466655
9.790000	123.951179
9.800000	121.683223
9.810000	109.824475
9.820000	92.929499
9.830000	77.046968
9.840000	61.836263
9.850000	46.612830
9.860000	31.088037
9.870000	17.194992
9.880000	6.013941
9.890000	-1.212987
9.900000	-3.050602
9.910000	-0.619354
9.920000	1.884647
9.930000	2.989609
9.940000	3.166019
9.950000	3.941872
9.960000	4.447477
9.970000	3.900656
9.980000	1.735416
9.990000	-0.796740
10.000000	-2.638742
10.010000	-2.488753
10.020000	-0.679738
10.030000	2.824175
10.040000	8.617670
10.050000	18.142574
10.060000	29.241276
10.070000	40.131028
10.080000	47.863649
10.090000	49.120037
10.100000	44.163710
10.110000	32.106673
10.120000	20.153059
10.130000	8.407145
10.140000	-1.854763
10.150000	-11.632754
10.160000	-20.192334
10.170000	-26.673882
10.180000	-31.201239
10.190000	-31.377112
10.200000	-29.225039
10.210000	-24.410345
10.220000	-19.593940
10.230000	-14.773530
10.240000	-9.967223
10.250000	-4.807038
10.260000	1.655980
10.270000	9.484850
10.280000	18.940497
10.290000	29.100533
10.300000	39.218817
10.310000	49.043834
10.320000	60.161384
10.330000	72.307529
10.340000	85.095360
10.350000	98.563747
10.360000	113.689539
10.370000	128.803260
10.380000	140.936986
10.390000	150.709063
10.400000	158.840759
10.410000	166.939612
10.420000	172.722424
10.430000	169.145264
10.440000	154.272566
10.450000	128.344268
10.460000	92.813013
10.470000	46.856930
10.480000	-12.797464
10.490000	-89.385079
10.500000	-196.558469
10.510000	-327.285755
10.520000	-447.386216
10.530000	-542.935225
10.540000	-614.791427
10.550000	-672.829751
10.560000	-720.092316
10.570000	-755.370706
10.580000	-778.336068
10.590000	-793.610136
10.600000	-806.934819
10.610000	-824.202275
10.620000	-844.868557
10.630000	-867.478271
10.640000	-892.828535
10.650000	-920.437828
10.660000	-949.809223
10.670000	-976.407388
10.680000	-998.819919
10.690000	-1017.069316
10.700000	-1030.183301
10.710000	-1040.429212
10.720000	-1047.562498
10.730000	-1052.147682
10.740000	-1053.628603
10.750000	-1054.230737
10.760000	-1056.385837
10.770000	-1058.326433
10.780000	-1056.161686
10.790000	-1045.111066
10.800000	-1026.980599
10.810000	-1004.590377
10.820000	-981.827916
10.830000	-961.425560
10.840000	-943.026026
10.850000	-928.960968
10.860000	-915.901650
10.870000	-901.860003
10.880000	-884.803974
10.890000	-864.791802
10.900000	-841.733112
10.910000	-817.422863
10.920000	-794.024199
10.930000	-772.077251
10.940000	-750.004097
10.950000	-726.092740
10.960000	-701.353109
10.970000	-677.137635
10.980000	-656.736065
10.990000	-642.207930
11.000000	-633.141160
11.010000	-627.636547
11.020000	-620.566604
11.030000	-609.769329
11.040000	-595.695377
11.050000	-583.277369
11.060000	-572.841240
11.070000	-563.144300
11.080000	-551.011779
11.090000	-537.720221
11.100000	-523.543107
11.110000	-509.328038
11.120000	-496.105359
11.130000	-482.292536
11.140000	-469.707575
11.150000	-454.605807
11.160000	-439.357396
11.170000	-422.272160
11.180000	-405.047508
11.190000	-385.960188
11.200000	-365.107104
11.210000	-344.016712
11.220000	-324.866456
11.230000	-306.762848
11.240000	-290.662341
11.250000	-275.200800
11.260000	-265.173400
11.270000	-263.999963
11.280000	-271.372607
11.290000	-284.156479
11.300000	-295.593708
11.310000	-305.696826
11.320000	-314.179282
11.330000	-322.273362
11.340000	-330.127282
11.350000	-336.210743
11.360000	-338.773516
11.370000	-337.517665
11.380000	-333.121362
11.390000	-328.529789
11.400000	-323.492783
11.410000	-319.579299
11.420000	-315.889851
11.430000	-312.998653
11.440000	-310.650469
11.450000	-308.450148
11.460000	-305.107853
11.470000	-300.270133
11.480000	-292.929383
11.490000	-285.465388
11.500000	-278.111004
11.510000	-270.692199
11.520000	-262.323363
11.530000	-254.625271
11.540000	-253.246175
11.550000	-259.913644
11.560000	-273.527301
11.570000	-288.890192
11.580000	-302.512550
11.590000	-313.573509
11.600000	-322.199847
11.610000	-329.291732
11.620000	-335.251892
11.630000	-338.370265
11.640000	-338.006319
11.650000	-333.481467
11.660000	-327.803637
11.670000	-323.958696
11.680000	-321.290362
11.690000	-319.135304
11.700000	-314.804237
11.710000	-308.352147
11.720000	-300.686466
11.730000	-291.932832
11.740000	-282.602386
11.750000	-271.875805
11.760000	-260.221089
11.770000	-248.519130
11.780000	-236.201668
11.790000	-224.533312
11.800000	-212.541891
11.810000	-201.252065
11.820000	-194.923383
11.830000	-197.000928
11.840000	-207.995791
11.850000	-221.429526
11.860000	-233.106693
11.870000	-242.567231
11.880000	-251.254962
11.890000	-258.731860
11.900000	-262.429423
11.910000	-257.923387
11.920000	-245.314925
11.930000	-225.816525
11.940000	-205.244912
11.950000	-186.734079
11.960000	-171.534787
11.970000	-157.674449
11.980000	-145.195139
11.990000	-134.647767
12.000000	-123.879555
12.010000	-113.326289
12.020000	-102.258802
12.030000	-93.044616
12.040000	-83.657216
12.050000	-72.461858
12.060000	-61.095723
12.070000	-49.238095
12.080000	-37.233698
12.090000	-24.375684
12.100000	-13.412001
12.110000	-9.885052
12.120000	-15.276521
12.130000	-27.415024
12.140000	-40.829213
12.150000	-51.646555
12.160000	-60.090254
12.170000	-67.244147
12.180000	-74.382112
12.190000	-78.861208
12.200000	-79.708715
12.210000	-76.844140
12.220000	-70.733502
12.230000	-65.199570
12.240000	-59.442133
12.250000	-54.924354
12.260000	-48.501172
12.270000	-41.691606
12.280000	-34.251620
12.290000	-25.487134
12.300000	-14.029654
12.310000	-0.985490
12.320000	12.161984
12.330000	23.485717
12.340000	32.996469
12.350000	43.602479
12.360000	54.124062
12.370000	65.028175
12.380000	69.870491
12.390000	66.770964
12.400000	55.258753
12.410000	38.160845
12.420000	20.624829
12.430000	4.178963
12.440000	-9.370082
12.450000	-20.169966
12.460000	-29.061841
12.470000	-34.874908
12.480000	-36.782678
12.490000	-34.275448
12.500000	-28.536155
12.510000	-23.043547
12.520000	-18.309330
12.530000	-15.173656
12.540000	-11.100936
12.550000	-5.670538
12.560000	1.078637
12.570000	9.138513
12.580000	16.558797
12.590000	25.598451
12.600000	35.002035
12.610000	46.372377
12.620000	56.404672
12.630000	67.802420
12.640000	78.767965
12.650000	85.867728
12.660000	84.100115
12.670000	72.584254
12.680000	56.756250
12.690000	39.600752
12.700000	24.386608
12.710000	8.909060
12.720000	-5.332616
12.730000	-19.148661
12.740000	-29.066362
12.750000	-34.908318
12.760000	-35.490157
12.770000	-32.702500
12.780000	-28.607100
12.790000	-23.852075
12.800000	-18.748992
12.810000	-13.694354
12.820000	-9.584659
12.830000	-4.220461
12.840000	0.877194
12.850000	8.573286
12.860000	16.967168
12.870000	26.681912
12.880000	36.359719
12.890000	45.434130
12.900000	56.067921
12.910000	67.152254
12.920000	79.088565
12.930000	87.833199
12.940000	88.749343
12.950000	79.495612
12.960000	63.400926
12.970000	45.805514
12.980000	29.688055
12.990000	14.080005
13.000000	-0.378236
13.010000	-14.005913
13.020000	-25.798599
13.030000	-33.780137
13.040000	-36.912448
13.050000	-34.913951
13.060000	-31.060181
13.070000	-26.733279
13.080000	-22.228910
13.090000	-18.244291
13.100000	-14.752833
13.110000	-10.107969
13.120000	-3.302228
13.130000	6.002867
13.140000	14.447973
13.150000	22.768099
13.160000	31.173283
13.170000	41.180205
13.180000	51.534332
13.190000	61.904932
13.200000	73.877462
13.210000	86.265595
13.220000	98.198405
13.230000	102.920441
13.240000	97.506947
13.250000	82.227870
13.260000	63.476176
13.270000	45.506692
13.280000	29.079802
13.290000	13.425367
13.300000	-1.336676
13.310000	-15.680076
13.320000	-27.100734
13.330000	-32.807095
13.340000	-32.226524
13.350000	-29.636344
13.360000	-27.034902
13.370000	-24.482389
13.380000	-21.864860
13.390000	-18.682704
13.400000	-15.051775
13.410000	-8.898877
13.420000	-0.934811
13.430000	6.859717
13.440000	14.165031
13.450000	21.265014
13.460000	29.914021
13.470000	39.976959
13.480000	49.636958
13.490000	60.677421
13.500000	71.328828
13.510000	82.363617
13.520000	91.658223
13.530000	94.354510
13.540000	87.638835
13.550000	70.663129
13.560000	51.289089
13.570000	32.270163
13.580000	15.583047
13.590000	-0.152796
13.600000	-16.477481
13.610000	-31.587227
13.620000	-43.892531
13.630000	-50.037347
13.640000	-50.672401
13.650000	-48.847816
13.660000	-46.469496
13.670000	-44.007984
13.680000	-41.953561
13.690000	-38.515410
13.700000	-35.133296
13.710000	-30.368333
13.720000	-24.003063
13.730000	-16.576618
13.740000	-8.893447
13.750000	-2.473363
13.760000	5.207506
13.770000	15.607257
13.780000	27.280839
13.790000	39.002227
13.800000	49.668318
13.810000	61.720801
13.820000	73.023819
13.830000	79.414463
13.840000	75.356263
13.850000	60.436304
13.860000	40.352992
13.870000	19.101024
13.880000	-0.338782
13.890000	-19.265003
13.900000	-36.709934
13.910000	-53.655263
13.920000	-68.425943
13.930000	-78.395005
13.940000	-82.832534
13.950000	-81.822295
13.960000	-79.602456
13.970000	-77.259455
13.980000	-75.389499
13.990000	-73.712617
14.000000	-70.524309
14.010000	-66.189747
14.020000	-60.007746
14.030000	-52.688915
14.040000	-44.842335
14.050000	-36.537970
14.060000	-27.694480
14.070000	-18.071161
14.080000	-7.899096
14.090000	2.043032
14.100000	12.215308
14.110000	24.142498
14.120000	36.303762
14.130000	47.893073
14.140000	53.027480
14.150000	48.299720
14.160000	33.409067
14.170000	13.036115
14.180000	-7.558290
14.190000	-27.924512
14.200000	-47.876783
14.210000	-67.904008
14.220000	-86.874445
14.230000	-104.569569
14.240000	-117.546743
14.250000	-124.591343
14.260000	-125.572047
14.270000	-123.973012
14.280000	-121.609331
14.290000	-119.368631
14.300000	-117.661736
14.310000	-116.446033
14.320000	-113.725065
14.330000	-108.876765
14.340000	-102.140245
14.350000	-94.325142
14.360000	-85.903838
14.370000	-76.787914
14.380000	-67.685480
14.390000	-57.929362
14.400000	-48.487325
14.410000	-39.083031
14.420000	-29.972862
14.430000	-20.248989
14.440000	-10.812111
14.450000	-3.432671
14.460000	-2.674291
14.470000	-11.627490
14.480000	-29.875277
14.490000	-51.488868
14.500000	-72.095492
14.510000	-90.039253
14.520000	-107.340605
14.530000	-123.597708
14.540000	-138.266639
14.550000	-148.831982
14.560000	-154.879600
14.570000	-156.749401
14.580000	-155.174634
14.590000	-152.017499
14.600000	-147.813519
14.610000	-143.634481
14.620000	-139.129156
14.630000	-133.931997
14.640000	-127.792261
14.650000	-121.579657
14.660000	-113.795840
14.670000	-104.578699
14.680000	-93.477936
14.690000	-82.263882
14.700000	-70.834840
14.710000	-58.961907
14.720000	-46.872764
14.730000	-35.006854
14.740000	-22.586926
14.750000	-10.068004
14.760000	3.022066
14.770000	13.514880
14.780000	15.611294
14.790000	6.092407
14.800000	-11.125565
14.810000	-29.668907
14.820000	-46.550556
14.830000	-62.452367
14.840000	-78.321584
14.850000	-92.908340
14.860000	-105.773291
14.870000	-113.701714
14.880000	-115.909937
14.890000	-114.180302
14.900000	-110.725834
14.910000	-107.001445
14.920000	-103.216182
14.930000	-99.834395
14.940000	-97.718629
14.950000	-94.001340
14.960000	-88.238538
14.970000	-79.845267
14.980000	-70.776023
14.990000	-61.696151
15.000000	-51.318540
15.010000	-41.231892
15.020000	-30.196809
15.030000	-19.116935
15.040000	-7.414320
15.050000	3.984017
15.060000	15.695978
15.070000	28.074578
15.080000	38.789348
15.090000	44.151958
15.100000	39.537465
15.110000	26.570593
15.120000	8.280300
15.130000	-9.679263
15.140000	-24.994972
15.150000	-38.947818
15.160000	-51.943229
15.170000	-64.893049
15.180000	-74.555259
15.190000	-79.518384
15.200000	-79.177808
15.210000	-75.826543
15.220000	-70.805837
15.230000	-65.141823
15.240000	-59.774843
15.250000	-55.130127
15.260000	-51.083337
15.270000	-45.453673
15.280000	-38.071470
15.290000	-29.118856
15.300000	-19.736130
15.310000	-9.453405
15.320000	1.924778
15.330000	13.201320
15.340000	23.914246
15.350000	34.518548
15.360000	46.566824
15.370000	59.155902
15.380000	71.881083
15.390000	84.453997
15.400000	93.848353
15.410000	95.074004
15.420000	84.814299
15.430000	67.710052
15.440000	48.775564
15.450000	32.004363
15.460000	16.384251
15.470000	0.960107
15.480000	-13.340509
15.490000	-25.756453
15.500000	-34.066334
15.510000	-38.150422
15.520000	-38.131022
15.530000	-34.884556
15.540000	-31.539883
15.550000	-27.947566
15.560000	-24.621675
15.570000	-20.343487
15.580000	-15.378441
15.590000	-9.408595
15.600000	-1.805034
15.610000	6.518150
15.620000	16.436150
15.630000	26.768888
15.640000	38.011681
15.650000	48.343113
15.660000	59.593866
15.670000	72.577943
15.680000	86.836057
15.690000	101.140939
15.700000	114.409024
15.710000	127.706992
15.720000	136.630887
15.730000	136.269010
15.740000	125.527364
15.750000	109.512287
15.760000	93.087505
15.770000	79.081070
15.780000	65.966884
15.790000	53.651751
15.800000	42.512280
15.810000	31.884399
15.820000	24.732565
15.830000	21.441648
15.840000	23.955583
15.850000	29.317318
15.860000	34.844666
15.870000	39.863911
15.880000	44.401175
15.890000	49.411990
15.900000	54.954249
15.910000	61.293097
15.920000	69.174530
15.930000	77.836042
15.940000	88.733647
15.950000	100.036130
15.960000	111.296164
15.970000	122.570627
15.980000	133.858304
15.990000	147.110362
16.000000	159.741284
16.010000	172.325499
16.020000	183.619416
16.030000	195.549578
16.040000	205.819605
16.050000	209.433315
16.060000	202.356261
16.070000	187.002006
16.080000	168.902140
16.090000	151.565881
16.100000	135.774679
16.110000	119.790401
16.120000	105.324336
16.130000	92.010269
16.140000	81.547463
16.150000	76.232985
16.160000	75.430480
16.170000	78.456929
16.180000	82.308553
16.190000	86.355562
16.200000	91.860065
16.210000	96.245301
16.220000	101.425634
16.230000	106.796581
16.240000	114.667737
16.250000	123.673033
16.260000	132.578873
16.270000	140.218407
16.280000	147.832095
16.290000	157.434782
16.300000	168.079457
16.310000	178.653041
16.320000	189.667017
16.330000	201.874431
16.340000	213.917978
16.350000	225.434475
16.360000	234.834890
16.370000	239.995761
16.380000	236.414700
16.390000	224.907810
16.400000	208.336338
16.410000	191.829016
16.420000	176.583493
16.430000	163.753131
16.440000	150.823654
16.450000	139.692491
16.460000	131.063712
16.470000	126.303556
16.480000	125.971486
16.490000	127.241968
16.500000	131.561011
16.510000	135.169478
16.520000	138.498816
16.530000	140.095288
16.540000	141.782475
16.550000	145.692168
16.560000	152.064533
16.570000	160.624600
16.580000	169.679700
16.590000	178.563556
16.600000	186.966252
16.610000	194.506088
16.620000	201.926366
16.630000	209.785282
16.640000	218.556783
16.650000	228.400842
16.660000	237.853328
16.670000	247.693179
16.680000	256.481088
16.690000	262.990096
16.700000	262.436430
16.710000	251.628759
16.720000	232.743907
16.730000	211.614870
16.740000	192.718415
16.750000	175.925769
16.760000	158.690398
16.770000	141.582689
16.780000	125.333626
16.790000	112.916581
16.800000	106.645865
16.810000	105.913275
16.820000	108.290608
16.830000	109.910191
16.840000	110.950646
16.850000	110.909422
16.860000	111.621293
16.870000	113.910070
16.880000	118.629552
16.890000	124.575930
16.900000	131.645030
16.910000	140.247405
16.920000	149.661598
16.930000	159.925162
16.940000	169.678527
16.950000	179.612746
16.960000	190.031915
16.970000	201.638943
16.980000	213.384671
16.990000	223.333545
17.000000	228.739363
17.010000	224.693026
17.020000	210.442950
17.030000	189.401406
17.040000	167.825132
17.050000	147.434762
17.060000	128.875111
17.070000	111.802804
17.080000	95.260786
17.090000	78.843056
17.100000	64.991626
17.110000	56.889331
17.120000	53.715438
17.130000	53.603347
17.140000	53.439750
17.150000	53.998610
17.160000	54.831252
17.170000	56.734484
17.180000	60.560073
17.190000	65.803779
17.200000	72.962096
17.210000	82.543536
17.220000	95.034463
17.230000	109.951008
17.240000	125.774343
17.250000	141.028927
17.260000	155.855629
17.270000	171.112423
17.280000	186.604268
17.290000	202.199642
17.300000	215.349786
17.310000	221.284245
17.320000	216.101143
17.330000	198.379079
17.340000	174.544104
17.350000	150.141508
17.360000	126.980110
17.370000	104.901802
17.380000	81.747181
17.390000	58.005894
17.400000	35.521116
17.410000	16.447278
17.420000	4.970359
17.430000	-0.791653
17.440000	-3.914034
17.450000	-7.026427
17.460000	-10.790130
17.470000	-13.251171
17.480000	-15.003755
17.490000	-14.132929
17.500000	-10.887270
17.510000	-5.679128
17.520000	0.563765
17.530000	7.111139
17.540000	14.688013
17.550000	22.566589
17.560000	32.488172
17.570000	43.349980
17.580000	54.291373
17.590000	64.469088
17.600000	74.099777
17.610000	81.251207
17.620000	80.567648
17.630000	68.373434
17.640000	46.720030
17.650000	22.511056
17.660000	-2.138718
17.670000	-26.686997
17.680000	-54.004909
17.690000	-83.540430
17.700000	-111.861352
17.710000	-135.725926
17.720000	-151.381309
17.730000	-159.254532
17.740000	-163.242470
17.750000	-165.443247
17.760000	-167.768209
17.770000	-169.289296
17.780000	-168.958791
17.790000	-166.135003
17.800000	-159.145122
17.810000	-146.646903
17.820000	-128.667201
17.830000	-108.834048
17.840000	-92.526142
17.850000	-82.679907
17.860000	-76.033514
17.870000	-69.525133
17.880000	-61.543719
17.890000	-53.711454
17.900000	-50.059451
17.910000	-55.231731
17.920000	-70.899321
17.930000	-95.074291
17.940000	-122.061369
17.950000	-148.254979
17.960000	-173.231239
17.970000	-197.771421
17.980000	-221.731036
17.990000	-242.613898
18.000000	-258.565111
18.010000	-268.123329
18.020000	-272.071245
18.030000	-272.301722
18.040000	-272.581790
18.050000	-273.136334
18.060000	-274.759861
18.070000	-275.629731
18.080000	-275.274293
18.090000	-272.453678
18.100000	-267.124680
18.110000	-260.948312
18.120000	-252.967218
18.130000	-244.448401
18.140000	-234.135505
18.150000	-223.622331
18.160000	-213.968335
18.170000	-203.454635
18.180000	-193.475716
18.190000	-184.951631
18.200000	-182.993929
18.210000	-191.444449
18.220000	-208.830178
18.230000	-231.263257
18.240000	-252.325419
18.250000	-271.430678
18.260000	-291.161944
18.270000	-310.587677
18.280000	-328.664038
18.290000	-341.068193
18.300000	-348.178210
18.310000	-349.879833
18.320000	-348.030247
18.330000	-346.362379
18.340000	-344.536823
18.350000	-345.185444
18.360000	-345.694647
18.370000	-345.345998
18.380000	-341.512809
18.390000	-335.182014
18.400000	-327.664018
18.410000	-319.013361
18.420000	-310.818171
18.430000	-304.509625
18.440000	-299.298189
18.450000	-292.332135
18.460000	-281.445276
18.470000	-268.497499
18.480000	-255.591433
18.490000	-243.657986
18.500000	-237.412930
18.510000	-239.811852
18.520000	-252.228230
18.530000	-270.949830
18.540000	-289.032665
18.550000	-305.435293
18.560000	-318.499941
18.570000	-331.264781
18.580000	-342.620208
18.590000	-350.088149
18.600000	-351.739542
18.610000	-347.246725
18.620000	-339.866113
18.630000	-331.732860
18.640000	-324.655670
18.650000	-316.872982
18.660000	-308.447269
18.670000	-298.006100
18.680000	-288.246887
18.690000	-278.125684
18.700000	-268.047125
18.710000	-255.901568
18.720000	-242.184285
18.730000	-228.008811
18.740000	-213.648692
18.750000	-199.111436
18.760000	-183.105532
18.770000	-167.217855
18.780000	-151.219829
18.790000	-137.326649
18.800000	-128.665512
18.810000	-129.768064
18.820000	-140.092573
18.830000	-155.193954
18.840000	-169.845900
18.850000	-182.625248
18.860000	-194.600908
18.870000	-205.714828
18.880000	-215.683221
18.890000	-220.455196
18.900000	-218.099032
18.910000	-209.530937
18.920000	-199.185261
18.930000	-188.258410
18.940000	-179.268950
18.950000	-168.629476
18.960000	-157.693106
18.970000	-144.317706
18.980000	-130.120884
18.990000	-114.325851
19.000000	-95.874242
19.010000	-78.005351
19.020000	-60.945404
19.030000	-47.016547
19.040000	-31.322540
19.050000	-15.705243
19.060000	1.651518
19.070000	16.931880
19.080000	31.314054
19.090000	40.228118
19.100000	41.324398
19.110000	33.536396
19.120000	21.692923
19.130000	11.856859
19.140000	3.385299
19.150000	-3.143581
19.160000	-9.586464
19.170000	-14.124573
19.180000	-15.884664
19.190000	-13.427711
19.200000	-8.180964
19.210000	-1.052844
19.220000	5.194364
19.230000	11.007695
19.240000	16.579323
19.250000	23.081398
19.260000	31.307186
19.270000	40.829165
19.280000	52.382465
19.290000	64.582138
19.300000	77.472840
19.310000	90.344344
19.320000	103.577656
19.330000	117.451185
19.340000	131.692680
19.350000	147.574124
19.360000	163.812680
19.370000	180.379301
19.380000	193.601601
19.390000	198.860939
19.400000	195.079439
19.410000	184.363982
19.420000	172.580388
19.430000	161.535458
19.440000	152.091786
19.450000	144.050520
19.460000	136.614835
19.470000	131.586135
19.480000	130.483984
19.490000	132.462250
19.500000	137.703076
19.510000	143.009656
19.520000	149.949277
19.530000	156.227266
19.540000	161.882818
19.550000	167.460644
19.560000	174.834505
19.570000	184.705412
19.580000	195.461230
19.590000	205.966328
19.600000	217.776966
19.610000	230.236225
19.620000	243.109031
19.630000	256.522396
19.640000	269.787574
19.650000	284.496988
19.660000	298.137100
19.670000	313.167602
19.680000	327.824153
19.690000	340.521268
19.700000	345.850028
19.710000	341.566376
19.720000	330.572881
19.730000	318.969867
19.740000	308.633820
19.750000	299.718400
19.760000	291.375198
19.770000	284.822547
19.780000	280.130106
19.790000	278.947799
19.800000	280.896280
19.810000	285.422822
19.820000	291.010127
19.830000	295.580031
19.840000	300.149602
19.850000	304.417481
19.860000	310.980968
19.870000	318.929287
19.880000	328.499540
19.890000	338.454492
19.900000	349.039689
19.910000	359.995871
19.920000	370.261918
19.930000	380.225562
19.940000	391.170992
19.950000	403.804764
19.960000	416.424591
19.970000	428.070521
19.980000	439.367098
19.990000	449.684092
20.000000	454.984878
20.010000	451.650136
20.020000	439.630485
20.030000	423.313081
20.040000	406.626236
20.050000	391.655724
20.060000	377.966508
20.070000	364.013444
20.080000	350.664882
20.090000	338.053961
20.100000	330.392616
20.110000	327.099478
20.120000	327.471519
20.130000	328.824390
20.140000	329.905858
20.150000	330.236259
20.160000	330.361179
20.170000	332.337103
20.180000	335.828078
20.190000	340.790223
20.200000	345.976467
20.210000	352.935801
20.220000	359.131731
20.230000	365.107918
20.240000	370.970516
20.250000	378.970625
20.260000	388.486085
20.270000	398.516942
20.280000	408.687986
20.290000	419.416687
20.300000	430.238681
20.310000	435.319527
20.320000	431.146892
20.330000	417.582729
20.340000	398.751191
20.350000	379.198091
20.360000	359.027575
20.370000	340.503616
20.380000	321.977387
20.390000	304.500674
20.400000	288.944092
20.410000	276.515989
20.420000	269.263698
20.430000	265.872601
20.440000	264.933509
20.450000	264.578348
20.460000	263.287936
20.470000	262.308610
20.480000	262.658581
20.490000	266.057567
20.500000	272.374166
20.510000	279.150078
20.520000	287.115039
20.530000	294.585743
20.540000	302.880520
20.550000	311.699911
20.560000	322.667473
20.570000	335.491586
20.580000	348.132301
20.590000	359.301241
20.600000	369.618190
20.610000	379.459281
20.620000	388.785226
20.630000	395.293292
20.640000	393.625952
20.650000	380.147337
20.660000	356.496364
20.670000	330.032180
20.680000	304.371468
20.690000	278.586060
20.700000	253.599727
20.710000	229.151301
20.720000	206.847610
20.730000	186.058099
20.740000	169.786384
20.750000	157.636342
20.760000	149.072097
20.770000	143.227539
20.780000	137.366403
20.790000	130.169561
20.800000	120.675158
20.810000	110.130987
20.820000	99.663448
20.830000	88.767667
20.840000	77.666670
20.850000	67.753691
20.860000	59.346266
20.870000	54.423470
20.880000	51.695939
20.890000	51.443142
20.900000	54.392288
20.910000	59.135592
20.920000	66.439780
20.930000	75.836347
20.940000	86.497844
20.950000	97.214137
20.960000	106.900867
20.970000	115.271926
20.980000	118.973128
20.990000	112.668461
21.000000	94.732963
21.010000	68.088053
21.020000	38.511068
21.030000	10.848705
21.040000	-15.381995
21.050000	-41.382623
21.060000	-68.264962
21.070000	-92.926006
21.080000	-113.475035
21.090000	-128.795435
21.100000	-138.678331
21.110000	-145.329035
21.120000	-149.535416
21.130000	-154.192913
21.140000	-158.373296
21.150000	-163.053460
21.160000	-166.528720
21.170000	-167.239452
21.180000	-166.015891
21.190000	-162.413930
21.200000	-159.170586
21.210000	-154.234176
21.220000	-149.328035
21.230000	-143.706825
21.240000	-137.480482
21.250000	-130.839139
21.260000	-123.624879
21.270000	-115.631021
21.280000	-107.765499
21.290000	-99.746256
21.300000	-92.235460
21.310000	-84.852164
21.320000	-76.029159
21.330000	-66.625189
21.340000	-56.146387
21.350000	-50.743831
21.360000	-56.591164
21.370000	-74.842964
21.380000	-101.014853
21.390000	-128.597723
21.400000	-154.442410
21.410000	-180.695120
21.420000	-207.191835
21.430000	-232.784813
21.440000	-255.601051
21.450000	-273.870018
21.460000	-287.343125
21.470000	-294.614169
21.480000	-298.091245
21.490000	-300.354472
21.500000	-302.831988
21.510000	-304.082787
21.520000	-304.239716
21.530000	-303.808224
21.540000	-300.302092
21.550000	-295.541785
21.560000	-288.352636
21.570000	-281.282057
21.580000	-273.724432
21.590000	-266.355854
21.600000	-259.425148
21.610000	-250.084659
21.620000	-240.135565
21.630000	-228.803408
21.640000	-217.515797
21.650000	-205.179079
21.660000	-192.899331
21.670000	-181.217203
21.680000	-168.273690
21.690000	-153.924193
21.700000	-138.313075
21.710000	-123.634452
21.720000	-115.024920
21.730000	-117.007478
21.740000	-131.393841
21.750000	-153.025952
21.760000	-176.092296
21.770000	-196.380215
21.780000	-214.468708
21.790000	-232.737621
21.800000	-251.170135
21.810000	-269.760050
21.820000	-283.857196
21.830000	-292.791863
21.840000	-296.878804
21.850000	-299.497326
21.860000	-303.230181
21.870000	-306.189187
21.880000	-309.254558
21.890000	-310.873145
21.900000	-311.282681
21.910000	-309.218516
21.920000	-306.317692
21.930000	-303.226794
21.940000	-301.019545
21.950000	-298.227130
21.960000	-294.724164
21.970000	-290.226140
21.980000	-284.093620
21.990000	-277.897063
22.000000	-268.783465
22.010000	-259.248576
22.020000	-250.134695
22.030000	-242.600240
22.040000	-234.141839
22.050000	-223.287397
22.060000	-211.155446
22.070000	-200.311225
22.080000	-195.173524
22.090000	-199.666424
22.100000	-213.847059
22.110000	-234.010715
22.120000	-255.183208
22.130000	-277.033871
22.140000	-299.853853
22.150000	-322.051316
22.160000	-342.191061
22.170000	-358.734615
22.180000	-373.871312
22.190000	-384.736837
22.200000	-391.559526
22.210000	-395.741747
22.220000	-400.251496
22.230000	-405.071235
22.240000	-408.605230
22.250000	-411.406043
22.260000	-412.955425
22.270000	-413.743000
22.280000	-412.633849
22.290000	-411.086412
22.300000	-407.302634
22.310000	-401.100205
22.320000	-392.638267
22.330000	-381.779056
22.340000	-369.643192
22.350000	-355.786070
22.360000	-342.655147
22.370000	-330.118375
22.380000	-317.665057
22.390000	-304.782955
22.400000	-291.007324
22.410000	-277.784958
22.420000	-264.008027
22.430000	-249.789042
22.440000	-235.341009
22.450000	-226.139522
22.460000	-228.675327
22.470000	-242.469344
22.480000	-262.662701
22.490000	-281.790360
22.500000	-298.665604
22.510000	-313.446618
22.520000	-327.670438
22.530000	-342.433070
22.540000	-354.661818
22.550000	-363.089064
22.560000	-363.977587
22.570000	-359.425509
22.580000	-351.958873
22.590000	-344.761350
22.600000	-339.600435
22.610000	-334.083172
22.620000	-329.248742
22.630000	-322.726185
22.640000	-316.238752
22.650000	-309.694572
22.660000	-304.563311
22.670000	-300.320974
22.680000	-294.546043
22.690000	-288.621102
22.700000	-280.515906
22.710000	-270.590857
22.720000	-257.477300
22.730000	-241.561600
22.740000	-224.438065
22.750000	-205.188042
22.760000	-184.064531
22.770000	-158.134764
22.780000	-129.366698
22.790000	-99.743648
22.800000	-74.339350
22.810000	-57.345314
22.820000	-49.965544
22.830000	-50.935154
22.840000	-55.911447
22.850000	-62.859369
22.860000	-68.849470
22.870000	-75.791325
22.880000	-83.776824
22.890000	-91.714226
22.900000	-97.027503
22.910000	-97.966668
22.920000	-94.610347
22.930000	-87.881776
22.940000	-78.853819
22.950000	-69.125082
22.960000	-60.090018
22.970000	-52.359390
22.980000	-47.989879
22.990000	-45.242832
23.000000	-40.878374
23.010000	-31.785920
23.020000	-22.446878
23.030000	-22.000825
23.040000	-29.981221
23.050000	-36.849569
23.060000	-31.837474
23.070000	-15.387592
23.080000	5.964520
23.090000	29.426450
23.100000	55.450679
23.110000	83.245796
23.120000	108.937224
23.130000	126.067035
23.140000	131.776110
23.150000	124.567940
23.160000	108.305772
23.170000	91.424255
23.180000	80.172416
23.190000	76.946436
23.200000	76.360933
23.210000	71.474384
23.220000	58.568472
23.230000	39.026642
23.240000	21.138739
23.250000	11.919284
23.260000	14.041095
23.270000	23.470981
23.280000	34.616770
23.290000	46.379414
23.300000	57.536629
23.310000	67.968858
23.320000	77.133433
23.330000	85.572848
23.340000	94.075938
23.350000	102.519483
23.360000	111.365326
23.370000	120.142288
23.380000	130.338951
23.390000	140.770060
23.400000	151.996471
23.410000	163.407166
23.420000	176.004429
23.430000	191.392051
23.440000	207.682375
23.450000	225.730831
23.460000	241.025389
23.470000	252.091210
23.480000	255.376069
23.490000	250.473713
23.500000	240.416451
23.510000	228.537410
23.520000	219.808476
23.530000	212.931131
23.540000	206.547689
23.550000	197.667821
23.560000	188.314895
23.570000	180.418575
23.580000	176.765540
23.590000	177.844202
23.600000	181.891283
23.610000	188.287680
23.620000	192.688262
23.630000	197.096827
23.640000	201.828926
23.650000	208.925793
23.660000	218.312280
23.670000	229.435371
23.680000	243.148174
23.690000	258.288176
23.700000	274.668928
23.710000	291.153967
23.720000	307.207009
23.730000	322.369062
23.740000	336.762521
23.750000	350.934565
23.760000	363.996739
23.770000	376.520132
23.780000	388.913301
23.790000	402.123369
23.800000	416.176924
23.810000	427.733676
23.820000	433.122682
23.830000	428.025305
23.840000	416.106858
23.850000	402.002805
23.860000	389.438456
23.870000	378.988289
23.880000	369.448518
23.890000	360.994281
23.900000	354.477199
23.910000	350.015056
23.920000	349.527662
23.930000	352.379010
23.940000	356.925588
23.950000	362.763292
23.960000	369.340056
23.970000	378.170223
23.980000	386.760512
23.990000	395.268114
24.000000	403.864705
24.010000	414.387624
24.020000	424.641545
24.030000	434.529966
24.040000	445.105280
24.050000	456.687372
24.060000	468.917563
24.070000	482.197275
24.080000	495.409414
24.090000	508.727790
24.100000	519.577437
24.110000	529.620317
24.120000	539.760404
24.130000	548.857568
24.140000	557.297879
24.150000	562.771037
24.160000	566.862981
24.170000	568.026126
24.180000	565.781208
24.190000	556.623054
24.200000	543.066075
24.210000	528.572645
24.220000	516.032710
24.230000	507.202408
24.240000	502.010890
24.250000	499.512940
24.260000	496.666417
24.270000	493.180734
24.280000	489.674075
24.290000	487.533535
24.300000	484.019885
24.310000	480.580575
24.320000	477.378157
24.330000	475.312211
24.340000	473.748033
24.350000	473.396603
24.360000	477.139501
24.370000	484.487270
24.380000	493.542536
24.390000	502.259527
24.400000	510.967319
24.410000	518.710037
24.420000	525.075264
24.430000	527.837120
24.440000	527.873168
24.450000	526.647125
24.460000	529.028280
24.470000	534.790862
24.480000	545.536003
24.490000	557.935185
24.500000	571.398568
24.510000	579.744661
24.520000	579.281670
24.530000	569.910888
24.540000	553.516949
24.550000	536.435916
24.560000	519.082379
24.570000	503.645402
24.580000	488.316247
24.590000	473.540328
24.600000	459.896223
24.610000	448.783073
24.620000	441.822196
24.630000	437.696286
24.640000	431.750690
24.650000	423.967067
24.660000	414.357244
24.670000	407.929354
24.680000	402.287718
24.690000	399.247263
24.700000	400.561881
24.710000	407.908614
24.720000	422.845832
24.730000	441.230880
24.740000	461.814092
24.750000	483.228974
24.760000	508.136012
24.770000	536.562216
24.780000	565.458307
24.790000	590.567408
24.800000	610.797667
24.810000	626.250684
24.820000	634.471242
24.830000	632.941452
24.840000	619.152262
24.850000	597.993047
24.860000	574.507294
24.870000	552.380914
24.880000	535.536051
24.890000	517.078553
24.900000	494.582962
24.910000	469.124753
24.920000	456.341875
24.930000	458.806798
24.940000	464.064300
24.950000	461.164147
24.960000	442.466704
24.970000	402.336819
24.980000	335.325216
24.990000	236.708851
25.000000	123.599698
25.010000	12.422912
25.020000	-71.594441
25.030000	-133.790653
25.040000	-179.528943
25.050000	-207.876873
25.060000	-222.468336
25.070000	-229.145763
25.080000	-230.732095
25.090000	-231.418031
25.100000	-232.320660
25.110000	-235.025124
25.120000	-240.574901
25.130000	-248.629200
25.140000	-263.843937
25.150000	-286.556105
25.160000	-316.446145
25.170000	-348.137712
25.180000	-376.049997
25.190000	-399.401651
25.200000	-417.657285
25.210000	-431.672446
25.220000	-441.599280
25.230000	-448.950552
25.240000	-455.545960
25.250000	-459.556075
25.260000	-461.837718
25.270000	-463.500250
25.280000	-466.135682
25.290000	-469.110110
25.300000	-469.766804
25.310000	-468.400371
25.320000	-463.732813
25.330000	-458.039838
25.340000	-452.368464
25.350000	-447.351420
25.360000	-442.340749
25.370000	-434.998741
25.380000	-425.660982
25.390000	-414.319281
25.400000	-402.326004
25.410000	-390.980947
25.420000	-379.326311
25.430000	-366.985909
25.440000	-351.329002
25.450000	-334.345681
25.460000	-321.684065
25.470000	-317.711129
25.480000	-322.035455
25.490000	-329.740412
25.500000	-337.734988
25.510000	-345.787539
25.520000	-354.446849
25.530000	-362.506890
25.540000	-369.838902
25.550000	-374.899775
25.560000	-377.913412
25.570000	-377.967328
25.580000	-374.667313
25.590000	-369.718792
25.600000	-363.094779
25.610000	-357.155309
25.620000	-352.529490
25.630000	-346.929315
25.640000	-340.316047
25.650000	-331.713246
25.660000	-323.123449
25.670000	-312.833125
25.680000	-301.283081
25.690000	-289.969039
25.700000	-278.450686
25.710000	-266.117928
25.720000	-252.632631
25.730000	-239.285033
25.740000	-225.155730
25.750000	-211.472068
25.760000	-200.027897
25.770000	-197.687350
25.780000	-205.231151
25.790000	-222.581543
25.800000	-243.097787
25.810000	-262.831343
25.820000	-280.653850
25.830000	-296.766610
25.840000	-312.227548
25.850000	-325.376491
25.860000	-334.817514
25.870000	-339.335873
25.880000	-340.764980
25.890000	-338.972440
25.900000	-336.067976
25.910000	-332.955187
25.920000	-331.055337
25.930000	-330.283520
25.940000	-327.718075
25.950000	-324.305758
25.960000	-320.395894
25.970000	-316.010592
25.980000	-310.421921
25.990000	-304.069001
26.000000	-297.131036
26.010000	-290.479881
26.020000	-282.851617
26.030000	-274.244989
26.040000	-265.926533
26.050000	-257.021828
26.060000	-253.036675
26.070000	-257.477632
26.080000	-273.162800
26.090000	-296.266481
26.100000	-320.633906
26.110000	-344.418622
26.120000	-366.792679
26.130000	-387.925115
26.140000	-408.972522
26.150000	-427.105758
26.160000	-442.178233
26.170000	-450.294675
26.180000	-453.084419
26.190000	-451.500430
26.200000	-449.684788
26.210000	-449.385090
26.220000	-448.961388
26.230000	-448.292842
26.240000	-445.585696
26.250000	-442.228350
26.260000	-435.551250
26.270000	-425.523537
26.280000	-412.871352
26.290000	-398.839318
26.300000	-383.540885
26.310000	-368.511573
26.320000	-353.224012
26.330000	-338.874513
26.340000	-323.584668
26.350000	-307.595937
26.360000	-294.306675
26.370000	-289.342843
26.380000	-295.707522
26.390000	-312.431561
26.400000	-331.775841
26.410000	-350.886439
26.420000	-368.868958
26.430000	-387.033459
26.440000	-405.645295
26.450000	-421.189518
26.460000	-433.784365
26.470000	-440.021976
26.480000	-439.952341
26.490000	-433.874516
26.500000	-426.485114
26.510000	-420.407399
26.520000	-416.365357
26.530000	-411.951011
26.540000	-405.266307
26.550000	-396.185439
26.560000	-385.522426
26.570000	-375.108550
26.580000	-362.786779
26.590000	-350.729370
26.600000	-337.727627
26.610000	-324.039961
26.620000	-308.684098
26.630000	-292.039946
26.640000	-275.996988
26.650000	-261.055004
26.660000	-250.670171
26.670000	-247.754021
26.680000	-255.362484
26.690000	-271.791976
26.700000	-291.395922
26.710000	-310.854885
26.720000	-329.455017
26.730000	-347.605986
26.740000	-364.529223
26.750000	-378.038194
26.760000	-388.294786
26.770000	-393.148889
26.780000	-393.754186
26.790000	-391.611891
26.800000	-391.239815
26.810000	-394.752823
26.820000	-404.076034
26.830000	-415.228561
26.840000	-423.594784
26.850000	-428.733281
26.860000	-428.793754
26.870000	-424.595995
26.880000	-416.341589
26.890000	-404.810760
26.900000	-390.906788
26.910000	-373.704089
26.920000	-355.831895
26.930000	-338.944775
26.940000	-322.099788
26.950000	-306.541272
26.960000	-292.715175
26.970000	-285.499511
26.980000	-287.674246
26.990000	-299.800979
27.000000	-317.301731
27.010000	-336.788118
27.020000	-355.279278
27.030000	-373.467490
27.040000	-391.270040
27.050000	-408.829355
27.060000	-423.267578
27.070000	-430.870522
27.080000	-431.623399
27.090000	-426.930230
27.100000	-423.006932
27.110000	-419.319076
27.120000	-416.073360
27.130000	-410.714373
27.140000	-403.494712
27.150000	-394.790392
27.160000	-383.258229
27.170000	-370.888956
27.180000	-357.361951
27.190000	-343.002343
27.200000	-326.139733
27.210000	-308.136760
27.220000	-288.257608
27.230000	-267.621949
27.240000	-245.716493
27.250000	-224.124876
27.260000	-200.843987
27.270000	-176.647035
27.280000	-152.984760
27.290000	-132.182827
27.300000	-119.143651
27.310000	-114.384089
27.320000	-119.649906
27.330000	-128.573532
27.340000	-138.175739
27.350000	-144.771110
27.360000	-149.391074
27.370000	-152.978129
27.380000	-157.619040
27.390000	-158.843095
27.400000	-154.529218
27.410000	-145.057155
27.420000	-133.789613
27.430000	-123.611725
27.440000	-113.046313
27.450000	-103.181425
27.460000	-92.637449
27.470000	-80.760794
27.480000	-67.905489
27.490000	-53.678708
27.500000	-38.181943
27.510000	-20.935208
27.520000	-3.470565
27.530000	13.804947
27.540000	29.899646
27.550000	45.878063
27.560000	60.591299
27.570000	74.616984
27.580000	87.942600
27.590000	100.350149
27.600000	113.293509
27.610000	126.406870
27.620000	140.309215
27.630000	149.776508
27.640000	151.325537
27.650000	143.815282
27.660000	132.021015
27.670000	119.848107
27.680000	108.706277
27.690000	99.877420
27.700000	91.713865
27.710000	82.570643
27.720000	72.389911
27.730000	64.270164
27.740000	63.068613
27.750000	65.612317
27.760000	70.751087
27.770000	76.951830
27.780000	84.102737
27.790000	91.956437
27.800000	98.448388
27.810000	105.303973
27.820000	113.457913
27.830000	123.984796
27.840000	135.794588
27.850000	148.333710
27.860000	159.460374
27.870000	170.693008
27.880000	182.122758
27.890000	195.724851
27.900000	212.449885
27.910000	229.413904
27.920000	247.120909
27.930000	263.764718
27.940000	281.805270
27.950000	299.104705
27.960000	312.154512
27.970000	315.441338
27.980000	307.851497
27.990000	293.795643
28.000000	280.559047
28.010000	270.806762
28.020000	261.587507
28.030000	250.154945
28.040000	235.958663
28.050000	222.183546
28.060000	209.660339
28.070000	200.552952
28.080000	197.032667
28.090000	198.920023
28.100000	205.741799
28.110000	216.623755
28.120000	231.791866
28.130000	249.326325
28.140000	265.174289
28.150000	279.712757
28.160000	294.231058
28.170000	312.778755
28.180000	334.947711
28.190000	357.509274
28.200000	377.671304
28.210000	395.587094
28.220000	412.069386
28.230000	427.001840
28.240000	439.137303
28.250000	448.092024
28.260000	455.885011
28.270000	463.519398
28.280000	471.972748
28.290000	475.936389
28.300000	471.070141
28.310000	456.369648
28.320000	435.186711
28.330000	411.144302
28.340000	386.640670
28.350000	363.591817
28.360000	345.105517
28.370000	333.043618
28.380000	327.239259
28.390000	327.503248
28.400000	332.711744
28.410000	340.968820
28.420000	349.189109
28.430000	353.440293
28.440000	355.022485
28.450000	354.919280
28.460000	355.200635
28.470000	357.071088
28.480000	360.383675
28.490000	365.566476
28.500000	371.571395
28.510000	377.069894
28.520000	382.105075
28.530000	387.250353
28.540000	394.317800
28.550000	404.103718
28.560000	415.534470
28.570000	428.301650
28.580000	439.419631
28.590000	449.518735
28.600000	454.969022
28.610000	453.415291
28.620000	444.533329
28.630000	429.659111
28.640000	414.452248
28.650000	400.568030
28.660000	388.377093
28.670000	377.150073
28.680000	365.977608
28.690000	357.417821
28.700000	352.249433
28.710000	351.696335
28.720000	353.187054
28.730000	354.652457
28.740000	354.468801
28.750000	354.628083
28.760000	354.753616
28.770000	354.947933
28.780000	356.050025
28.790000	358.944141
28.800000	365.024060
28.810000	373.276621
28.820000	383.342765
28.830000	393.280947
28.840000	403.343671
28.850000	413.293418
28.860000	423.689568
28.870000	434.647448
28.880000	446.712734
28.890000	457.001450
28.900000	465.419590
28.910000	468.020864
28.920000	462.807754
28.930000	446.379004
28.940000	423.895306
28.950000	401.415438
28.960000	381.983691
28.970000	364.783663
28.980000	346.741550
28.990000	329.172895
29.000000	313.174367
29.010000	302.244223
29.020000	295.938461
29.030000	293.322910
29.040000	292.040620
29.050000	291.414784
29.060000	290.483833
29.070000	290.186976
29.080000	289.596941
29.090000	289.973454
29.100000	292.384393
29.110000	297.099198
29.120000	303.845066
29.130000	308.890068
29.140000	313.995370
29.150000	319.685332
29.160000	326.486714
29.170000	334.486999
29.180000	340.977898
29.190000	347.641483
29.200000	353.469020
29.210000	360.478175
29.220000	365.954273
29.230000	363.645511
29.240000	349.786608
29.250000	326.836756
29.260000	300.969181
29.270000	277.365201
29.280000	255.475827
29.290000	235.234667
29.300000	215.987101
29.310000	197.778849
29.320000	181.840968
29.330000	170.999962
29.340000	165.359785
29.350000	162.553257
29.360000	158.880451
29.370000	154.455745
29.380000	151.077666
29.390000	149.025856
29.400000	148.613304
29.410000	149.265063
29.420000	151.824241
29.430000	155.838650
29.440000	161.040155
29.450000	165.746023
29.460000	171.268497
29.470000	176.316980
29.480000	182.508755
29.490000	189.887406
29.500000	199.087622
29.510000	208.789308
29.520000	217.669852
29.530000	223.358224
29.540000	219.577771
29.550000	203.940759
29.560000	179.837684
29.570000	152.196826
29.580000	124.763508
29.590000	98.447448
29.600000	74.358740
29.610000	52.029106
29.620000	30.955763
29.630000	12.952193
29.640000	-0.112148
29.650000	-8.128131
29.660000	-13.184826
29.670000	-17.541137
29.680000	-21.584734
29.690000	-24.282765
29.700000	-26.656294
29.710000	-27.684951
29.720000	-26.728549
29.730000	-23.755280
29.740000	-20.137955
29.750000	-14.150541
29.760000	-7.222958
29.770000	0.791444
29.780000	8.353506
29.790000	17.408946
29.800000	28.926411
29.810000	40.683322
29.820000	52.838010
29.830000	62.614974
29.840000	67.081022
29.850000	58.531882
29.860000	38.012939
29.870000	9.789019
29.880000	-19.049485
29.890000	-46.971371
29.900000	-74.118918
29.910000	-100.400352
29.920000	-126.192360
29.930000	-150.495093
29.940000	-170.931714
29.950000	-184.591550
29.960000	-191.348716
29.970000	-194.032941
29.980000	-197.107171
29.990000	-200.465566
30.000000	-202.866435
30.010000	-203.904562
30.020000	-203.965422
30.030000	-202.679179
30.040000	-200.069996
30.050000	-195.790755
30.060000	-190.515493
30.070000	-183.904470
30.080000	-178.306769
30.090000	-174.017741
30.100000	-168.762985
30.110000	-162.475873
30.120000	-153.219662
30.130000	-143.953181
30.140000	-133.337060
30.150000	-125.117112
30.160000	-123.461736
30.170000	-134.292103
30.180000	-157.910687
30.190000	-187.788162
30.200000	-218.703188
30.210000	-246.961832
30.220000	-274.518074
30.230000	-300.133728
30.240000	-325.013449
30.250000	-345.967454
30.260000	-363.526393
30.270000	-374.130743
30.280000	-378.725953
30.290000	-379.638847
30.300000	-380.603840
30.310000	-381.811785
30.320000	-382.152826
30.330000	-382.665395
30.340000	-382.705394
30.350000	-380.858522
30.360000	-375.933634
30.370000	-370.069280
30.380000	-363.498548
30.390000	-354.616984
30.400000	-344.412661
30.410000	-333.505838
30.420000	-323.337936
30.430000	-314.066818
30.440000	-304.602177
30.450000	-294.973341
30.460000	-284.540453
30.470000	-274.561018
30.480000	-268.159867
30.490000	-272.168284
30.500000	-288.441756
30.510000	-314.105429
30.520000	-340.717955
30.530000	-366.737848
30.540000	-390.336412
30.550000	-412.053209
30.560000	-431.294914
30.570000	-449.383704
30.580000	-465.591038
30.590000	-476.048875
30.600000	-480.239706
30.610000	-479.395566
30.620000	-477.907133
30.630000	-475.740222
30.640000	-472.918201
30.650000	-469.762539
30.660000	-466.271916
30.670000	-461.793288
30.680000	-455.301517
30.690000	-447.171474
30.700000	-438.342940
30.710000	-428.556646
30.720000	-418.062717
30.730000	-406.283170
30.740000	-393.795962
30.750000	-381.019550
30.760000	-368.539959
30.770000	-355.762973
30.780000	-341.626281
30.790000	-326.520654
30.800000	-311.725297
30.810000	-299.290693
30.820000	-294.175858
30.830000	-300.401693
30.840000	-317.624616
30.850000	-339.506391
30.860000	-359.750292
30.870000	-376.968014
30.880000	-392.226126
30.890000	-406.773524
30.900000	-420.374569
30.910000	-431.919951
30.920000	-438.862341
30.930000	-440.414450
30.940000	-437.698554
30.950000	-433.924500
30.960000	-431.208196
30.970000	-428.435393
30.980000	-425.062400
30.990000	-421.625524
31.000000	-415.918617
31.010000	-408.499397
31.020000	-398.781110
31.030000	-389.391450
31.040000	-379.309529
31.050000	-369.297610
31.060000	-359.512086
31.070000	-350.213112
31.080000	-339.384035
31.090000	-324.803615
31.100000	-309.278605
31.110000	-292.728247
31.120000	-279.193133
31.130000	-266.979010
31.140000	-263.140147
31.150000	-268.220255
31.160000	-282.762093
31.170000	-298.111076
31.180000	-312.410784
31.190000	-324.678937
31.200000	-335.404719
31.210000	-346.257807
31.220000	-355.062419
31.230000	-363.521549
31.240000	-366.040852
31.250000	-363.477004
31.260000	-356.358931
31.270000	-349.116938
31.280000	-342.674356
31.290000	-337.094699
31.300000	-330.658281
31.310000	-323.751518
31.320000	-314.977119
31.330000	-305.421507
31.340000	-293.294272
31.350000	-280.775149
31.360000	-267.944939
31.370000	-253.798283
31.380000	-239.607531
31.390000	-224.153434
31.400000	-208.949682
31.410000	-191.502821
31.420000	-173.642133
31.430000	-158.193226
31.440000	-149.008873
31.450000	-150.556637
31.460000	-161.029546
31.470000	-176.919725
31.480000	-191.712826
31.490000	-205.304464
31.500000	-217.733724
31.510000	-228.691982
31.520000	-238.760644
31.530000	-245.741953
31.540000	-251.134309
31.550000	-252.116493
31.560000	-249.520945
31.570000	-243.826166
31.580000	-237.248294
31.590000	-231.202746
31.600000	-224.303554
31.610000	-216.919581
31.620000	-208.692077
31.630000	-199.639206
31.640000	-190.417269
31.650000	-179.353842
31.660000	-167.484460
31.670000	-153.061886
31.680000	-139.232632
31.690000	-126.095585
31.700000	-112.310695
31.710000	-97.465493
31.720000	-81.723820
31.730000	-66.839731
31.740000	-53.132783
31.750000	-45.559632
31.760000	-46.868423
31.770000	-57.271792
31.780000	-70.919781
31.790000	-83.988367
31.800000	-94.641932
31.810000	-104.713497
31.820000	-115.026267
31.830000	-125.434067
31.840000	-132.399200
31.850000	-135.159985
31.860000	-132.769158
31.870000	-127.224669
31.880000	-119.800947
31.890000	-112.621979
31.900000	-104.821288
31.910000	-97.019947
31.920000	-89.169500
31.930000	-81.080374
31.940000	-72.513562
31.950000	-61.465076
31.960000	-49.529766
31.970000	-36.506907
31.980000	-24.547626
31.990000	-12.869010
32.000000	-0.225681
32.010000	13.771935
32.020000	27.429471
32.030000	41.759446
32.040000	55.751730
32.050000	70.759641
32.060000	81.729450
32.070000	86.440875
32.080000	82.045566
32.090000	70.475557
32.100000	57.379069
32.110000	45.175413
32.120000	35.050088
32.130000	25.208184
32.140000	16.068484
32.150000	7.246906
32.160000	0.768513
32.170000	-2.041080
32.180000	0.478202
32.190000	5.333756
32.200000	10.198848
32.210000	14.723343
32.220000	19.932789
32.230000	25.786379
32.240000	31.675075
32.250000	37.861910
32.260000	45.095655
32.270000	52.944686
32.280000	60.525674
32.290000	69.378323
32.300000	79.629546
32.310000	91.490115
32.320000	105.077946
32.330000	120.613831
32.340000	138.204532
32.350000	158.083251
32.360000	178.337436
32.370000	198.234980
32.380000	213.807373
32.390000	223.405855
32.400000	225.624269
32.410000	221.596852
32.420000	215.796997
32.430000	210.796132
32.440000	205.974647
32.450000	200.675842
32.460000	195.503135
32.470000	190.568422
32.480000	188.720199
32.490000	189.466393
32.500000	195.627768
32.510000	202.692468
32.520000	209.894037
32.530000	215.263823
32.540000	219.850676
32.550000	223.848411
32.560000	228.826841
32.570000	235.780663
32.580000	243.813885
32.590000	253.399574
32.600000	263.479781
32.610000	275.709151
32.620000	288.152523
32.630000	301.041538
32.640000	313.840167
32.650000	328.397638
32.660000	343.536810
32.670000	358.104595
32.680000	369.580634
32.690000	376.498860
32.700000	375.637521
32.710000	367.254038
32.720000	352.381364
32.730000	337.041211
32.740000	322.798057
32.750000	310.177418
32.760000	297.560876
32.770000	285.003695
32.780000	275.016033
32.790000	268.511302
32.800000	267.159102
32.810000	269.028307
32.820000	272.990447
32.830000	275.224099
32.840000	277.523511
32.850000	279.767706
32.860000	284.082597
32.870000	288.988033
32.880000	294.332061
32.890000	300.897761
32.900000	308.933660
32.910000	317.825490
32.920000	326.220365
32.930000	334.779315
32.940000	343.860230
32.950000	352.750952
32.960000	360.854587
32.970000	368.746741
32.980000	377.203845
32.990000	384.088960
33.000000	385.235377
33.010000	377.789381
33.020000	362.966088
33.030000	344.852434
33.040000	326.381782
33.050000	308.598520
33.060000	290.480087
33.070000	273.707051
33.080000	257.593644
33.090000	243.843959
33.100000	234.062133
33.110000	229.334710
33.120000	230.217821
33.130000	231.832579
33.140000	233.406887
33.150000	234.018854
33.160000	234.957562
33.170000	237.895100
33.180000	241.522349
33.190000	246.131424
33.200000	252.109791
33.210000	260.391688
33.220000	270.382180
33.230000	279.335230
33.240000	288.020115
33.250000	297.301630
33.260000	308.348183
33.270000	319.950834
33.280000	330.364143
33.290000	339.293417
33.300000	344.062985
33.310000	341.657851
33.320000	330.120873
33.330000	311.389141
33.340000	291.212080
33.350000	272.468747
33.360000	255.987201
33.370000	240.231422
33.380000	224.454064
33.390000	211.025579
33.400000	200.940073
33.410000	196.178716
33.420000	195.105757
33.430000	195.687038
33.440000	195.961258
33.450000	196.224514
33.460000	197.174150
33.470000	199.451458
33.480000	202.072198
33.490000	206.374400
33.500000	211.320002
33.510000	217.658528
33.520000	225.254981
33.530000	233.297060
33.540000	241.882046
33.550000	250.623843
33.560000	259.867354
33.570000	269.305054
33.580000	279.210463
33.590000	290.343792
33.600000	301.905459
33.610000	309.729435
33.620000	309.957432
33.630000	301.478732
33.640000	285.371498
33.650000	264.923486
33.660000	243.140816
33.670000	222.389142
33.680000	203.929731
33.690000	187.205734
33.700000	172.409931
33.710000	161.048457
33.720000	155.247653
33.730000	154.573260
33.740000	156.100943
33.750000	156.786767
33.760000	157.654397
33.770000	158.352111
33.780000	159.900523
33.790000	162.604349
33.800000	168.172654
33.810000	175.537727
33.820000	183.466383
33.830000	191.829474
33.840000	200.114346
33.850000	209.815303
33.860000	220.445383
33.870000	233.160775
33.880000	246.791775
33.890000	261.197424
33.900000	276.159582
33.910000	289.249571
33.920000	301.558565
33.930000	311.315301
33.940000	315.976809
33.950000	310.729443
33.960000	295.763376
33.970000	277.849501
33.980000	260.228016
33.990000	244.987427
34.000000	230.035462
34.010000	215.819874
34.020000	202.529663
34.030000	191.676673
34.040000	185.713752
34.050000	183.878529
34.060000	183.914207
34.070000	184.436499
34.080000	184.469416
34.090000	185.020129
34.100000	187.378859
34.110000	190.951950
34.120000	196.311446
34.130000	202.232019
34.140000	210.271433
34.150000	219.190734
34.160000	227.249610
34.170000	235.844201
34.180000	245.912566
34.190000	257.514526
34.200000	269.925871
34.210000	282.871818
34.220000	296.292061
34.230000	309.579799
34.240000	321.007253
34.250000	329.307684
34.260000	329.731406
34.270000	320.395188
34.280000	303.819283
34.290000	283.169311
34.300000	264.934347
34.310000	247.606072
34.320000	231.739559
34.330000	215.386981
34.340000	200.573246
34.350000	189.519197
34.360000	182.418671
34.370000	179.669146
34.380000	178.940313
34.390000	179.841332
34.400000	180.808843
34.410000	182.369231
34.420000	185.027151
34.430000	189.246719
34.440000	195.929555
34.450000	202.798230
34.460000	210.522668
34.470000	218.695921
34.480000	227.132050
34.490000	235.609030
34.500000	243.422142
34.510000	252.210466
34.520000	261.053612
34.530000	270.163267
34.540000	280.033963
34.550000	289.793599
34.560000	297.693033
34.570000	299.765477
34.580000	291.698634
34.590000	274.766684
34.600000	251.387865
34.610000	228.460520
34.620000	206.740383
34.630000	186.499685
34.640000	166.769313
34.650000	147.888761
34.660000	131.815500
34.670000	120.289882
34.680000	115.542165
34.690000	114.020747
34.700000	114.621001
34.710000	114.425240
34.720000	114.723157
34.730000	115.504417
34.740000	116.168434
34.750000	119.604408
34.760000	123.276529
34.770000	130.063474
34.780000	137.714558
34.790000	146.874333
34.800000	155.823085
34.810000	165.034692
34.820000	174.941454
34.830000	185.202700
34.840000	196.405291
34.850000	207.375270
34.860000	218.883678
34.870000	230.887958
34.880000	242.368210
34.890000	247.730051
34.900000	242.196763
34.910000	225.927280
34.920000	205.384012
34.930000	183.121627
34.940000	161.912844
34.950000	140.646090
34.960000	119.452338
34.970000	97.842561
34.980000	77.003274
34.990000	60.385221
35.000000	51.895227
35.010000	48.247684
35.020000	47.463454
35.030000	46.446224
35.040000	46.716633
35.050000	47.644254
35.060000	46.302027
35.070000	45.195520
35.080000	42.881349
35.090000	39.756405
35.100000	33.457447
35.110000	26.334384
35.120000	19.701304
35.130000	14.581960
35.140000	9.943031
35.150000	7.507082
35.160000	7.517128
35.170000	11.104200
35.180000	17.087555
35.190000	25.039188
35.200000	35.663351
35.210000	47.637325
35.220000	58.237138
35.230000	61.561697
35.240000	55.489390
35.250000	40.494406
35.260000	21.087055
35.270000	2.095437
35.280000	-16.661801
35.290000	-36.974257
35.300000	-58.738645
35.310000	-79.370536
35.320000	-95.814473
35.330000	-107.440633
35.340000	-112.220494
35.350000	-112.857973
35.360000	-113.297709
35.370000	-114.936310
35.380000	-117.037271
35.390000	-118.014060
35.400000	-119.119919
35.410000	-121.761055
35.420000	-128.207304
35.430000	-142.515529
35.440000	-174.647014
35.450000	-226.896242
35.460000	-305.289768
35.470000	-393.336605
35.480000	-488.394009
35.490000	-577.642420
35.500000	-655.613029
35.510000	-713.828284
35.520000	-756.344650
35.530000	-786.611175
35.540000	-810.449884
35.550000	-830.724167
35.560000	-843.541626
35.570000	-849.187195
35.580000	-852.317433
35.590000	-856.318947
35.600000	-859.418095
35.610000	-857.115720
35.620000	-847.197679
35.630000	-832.265165
35.640000	-813.646677
35.650000	-794.425796
35.660000	-774.760790
35.670000	-752.586919
35.680000	-725.213221
35.690000	-689.754315
35.700000	-648.018785
35.710000	-600.592021
35.720000	-551.841829
35.730000	-504.432223
35.740000	-464.013668
35.750000	-431.600364
35.760000	-406.521627
35.770000	-386.103822
35.780000	-370.043652
35.790000	-356.276735
35.800000	-342.238659
35.810000	-327.797412
35.820000	-313.108936
35.830000	-299.328705
35.840000	-285.314160
35.850000	-269.533577
35.860000	-251.196119
35.870000	-230.081432
35.880000	-207.089287
35.890000	-183.638894
35.900000	-159.987489
35.910000	-139.212371
35.920000	-126.232397
35.930000	-124.122475
35.940000	-131.807639
35.950000	-142.358271
35.960000	-153.069631
35.970000	-162.272095
35.980000	-170.680060
35.990000	-177.858021
36.000000	-182.964672
36.010000	-185.453422
36.020000	-181.248290
36.030000	-171.070733
36.040000	-156.543148
36.050000	-141.369222
36.060000	-125.837450
36.070000	-110.009275
36.080000	-95.143924
36.090000	-80.987413
36.100000	-66.457057
36.110000	-50.641651
36.120000	-33.448091
36.130000	-16.643343
36.140000	0.558852
36.150000	18.344256
36.160000	37.224271
36.170000	55.984672
36.180000	74.216101
36.190000	92.284727
36.200000	110.866264
36.210000	130.909657
36.220000	151.502079
36.230000	172.193263
36.240000	189.787732
36.250000	201.802843
36.260000	204.393629
36.270000	198.415955
36.280000	186.327850
36.290000	172.692073
36.300000	160.247585
36.310000	148.616784
36.320000	138.159797
36.330000	127.861464
36.340000	119.403122
36.350000	115.098216
36.360000	115.632271
36.370000	120.321460
36.380000	126.847142
36.390000	133.202397
36.400000	139.056744
36.410000	145.744655
36.420000	152.918430
36.430000	161.614039
36.440000	170.095782
36.450000	179.146906
36.460000	188.593687
36.470000	199.004945
36.480000	211.415956
36.490000	224.847147
36.500000	239.564623
36.510000	253.004498
36.520000	267.048366
36.530000	279.807636
36.540000	291.861638
36.550000	301.594100
36.560000	308.333464
36.570000	314.043699
36.580000	316.449477
36.590000	313.482963
36.600000	303.221581
36.610000	289.259666
36.620000	273.644984
36.630000	258.024072
36.640000	241.383139
36.650000	224.448571
36.660000	206.439054
36.670000	188.533605
36.680000	174.156202
36.690000	164.601106
36.700000	160.192247
36.710000	157.646842
36.720000	158.563086
36.730000	161.338419
36.740000	166.260324
36.750000	171.679125
36.760000	178.619264
36.770000	188.007159
36.780000	199.629242
36.790000	212.319985
36.800000	224.291488
36.810000	234.622404
36.820000	243.276612
36.830000	251.582250
36.840000	259.912690
36.850000	266.188833
36.860000	267.867529
36.870000	262.114544
36.880000	247.479320
36.890000	226.036312
36.900000	197.069712
36.910000	161.281459
36.920000	115.970126
36.930000	62.135417
36.940000	2.245695
36.950000	-58.233085
36.960000	-115.263079
36.970000	-169.705350
36.980000	-221.070749
36.990000	-268.175803
37.000000	-308.890719
37.010000	-340.994353
37.020000	-365.735346
37.030000	-385.163674
37.040000	-401.596051
37.050000	-415.008687
37.060000	-424.135569
37.070000	-430.543805
37.080000	-432.013776
37.090000	-427.765398
37.100000	-417.910380
37.110000	-405.344009
37.120000	-392.488479
37.130000	-377.594040
37.140000	-361.088856
37.150000	-342.858959
37.160000	-325.045215
37.170000	-306.798867
37.180000	-287.685986
37.190000	-268.759536
37.200000	-251.678504
37.210000	-238.070269
37.220000	-230.022503
37.230000	-231.068588
37.240000	-240.037260
37.250000	-255.082128
37.260000	-272.062851
37.270000	-290.790382
37.280000	-310.437275
37.290000	-329.514127
37.300000	-347.498384
37.310000	-363.922102
37.320000	-377.240667
37.330000	-386.348796
37.340000	-391.337125
37.350000	-394.799968
37.360000	-399.117304
37.370000	-402.925205
37.380000	-404.581102
37.390000	-402.067162
37.400000	-396.738612
37.410000	-389.893438
37.420000	-382.579939
37.430000	-374.066017
37.440000	-362.101644
37.450000	-347.264262
37.460000	-328.637162
37.470000	-306.817930
37.480000	-282.524286
37.490000	-255.720815
37.500000	-229.437791
37.510000	-201.961972
37.520000	-175.045452
37.530000	-152.560261
37.540000	-140.008902
37.550000	-139.166289
37.560000	-145.305806
37.570000	-151.785034
37.580000	-155.630765
37.590000	-157.765785
37.600000	-159.307560
37.610000	-159.425818
37.620000	-156.333019
37.630000	-148.103424
37.640000	-135.717739
37.650000	-120.466483
37.660000	-105.124462
37.670000	-93.182761
37.680000	-81.530960
37.690000	-69.256301
37.700000	-54.285485
37.710000	-38.358183
37.720000	-20.383424
37.730000	-0.815485
37.740000	19.499732
37.750000	38.038122
37.760000	55.039345
37.770000	71.208555
37.780000	85.556531
37.790000	98.698968
37.800000	109.384173
37.810000	119.179389
37.820000	127.521575
37.830000	131.301771
37.840000	126.304902
37.850000	111.414972
37.860000	90.751592
37.870000	69.179209
37.880000	48.505550
37.890000	28.921342
37.900000	8.569561
37.910000	-11.345768
37.920000	-29.717673
37.930000	-43.959787
37.940000	-52.358269
37.950000	-55.263771
37.960000	-54.353463
37.970000	-52.588896
37.980000	-52.030457
37.990000	-51.589640
38.000000	-49.723796
38.010000	-46.612700
38.020000	-40.763451
38.030000	-33.995760
38.040000	-25.480057
38.050000	-16.736157
38.060000	-7.542755
38.070000	2.506421
38.080000	13.041558
38.090000	24.065843
38.100000	35.608438
38.110000	47.273269
38.120000	58.824941
38.130000	67.456154
38.140000	68.351794
38.150000	58.626882
38.160000	39.539241
38.170000	17.126626
38.180000	-5.966736
38.190000	-28.728875
38.200000	-51.493833
38.210000	-73.933307
38.220000	-95.704967
38.230000	-114.817277
38.240000	-129.266794
38.250000	-136.049216
38.260000	-137.861658
38.270000	-137.966741
38.280000	-138.136448
38.290000	-139.232442
38.300000	-139.421167
38.310000	-137.851493
38.320000	-134.391832
38.330000	-128.820918
38.340000	-121.715294
38.350000	-113.139527
38.360000	-103.389963
38.370000	-94.814322
38.380000	-86.740205
38.390000	-78.506329
38.400000	-68.438158
38.410000	-57.221960
38.420000	-45.486405
38.430000	-33.286445
38.440000	-19.882879
38.450000	-6.707279
38.460000	0.692312
38.470000	-1.473623
38.480000	-14.409048
38.490000	-33.574487
38.500000	-55.196116
38.510000	-76.361300
38.520000	-96.673654
38.530000	-117.168915
38.540000	-137.831818
38.550000	-157.657298
38.560000	-173.333776
38.570000	-182.832642
38.580000	-187.194238
38.590000	-188.026258
38.600000	-187.740259
38.610000	-186.898114
38.620000	-185.300813
38.630000	-183.120913
38.640000	-179.541873
38.650000	-175.364676
38.660000	-170.129287
38.670000	-163.625573
38.680000	-156.067608
38.690000	-146.900727
38.700000	-136.357754
38.710000	-124.525100
38.720000	-111.664627
38.730000	-99.168779
38.740000	-86.315181
38.750000	-73.164053
38.760000	-59.313869
38.770000	-45.177587
38.780000	-30.994722
38.790000	-17.207606
38.800000	-4.358397
38.810000	3.069048
38.820000	0.595486
38.830000	-13.662909
38.840000	-35.783709
38.850000	-59.403809
38.860000	-80.518312
38.870000	-100.174133
38.880000	-118.599501
38.890000	-137.296743
38.900000	-153.350628
38.910000	-166.107585
38.920000	-174.449115
38.930000	-177.601293
38.940000	-178.238939
38.950000	-177.104838
38.960000	-177.718145
38.970000	-178.275465
38.980000	-181.892505
38.990000	-189.789137
39.000000	-204.084194
39.010000	-219.630985
39.020000	-231.624892
39.030000	-236.490885
39.040000	-233.855660
39.050000	-225.705141
39.060000	-213.098359
39.070000	-197.936117
39.080000	-181.353292
39.090000	-164.180524
39.100000	-147.623448
39.110000	-132.103565
39.120000	-117.573028
39.130000	-103.372228
39.140000	-88.869912
39.150000	-75.660820
39.160000	-67.185604
39.170000	-67.966042
39.180000	-79.506590
39.190000	-97.268167
39.200000	-115.504348
39.210000	-132.594965
39.220000	-147.851258
39.230000	-163.944170
39.240000	-178.530826
39.250000	-191.980503
39.260000	-201.882353
39.270000	-205.695990
39.280000	-205.927162
39.290000	-204.088082
39.300000	-202.319610
39.310000	-200.152159
39.320000	-196.389123
39.330000	-191.900883
39.340000	-186.133601
39.350000	-178.662074
39.360000	-169.892378
39.370000	-160.101496
39.380000	-149.328990
39.390000	-137.552467
39.400000	-125.111548
39.410000	-113.016798
39.420000	-100.567486
39.430000	-87.159371
39.440000	-73.371214
39.450000	-60.314508
39.460000	-49.854675
39.470000	-42.142493
39.480000	-36.680472
39.490000	-31.309926
39.500000	-25.521369
39.510000	-21.495210
39.520000	-23.043770
39.530000	-31.684438
39.540000	-45.232812
39.550000	-58.876482
39.560000	-71.107521
39.570000	-82.417166
39.580000	-93.325350
39.590000	-102.629384
39.600000	-109.553842
39.610000	-113.518183
39.620000	-113.122685
39.630000	-108.754380
39.640000	-101.034549
39.650000	-93.674661
39.660000	-86.611530
39.670000	-79.937407
39.680000	-72.861341
39.690000	-64.207570
39.700000	-54.123143
39.710000	-42.150982
39.720000	-30.400118
39.730000	-18.762980
39.740000	-8.020759
39.750000	3.958583
39.760000	17.011306
39.770000	31.006029
39.780000	45.368066
39.790000	59.044860
39.800000	73.056666
39.810000	85.735907
39.820000	98.747467
39.830000	112.416437
39.840000	127.098297
39.850000	141.418944
39.860000	152.438334
39.870000	156.412866
39.880000	150.106835
39.890000	136.417479
39.900000	120.442001
39.910000	105.076781
39.920000	90.430354
39.930000	76.062193
39.940000	61.078520
39.950000	46.046115
39.960000	32.390316
39.970000	23.028848
39.980000	19.693674
39.990000	19.995185
40.000000	22.327546
40.010000	24.622051
40.020000	28.299576
40.030000	31.234521
40.040000	33.606722
40.050000	36.177477
40.060000	41.915589
40.070000	49.771826
40.080000	58.219011
40.090000	68.703648
40.100000	79.509823
40.110000	91.304860
40.120000	101.454514
40.130000	112.917819
40.140000	123.715459
40.150000	135.871692
40.160000	147.963624
40.170000	160.828559
40.180000	173.202902
40.190000	185.453554
40.200000	199.109117
40.210000	213.402752
40.220000	227.679576
40.230000	235.332966
40.240000	234.928362
40.250000	224.592855
40.260000	209.527545
40.270000	193.178981
40.280000	178.122143
40.290000	164.422775
40.300000	150.376524
40.310000	134.999943
40.320000	120.972440
40.330000	109.905735
40.340000	104.235589
40.350000	101.797273
40.360000	100.497394
40.370000	100.359831
40.380000	101.090274
40.390000	103.591034
40.400000	106.676187
40.410000	111.159907
40.420000	118.262131
40.430000	126.052453
40.440000	134.184825
40.450000	142.611622
40.460000	151.440489
40.470000	161.839651
40.480000	171.352212
40.490000	181.411115
40.500000	191.257401
40.510000	201.652978
40.520000	212.493164
40.530000	223.895134
40.540000	236.730747
40.550000	249.798070
40.560000	262.971155
40.570000	276.368273
40.580000	289.877586
40.590000	301.600279
40.600000	305.439249
40.610000	300.179175
40.620000	287.007712
40.630000	271.102613
40.640000	256.573538
40.650000	243.013987
40.660000	229.471583
40.670000	214.925601
40.680000	200.375643
40.690000	187.172016
40.700000	176.947689
40.710000	171.084989
40.720000	169.850619
40.730000	169.654685
40.740000	169.093567
40.750000	167.894867
40.760000	167.007281
40.770000	168.137906
40.780000	170.247587
40.790000	174.387516
40.800000	179.817162
40.810000	185.971824
40.820000	193.056423
40.830000	199.552328
40.840000	207.305879
40.850000	216.128215
40.860000	225.555571
40.870000	235.038209
40.880000	244.139937
40.890000	253.619195
40.900000	264.392461
40.910000	275.529512
40.920000	286.647569
40.930000	295.101372
40.940000	295.897326
40.950000	286.347335
40.960000	268.494519
40.970000	248.606010
40.980000	230.419208
40.990000	213.521062
41.000000	197.678833
41.010000	181.099599
41.020000	164.279175
41.030000	149.350389
41.040000	137.879043
41.050000	131.602726
41.060000	128.469567
41.070000	127.525799
41.080000	126.390547
41.090000	125.123271
41.100000	122.976996
41.110000	121.728679
41.120000	122.562805
41.130000	126.334153
41.140000	131.476255
41.150000	136.607743
41.160000	143.064757
41.170000	150.210149
41.180000	157.989075
41.190000	165.143447
41.200000	172.921118
41.210000	181.741957
41.220000	191.519233
41.230000	201.673219
41.240000	213.122209
41.250000	225.601953
41.260000	238.391289
41.270000	249.527940
41.280000	255.322924
41.290000	251.787035
41.300000	238.264280
41.310000	218.391786
41.320000	196.541481
41.330000	174.656990
41.340000	153.148219
41.350000	130.918430
41.360000	108.091977
41.370000	85.849729
41.380000	66.372060
41.390000	52.115321
41.400000	42.310108
41.410000	36.381559
41.420000	30.907066
41.430000	26.325089
41.440000	21.833925
41.450000	18.273053
41.460000	16.427181
41.470000	15.884231
41.480000	17.022395
41.490000	19.158902
41.500000	23.622827
41.510000	29.761109
41.520000	35.886685
41.530000	41.365759
41.540000	46.820162
41.550000	53.304387
41.560000	61.084214
41.570000	69.239116
41.580000	78.685956
41.590000	89.169888
41.600000	100.286498
41.610000	111.432608
41.620000	123.891333
41.630000	136.688188
41.640000	148.159950
41.650000	152.598280
41.660000	147.436097
41.670000	131.176825
41.680000	107.391621
41.690000	81.425645
41.700000	56.339548
41.710000	31.997639
41.720000	6.614841
41.730000	-18.088902
41.740000	-41.113398
41.750000	-60.842031
41.760000	-77.515075
41.770000	-87.586491
41.780000	-92.933437
41.790000	-95.666773
41.800000	-98.689211
41.810000	-102.074578
41.820000	-104.108757
41.830000	-104.488329
41.840000	-102.529383
41.850000	-98.573745
41.860000	-93.286465
41.870000	-85.991096
41.880000	-77.048734
41.890000	-66.409708
41.900000	-54.147116
41.910000	-40.832181
41.920000	-27.248623
41.930000	-14.257458
41.940000	-2.351761
41.950000	8.649760
41.960000	18.875549
41.970000	28.220213
41.980000	37.769960
41.990000	48.454013
42.000000	59.991442
42.010000	72.686432
42.020000	82.865628
42.030000	86.581676
42.040000	78.733505
42.050000	61.493707
42.060000	40.607953
42.070000	17.724521
42.080000	-4.852480
42.090000	-27.388457
42.100000	-48.311320
42.110000	-68.845958
42.120000	-88.435495
42.130000	-104.635222
42.140000	-115.564886
42.150000	-122.102445
42.160000	-125.699622
42.170000	-128.241344
42.180000	-131.504596
42.190000	-135.044725
42.200000	-137.310497
42.210000	-137.520901
42.220000	-135.789581
42.230000	-133.337557
42.240000	-129.601246
42.250000	-123.824544
42.260000	-117.088861
42.270000	-109.312616
42.280000	-101.249759
42.290000	-92.802710
42.300000	-83.413793
42.310000	-75.304879
42.320000	-66.236721
42.330000	-57.153642
42.340000	-46.056118
42.350000	-34.683936
42.360000	-22.874922
42.370000	-12.892224
42.380000	-11.042870
42.390000	-19.427032
42.400000	-37.876029
42.410000	-59.949426
42.420000	-82.723697
42.430000	-104.145762
42.440000	-125.251434
42.450000	-147.682050
42.460000	-170.443590
42.470000	-192.556733
42.480000	-210.299935
42.490000	-222.109096
42.500000	-228.500445
42.510000	-231.671222
42.520000	-234.374321
42.530000	-235.561441
42.540000	-237.596126
42.550000	-238.444831
42.560000	-238.496522
42.570000	-235.325782
42.580000	-230.078703
42.590000	-222.875910
42.600000	-214.334257
42.610000	-204.763886
42.620000	-194.929764
42.630000	-184.988909
42.640000	-175.197604
42.650000	-165.217701
42.660000	-154.470194
42.670000	-142.786372
42.680000	-130.081772
42.690000	-118.031973
42.700000	-105.357333
42.710000	-93.289910
42.720000	-84.308425
42.730000	-85.231876
42.740000	-97.583750
42.750000	-117.497817
42.760000	-139.861094
42.770000	-161.441032
42.780000	-182.821029
42.790000	-204.389153
42.800000	-226.118596
42.810000	-247.340946
42.820000	-265.416177
42.830000	-278.299796
42.840000	-284.387046
42.850000	-285.607089
42.860000	-285.033115
42.870000	-285.251759
42.880000	-286.010083
42.890000	-286.567101
42.900000	-285.657605
42.910000	-283.224401
42.920000	-278.642186
42.930000	-272.557122
42.940000	-264.963545
42.950000	-257.232164
42.960000	-249.286106
42.970000	-240.577728
42.980000	-230.613933
42.990000	-218.928446
43.000000	-207.620518
43.010000	-194.940268
43.020000	-181.304691
43.030000	-165.953788
43.040000	-151.001649
43.050000	-137.636278
43.060000	-124.696960
43.070000	-110.990106
43.080000	-96.065697
43.090000	-83.693529
43.100000	-78.106998
43.110000	-82.064143
43.120000	-94.141344
43.130000	-111.769426
43.140000	-130.174067
43.150000	-147.821328
43.160000	-164.213973
43.170000	-180.214581
43.180000	-196.925436
43.190000	-211.935699
43.200000	-223.977498
43.210000	-229.655044
43.220000	-229.043107
43.230000	-225.052804
43.240000	-220.445537
43.250000	-216.115941
43.260000	-211.180193
43.270000	-205.518223
43.280000	-200.589502
43.290000	-195.584523
43.300000	-188.331920
43.310000	-178.994013
43.320000	-167.410162
43.330000	-155.412283
43.340000	-141.816691
43.350000	-125.834801
43.360000	-108.230573
43.370000	-89.593187
43.380000	-71.984772
43.390000	-54.011609
43.400000	-35.411531
43.410000	-16.768397
43.420000	-1.181162
43.430000	11.146881
43.440000	22.052334
43.450000	34.395908
43.460000	46.270415
43.470000	56.645100
43.480000	66.491831
43.490000	72.212988
43.500000	71.046866
43.510000	58.774940
43.520000	40.960242
43.530000	21.330068
43.540000	2.535622
43.550000	-14.454392
43.560000	-30.562416
43.570000	-46.239037
43.580000	-61.661111
43.590000	-74.351058
43.600000	-82.763622
43.610000	-87.135822
43.620000	-90.875950
43.630000	-93.243553
43.640000	-93.656329
43.650000	-90.348908
43.660000	-84.779690
43.670000	-78.120859
43.680000	-70.567672
43.690000	-61.557953
43.700000	-49.687149
43.710000	-37.004928
43.720000	-23.802108
43.730000	-10.452363
43.740000	4.086672
43.750000	18.761043
43.760000	32.642479
43.770000	46.646276
43.780000	61.531367
43.790000	77.864574
43.800000	94.081410
43.810000	110.087332
43.820000	125.297275
43.830000	140.313936
43.840000	155.847430
43.850000	171.204091
43.860000	188.071612
43.870000	202.412751
43.880000	209.962806
43.890000	205.954408
43.900000	190.869536
43.910000	171.180376
43.920000	152.107423
43.930000	137.737894
43.940000	126.664952
43.950000	117.964873
43.960000	110.556916
43.970000	105.198499
43.980000	103.118507
43.990000	104.765043
44.000000	108.342393
44.010000	113.002712
44.020000	116.230283
44.030000	116.244379
44.040000	111.454067
44.050000	102.828512
44.060000	95.357723
44.070000	91.407657
44.080000	92.594931
44.090000	97.647871
44.100000	106.504521
44.110000	120.226954
44.120000	138.746844
44.130000	160.471076
44.140000	182.989537
44.150000	205.054391
44.160000	227.239955
44.170000	248.970653
44.180000	269.492706
44.190000	287.555086
44.200000	303.753446
44.210000	318.140993
44.220000	329.012363
44.230000	332.724626
44.240000	327.947386
44.250000	315.316787
44.260000	300.231987
44.270000	286.240391
44.280000	274.847540
44.290000	265.160666
44.300000	255.129868
44.310000	245.759307
44.320000	237.413776
44.330000	233.369304
44.340000	232.689497
44.350000	234.984203
44.360000	236.626414
44.370000	238.280995
44.380000	239.898155
44.390000	242.584430
44.400000	245.501368
44.410000	248.894334
44.420000	252.774104
44.430000	257.876406
44.440000	264.382167
44.450000	271.860318
44.460000	280.662572
44.470000	288.507190
44.480000	297.625565
44.490000	305.812068
44.500000	314.936608
44.510000	323.778642
44.520000	332.922785
44.530000	341.411145
44.540000	348.579926
44.550000	352.376644
44.560000	350.573379
44.570000	340.678195
44.580000	324.582293
44.590000	306.990875
44.600000	291.257540
44.610000	278.634470
44.620000	265.923889
44.630000	252.956342
44.640000	240.262089
44.650000	230.620956
44.660000	224.597399
44.670000	222.287443
44.680000	220.259475
44.690000	218.967684
44.700000	217.587748
44.710000	216.654658
44.720000	215.916817
44.730000	215.679408
44.740000	217.920012
44.750000	221.364712
44.760000	226.263497
44.770000	231.381993
44.780000	237.281249
44.790000	243.733057
44.800000	250.969494
44.810000	259.086252
44.820000	267.658759
44.830000	276.108080
44.840000	284.685969
44.850000	292.128013
44.860000	296.714132
44.870000	293.474491
44.880000	280.084966
44.890000	261.509657
44.900000	241.454275
44.910000	222.877963
44.920000	204.146085
44.930000	185.920953
44.940000	168.505204
44.950000	151.630595
44.960000	137.539359
44.970000	127.672763
44.980000	122.572353
44.990000	119.039219
45.000000	116.614017
45.010000	114.405549
45.020000	112.659780
45.030000	112.107435
45.040000	112.704218
45.050000	115.145402
45.060000	117.074236
45.070000	119.526561
45.080000	122.775945
45.090000	126.907565
45.100000	132.813475
45.110000	139.951475
45.120000	148.519793
45.130000	157.659143
45.140000	166.559480
45.150000	173.697992
45.160000	174.924996
45.170000	168.075237
45.180000	152.962128
45.190000	131.791804
45.200000	109.338964
45.210000	87.499680
45.220000	66.376655
45.230000	43.867177
45.240000	21.757269
45.250000	0.563325
45.260000	-16.856986
45.270000	-29.413451
45.280000	-36.474005
45.290000	-39.397304
45.300000	-42.099763
45.310000	-44.037390
45.320000	-46.398867
45.330000	-47.337830
45.340000	-45.702002
45.350000	-41.644081
45.360000	-36.677871
45.370000	-31.951760
45.380000	-25.982379
45.390000	-19.601766
45.400000	-12.954400
45.410000	-6.254799
45.420000	1.741317
45.430000	11.420106
45.440000	20.760617
45.450000	31.100998
45.460000	41.102558
45.470000	49.110917
45.480000	50.432612
45.490000	41.787742
45.500000	25.775067
45.510000	6.130511
45.520000	-13.887738
45.530000	-35.877441
45.540000	-58.546759
45.550000	-81.558938
45.560000	-103.206371
45.570000	-123.248924
45.580000	-139.866203
45.590000	-149.271502
45.600000	-152.209908
45.610000	-150.969843
45.620000	-149.229052
45.630000	-147.999250
45.640000	-145.244975
45.650000	-142.042447
45.660000	-137.594425
45.670000	-133.096549
45.680000	-127.610205
45.690000	-121.158911
45.700000	-113.297069
45.710000	-104.897356
45.720000	-95.653247
45.730000	-86.311335
45.740000	-76.345325
45.750000	-65.732848
45.760000	-54.042516
45.770000	-41.830061
45.780000	-28.743623
45.790000	-16.940661
45.800000	-5.108444
45.810000	1.925210
45.820000	3.197267
45.830000	-5.892409
45.840000	-20.143691
45.850000	-37.726289
45.860000	-56.825113
45.870000	-79.578199
45.880000	-103.166845
45.890000	-97.027916
45.900000	-78.647975
45.910000	-51.112253
45.920000	-39.196270
45.930000	-28.095555
45.940000	-14.116169
45.950000	-3.781422
45.960000	8.990636
45.970000	19.495086
45.980000	31.445817
45.990000	41.410471
46.000000	53.914612
46.010000	65.963545
46.020000	79.054005
46.030000	90.830884
46.040000	101.191013
46.050000	104.340608
46.060000	96.324333
46.070000	76.183073
46.080000	49.800876
46.090000	22.347919
46.100000	-3.404914
46.110000	-29.843895
46.120000	-57.280922
46.130000	-85.042337
46.140000	-111.162805
46.150000	-133.917614
46.160000	-151.387076
46.170000	-162.137235
46.180000	-168.966065
46.190000	-174.365859
46.200000	-179.885721
46.210000	-184.931936
46.220000	-188.815199
46.230000	-192.178502
46.240000	-192.412652
46.250000	-190.445099
46.260000	-186.017238
46.270000	-180.727261
46.280000	-174.293868
46.290000	-166.687390
46.300000	-158.583113
46.310000	-149.989770
46.320000	-140.214582
46.330000	-130.307822
46.340000	-119.184470
46.350000	-107.642061
46.360000	-95.830327
46.370000	-83.653437
46.380000	-71.154439
46.390000	-58.008406
46.400000	-45.160038
46.410000	-34.042777
46.420000	-31.191102
46.430000	-40.080263
46.440000	-59.888608
46.450000	-83.445281
46.460000	-106.940376
46.470000	-129.496778
46.480000	-153.345832
46.490000	-177.551451
46.500000	-202.099085
46.510000	-225.280128
46.520000	-245.197199
46.530000	-259.686841
46.540000	-266.975203
46.550000	-269.784775
46.560000	-270.431010
46.570000	-271.896846
46.580000	-272.553167
46.590000	-273.361760
46.600000	-271.343605
46.610000	-268.185303
46.620000	-261.802873
46.630000	-252.695164
46.640000	-243.280007
46.650000	-235.215568
46.660000	-227.094717
46.670000	-217.415072
46.680000	-206.594092
46.690000	-194.626167
46.700000	-182.776406
46.710000	-169.509045
46.720000	-157.984450
46.730000	-145.388370
46.740000	-132.882964
46.750000	-120.611131
46.760000	-109.797371
46.770000	-98.839070
46.780000	-89.734631
46.790000	-87.421396
46.800000	-95.681718
46.810000	-113.336446
46.820000	-134.963520
46.830000	-158.273149
46.840000	-181.259166
46.850000	-205.566294
46.860000	-230.561652
46.870000	-255.539011
46.880000	-278.540485
46.890000	-297.858878
46.900000	-311.197503
46.910000	-317.862959
46.920000	-319.540869
46.930000	-320.219850
46.940000	-321.223401
46.950000	-320.915095
46.960000	-319.591056
46.970000	-317.957944
46.980000	-315.301276
46.990000	-311.014216
47.000000	-303.689078
47.010000	-294.758056
47.020000	-285.422668
47.030000	-274.508441
47.040000	-263.844226
47.050000	-251.929380
47.060000	-240.621349
47.070000	-228.688153
47.080000	-216.749854
47.090000	-204.791449
47.100000	-192.223018
47.110000	-179.911622
47.120000	-166.703476
47.130000	-154.051768
47.140000	-139.519363
47.150000	-124.882900
47.160000	-109.675130
47.170000	-97.404291
47.180000	-92.178515
47.190000	-96.600815
47.200000	-110.687356
47.210000	-130.131321
47.220000	-151.878789
47.230000	-173.007967
47.240000	-194.426475
47.250000	-215.893819
47.260000	-237.988728
47.270000	-257.782311
47.280000	-273.900813
47.290000	-284.682191
47.300000	-289.160274
47.310000	-289.268784
47.320000	-287.767367
47.330000	-287.200093
47.340000	-286.376120
47.350000	-285.814629
47.360000	-283.656813
47.370000	-280.447508
47.380000	-274.275773
47.390000	-265.765631
47.400000	-257.244293
47.410000	-248.087127
47.420000	-239.562757
47.430000	-229.744520
47.440000	-218.898511
47.450000	-207.413442
47.460000	-195.578441
47.470000	-183.760284
47.480000	-171.934926
47.490000	-161.120871
47.500000	-150.296608
47.510000	-139.495074
47.520000	-128.000204
47.530000	-116.884742
47.540000	-106.378619
47.550000	-94.946612
47.560000	-83.440554
47.570000	-72.685284
47.580000	-68.860652
47.590000	-75.092268
47.600000	-89.610585
47.610000	-108.168973
47.620000	-126.035620
47.630000	-143.268511
47.640000	-159.468988
47.650000	-175.714933
47.660000	-192.242781
47.670000	-207.164832
47.680000	-219.361233
47.690000	-226.955104
47.700000	-230.161119
47.710000	-230.424348
47.720000	-230.974733
47.730000	-231.893669
47.740000	-231.792932
47.750000	-230.374502
47.760000	-228.623067
47.770000	-225.524819
47.780000	-220.462489
47.790000	-213.017102
47.800000	-204.314130
47.810000	-194.514600
47.820000	-183.506104
47.830000	-172.022058
47.840000	-159.368344
47.850000	-147.210064
47.860000	-134.898178
47.870000	-123.075450
47.880000	-111.432442
47.890000	-99.280050
47.900000	-86.642131
47.910000	-72.822684
47.920000	-58.528897
47.930000	-43.702981
47.940000	-28.756592
47.950000	-16.596314
47.960000	-11.326970
47.970000	-15.491290
47.980000	-27.224382
47.990000	-42.719949
48.000000	-57.124475
48.010000	-70.968827
48.020000	-84.027797
48.030000	-97.894546
48.040000	-112.264292
48.050000	-125.488165
48.060000	-136.841456
48.070000	-143.079532
48.080000	-144.432704
48.090000	-143.013812
48.100000	-140.694234
48.110000	-137.948401
48.120000	-134.624724
48.130000	-130.553488
48.140000	-125.224693
48.150000	-118.162279
48.160000	-110.833473
48.170000	-102.769088
48.180000	-93.779554
48.190000	-82.709640
48.200000	-71.403463
48.210000	-60.315826
48.220000	-49.027614
48.230000	-36.255474
48.240000	-22.993715
48.250000	-9.528730
48.260000	3.370111
48.270000	17.202307
48.280000	31.058860
48.290000	43.931417
48.300000	59.091184
48.310000	74.310720
48.320000	90.464129
48.330000	104.678643
48.340000	115.506706
48.350000	118.704742
48.360000	112.221299
48.370000	97.740569
48.380000	79.275226
48.390000	59.438962
48.400000	40.996111
48.410000	23.127527
48.420000	4.382077
48.430000	-15.179471
48.440000	-33.559552
48.450000	-47.482403
48.460000	-57.176783
48.470000	-61.781517
48.480000	-63.802300
48.490000	-63.072194
48.500000	-61.766350
48.510000	-60.356823
48.520000	-59.395780
48.530000	-57.300611
48.540000	-53.359152
48.550000	-48.246288
48.560000	-42.319593
48.570000	-36.524715
48.580000	-29.939233
48.590000	-22.469610
48.600000	-13.554974
48.610000	-2.745386
48.620000	9.496342
48.630000	22.314126
48.640000	34.550004
48.650000	46.714872
48.660000	59.273663
48.670000	73.120392
48.680000	86.326639
48.690000	98.868350
48.700000	111.719702
48.710000	125.619814
48.720000	140.113773
48.730000	151.032166
48.740000	155.516004
48.750000	150.114255
48.760000	136.938343
48.770000	119.538592
48.780000	101.365504
48.790000	82.960165
48.800000	64.797840
48.810000	46.384563
48.820000	28.238575
48.830000	9.811780
48.840000	-6.640449
48.850000	-18.754703
48.860000	-25.851298
48.870000	-28.317856
48.880000	-30.399686
48.890000	-32.196437
48.900000	-33.273291
48.910000	-32.399388
48.920000	-31.481941
48.930000	-30.256003
48.940000	-27.681296
48.950000	-22.772138
48.960000	-16.545390
48.970000	-9.947188
48.980000	-1.394852
48.990000	7.209341
49.000000	16.771349
49.010000	25.700426
49.020000	36.289760
49.030000	47.524098
49.040000	58.483572
49.050000	69.693675
49.060000	80.683377
49.070000	92.208816
49.080000	103.889049
49.090000	116.068401
49.100000	129.104003
49.110000	142.267712
49.120000	153.324318
49.130000	158.806599
49.140000	154.886726
49.150000	142.368081
49.160000	123.797254
49.170000	103.611542
49.180000	83.042552
49.190000	62.529856
49.200000	40.960734
49.210000	19.464930
49.220000	-0.776891
49.230000	-19.257673
49.240000	-34.166644
49.250000	-44.638465
49.260000	-50.547233
49.270000	-54.682617
49.280000	-57.911109
49.290000	-60.045658
49.300000	-61.932818
49.310000	-62.725589
49.320000	-62.612125
49.330000	-60.055415
49.340000	-55.618378
49.350000	-50.374367
49.360000	-44.944325
49.370000	-39.011557
49.380000	-31.589121
49.390000	-22.972838
49.400000	-13.888876
49.410000	-4.920715
49.420000	5.162821
49.430000	14.469422
49.440000	24.236498
49.450000	35.539287
49.460000	48.320694
49.470000	61.286174
49.480000	72.751029
49.490000	85.058121
49.500000	97.520497
49.510000	110.848149
49.520000	122.963341
49.530000	131.318038
49.540000	130.746935
49.550000	120.481396
49.560000	102.887316
49.570000	82.666129
49.580000	62.704459
49.590000	42.857733
49.600000	23.204191
49.610000	3.062679
49.620000	-16.275115
49.630000	-33.717267
49.640000	-48.405959
49.650000	-58.812816
49.660000	-64.858110
49.670000	-68.230436
49.680000	-69.958882
49.690000	-72.301747
49.700000	-73.030863
49.710000	-72.028937
49.720000	-68.751634
49.730000	-65.413548
49.740000	-61.782076
49.750000	-57.447280
49.760000	-51.794777
49.770000	-45.132914
49.780000	-37.455863
49.790000	-29.135378
49.800000	-19.429563
49.810000	-9.458507
49.820000	0.283024
49.830000	9.570462
49.840000	19.684558
49.850000	30.614151
49.860000	41.435307
49.870000	52.346098
49.880000	63.203750
49.890000	76.102941
49.900000	88.979643
49.910000	101.884584
49.920000	110.763373
49.930000	112.354302
49.940000	104.569675
49.950000	88.518934
49.960000	69.072558
49.970000	49.699417
49.980000	31.923248
49.990000	14.893309
50.000000	-2.205919
50.010000	-20.894572
50.020000	-37.968500
50.030000	-51.331772
50.040000	-58.375834
50.050000	-61.428576
50.060000	-63.430780
50.070000	-65.165266
50.080000	-66.462141
50.090000	-66.211622
50.100000	-65.478270
50.110000	-63.899404
50.120000	-60.471200
50.130000	-55.235167
50.140000	-48.777283
50.150000	-42.551519
50.160000	-35.053326
50.170000	-27.185785
50.180000	-18.302962
50.190000	-8.466386
50.200000	0.799110
50.210000	11.618886
50.220000	21.243763
50.230000	32.408642
50.240000	43.365645
50.250000	54.895004
50.260000	67.175658
50.270000	79.067647
50.280000	91.681876
50.290000	103.255871
50.300000	109.872435
50.310000	107.467403
50.320000	95.095388
50.330000	76.047850
50.340000	55.012905
50.350000	35.315396
50.360000	16.611303
50.370000	-2.729518
50.380000	-22.092947
50.390000	-40.415228
50.400000	-56.438582
50.410000	-68.742294
50.420000	-76.427337
50.430000	-79.714006
50.440000	-82.066459
50.450000	-83.985588
50.460000	-85.679335
50.470000	-86.897018
50.480000	-85.929194
50.490000	-83.121632
50.500000	-79.154058
50.510000	-74.319151
50.520000	-68.685488
50.530000	-61.488108
50.540000	-53.528161
50.550000	-44.627864
50.560000	-34.343468
50.570000	-23.745022
50.580000	-12.795524
50.590000	-2.504720
50.600000	8.118372
50.610000	18.759240
50.620000	30.396520
50.630000	42.379549
50.640000	55.372558
50.650000	69.024804
50.660000	82.374775
50.670000	95.701443
50.680000	106.062910
50.690000	109.737493
50.700000	102.778766
50.710000	87.485821
50.720000	67.861211
50.730000	47.261068
50.740000	26.632518
50.750000	5.728631
50.760000	-15.232518
50.770000	-35.773932
50.780000	-55.067311
50.790000	-71.912745
50.800000	-84.203433
50.810000	-91.025204
50.820000	-93.649143
50.830000	-96.115402
50.840000	-97.384249
50.850000	-98.514594
50.860000	-98.750815
50.870000	-98.553449
50.880000	-96.080591
50.890000	-90.898919
50.900000	-85.387382
50.910000	-78.203336
50.920000	-70.670542
50.930000	-62.472166
50.940000	-53.255732
50.950000	-43.378283
50.960000	-32.139898
50.970000	-21.593714
50.980000	-11.318897
50.990000	-0.108488
51.000000	11.529352
51.010000	25.415219
51.020000	38.730403
51.030000	52.648896
51.040000	66.625863
51.050000	80.248859
51.060000	92.886770
51.070000	105.218594
51.080000	118.515602
51.090000	128.205366
51.100000	129.844666
51.110000	120.563126
51.120000	104.559937
51.130000	85.619991
51.140000	67.642552
51.150000	49.028906
51.160000	29.094950
51.170000	9.478254
51.180000	-9.756131
51.190000	-26.365459
51.200000	-40.913845
51.210000	-50.164204
51.220000	-54.714111
51.230000	-56.598797
51.240000	-57.144210
51.250000	-58.333526
51.260000	-58.529241
51.270000	-58.372603
51.280000	-55.871677
51.290000	-53.053901
51.300000	-47.833877
51.310000	-41.040811
51.320000	-33.092431
51.330000	-24.659111
51.340000	-16.314627
51.350000	-7.237362
51.360000	2.162800
51.370000	13.559905
51.380000	26.337185
51.390000	40.061048
51.400000	52.877833
51.410000	65.606484
51.420000	77.451119
51.430000	90.196202
51.440000	103.388911
51.450000	117.158291
51.460000	131.697773
51.470000	146.823689
51.480000	161.375081
51.490000	174.862180
51.500000	187.425488
51.510000	195.929825
51.520000	194.840903
51.530000	183.382249
51.540000	165.307253
51.550000	147.548677
51.560000	131.129419
51.570000	115.081795
51.580000	97.655033
51.590000	79.660992
51.600000	63.557650
51.610000	48.603991
51.620000	38.177606
51.630000	32.243751
51.640000	31.171577
51.650000	31.579553
51.660000	30.874160
51.670000	31.301868
51.680000	31.607116
51.690000	33.405496
51.700000	36.040697
51.710000	40.219839
51.720000	47.182814
51.730000	55.066169
51.740000	64.706294
51.750000	75.616246
51.760000	86.936235
51.770000	99.211103
51.780000	110.199545
51.790000	122.192864
51.800000	133.158871
51.810000	144.893130
51.820000	156.819773
51.830000	168.301413
51.840000	181.864315
51.850000	195.405363
51.860000	210.962040
51.870000	224.868886
51.880000	238.783047
51.890000	253.706030
51.900000	269.977748
51.910000	285.578962
51.920000	296.208536
51.930000	296.825634
51.940000	287.495872
51.950000	272.793963
51.960000	257.827356
51.970000	244.128569
51.980000	229.524837
51.990000	213.844922
52.000000	198.269018
52.010000	182.934804
52.020000	170.062049
52.030000	160.062922
52.040000	155.571117
52.050000	154.554896
52.060000	154.455473
52.070000	154.428379
52.080000	154.385437
52.090000	156.017009
52.100000	158.351749
52.110000	162.655502
52.120000	169.025296
52.130000	177.002975
52.140000	187.078678
52.150000	198.390689
52.160000	209.507839
52.170000	221.495994
52.180000	233.642903
52.190000	247.317853
52.200000	260.479488
52.210000	273.189763
52.220000	286.362734
52.230000	300.772320
52.240000	315.619404
52.250000	330.400144
52.260000	345.924177
52.270000	361.735693
52.280000	377.941735
52.290000	392.108871
52.300000	407.352506
52.310000	423.183485
52.320000	439.141387
52.330000	449.956279
52.340000	452.647969
52.350000	444.775319
52.360000	429.882439
52.370000	412.976508
52.380000	395.819471
52.390000	380.222650
52.400000	363.789770
52.410000	348.191457
52.420000	332.798583
52.430000	318.542713
52.440000	307.522093
52.450000	300.936322
52.460000	298.285750
52.470000	297.370065
52.480000	296.094492
52.490000	295.523935
52.500000	297.282871
52.510000	299.379289
52.520000	302.189154
52.530000	306.614134
52.540000	313.473234
52.550000	321.220484
52.560000	328.134808
52.570000	336.214998
52.580000	345.168005
52.590000	355.589839
52.600000	366.240677
52.610000	378.683528
52.620000	390.680689
52.630000	403.163658
52.640000	415.159831
52.650000	427.693589
52.660000	440.345944
52.670000	453.937809
52.680000	467.571501
52.690000	481.228552
52.700000	495.509474
52.710000	510.227789
52.720000	524.489427
52.730000	536.267771
52.740000	545.518610
52.750000	548.006619
52.760000	541.262946
52.770000	526.799955
52.780000	509.727296
52.790000	493.298240
52.800000	476.556710
52.810000	459.509032
52.820000	442.429960
52.830000	426.766041
52.840000	412.675902
52.850000	400.733649
52.860000	392.968523
52.870000	389.070738
52.880000	388.636678
52.890000	388.108171
52.900000	387.356477
52.910000	385.519025
52.920000	385.461830
52.930000	387.297505
52.940000	391.610204
52.950000	397.112441
52.960000	403.803576
52.970000	411.300988
52.980000	418.369129
52.990000	426.203931
53.000000	435.975519
53.010000	446.808685
53.020000	457.621956
53.030000	468.456986
53.040000	480.311328
53.050000	493.811087
53.060000	506.030938
53.070000	519.219228
53.080000	531.445404
53.090000	545.011826
53.100000	558.890046
53.110000	573.848508
53.120000	589.370128
53.130000	601.380878
53.140000	607.894549
53.150000	603.274970
53.160000	590.146546
53.170000	569.870283
53.180000	547.780613
53.190000	525.827253
53.200000	504.782191
53.210000	485.154035
53.220000	465.147762
53.230000	445.858857
53.240000	427.213337
53.250000	412.943793
53.260000	403.639711
53.270000	399.730828
53.280000	397.089205
53.290000	394.561436
53.300000	393.580973
53.310000	392.418286
53.320000	393.117793
53.330000	393.631673
53.340000	396.701966
53.350000	400.198961
53.360000	404.994747
53.370000	411.464995
53.380000	418.650381
53.390000	426.767186
53.400000	433.999768
53.410000	442.111609
53.420000	449.705944
53.430000	458.162191
53.440000	466.437060
53.450000	475.583182
53.460000	484.526710
53.470000	491.031742
53.480000	492.311992
53.490000	488.184309
53.500000	482.137260
53.510000	477.031425
53.520000	473.652809
53.530000	468.896869
53.540000	458.193042
53.550000	439.464236
53.560000	411.430231
53.570000	377.405343
53.580000	342.031875
53.590000	310.040520
53.600000	280.979460
53.610000	252.029048
53.620000	222.960361
53.630000	195.047581
53.640000	170.636422
53.650000	148.748874
53.660000	132.013951
53.670000	119.130606
53.680000	108.414664
53.690000	96.197460
53.700000	80.176035
53.710000	62.299232
53.720000	43.290281
53.730000	24.090845
53.740000	6.094676
53.750000	-11.100568
53.760000	-27.077104
53.770000	-43.944351
53.780000	-61.220864
53.790000	-75.425993
53.800000	-83.679370
53.810000	-86.229659
53.820000	-86.460250
53.830000	-86.343547
53.840000	-86.551987
53.850000	-85.098222
53.860000	-83.301229
53.870000	-80.161951
53.880000	-76.705113
53.890000	-73.540621
53.900000	-69.420302
53.910000	-67.581681
53.920000	-72.455834
53.930000	-89.609920
53.940000	-116.787598
53.950000	-147.945805
53.960000	-178.441579
53.970000	-208.279818
53.980000	-237.080189
53.990000	-263.263215
54.000000	-286.374889
54.010000	-306.568266
54.020000	-324.658378
54.030000	-337.850690
54.040000	-345.936574
54.050000	-349.790673
54.060000	-353.211026
54.070000	-356.375917
54.080000	-359.140098
54.090000	-360.614932
54.100000	-360.727527
54.110000	-361.181911
54.120000	-361.632707
54.130000	-362.407748
54.140000	-360.185166
54.150000	-354.966974
54.160000	-346.394516
54.170000	-336.190084
54.180000	-324.591575
54.190000	-311.069822
54.200000	-296.451372
54.210000	-281.608980
54.220000	-269.977777
54.230000	-262.133461
54.240000	-255.823195
54.250000	-247.648515
54.260000	-239.009114
54.270000	-230.823171
54.280000	-221.181792
54.290000	-212.003124
54.300000	-208.358178
54.310000	-217.183514
54.320000	-235.502912
54.330000	-256.348772
54.340000	-276.654448
54.350000	-296.519071
54.360000	-318.810188
54.370000	-341.339001
54.380000	-360.291901
54.390000	-373.828369
54.400000	-380.438790
54.410000	-377.646258
54.420000	-367.596461
54.430000	-357.142067
54.440000	-352.751641
54.450000	-353.950941
54.460000	-355.559594
54.470000	-354.431331
54.480000	-351.043659
54.490000	-343.906034
54.500000	-333.198922
54.510000	-316.707657
54.520000	-295.363211
54.530000	-272.182278
54.540000	-249.192268
54.550000	-229.661340
54.560000	-212.009254
54.570000	-195.143197
54.580000	-176.824759
54.590000	-161.311436
54.600000	-152.641744
54.610000	-151.472674
54.620000	-153.113198
54.630000	-153.304462
54.640000	-157.948792
54.650000	-169.463109
54.660000	-189.452122
54.670000	-211.603513
54.680000	-233.302642
54.690000	-257.095321
54.700000	-281.145219
54.710000	-304.594103
54.720000	-324.319392
54.730000	-341.108297
54.740000	-354.160734
54.750000	-361.290400
54.760000	-361.677732
54.770000	-359.491624
54.780000	-356.861395
54.790000	-355.363775
54.800000	-353.375558
54.810000	-348.573466
54.820000	-342.573509
54.830000	-333.780810
54.840000	-323.786850
54.850000	-311.654681
54.860000	-298.679960
54.870000	-285.868219
54.880000	-273.578583
54.890000	-264.094490
54.900000	-258.147215
54.910000	-253.319872
54.920000	-247.056708
54.930000	-239.560894
54.940000	-232.311250
54.950000	-227.478842
54.960000	-228.577986
54.970000	-239.071968
54.980000	-258.843682
54.990000	-280.654468
55.000000	-301.463316
55.010000	-321.254494
55.020000	-342.098032
55.030000	-366.197707
55.040000	-389.391551
55.050000	-410.492175
55.060000	-425.353490
55.070000	-434.476079
55.080000	-439.328219
55.090000	-441.804740
55.100000	-443.646227
55.110000	-445.474147
55.120000	-447.640762
55.130000	-449.150562
55.140000	-447.642364
55.150000	-444.180641
55.160000	-438.317502
55.170000	-430.892044
55.180000	-422.670326
55.190000	-414.949553
55.200000	-407.697569
55.210000	-398.344919
55.220000	-388.748548
55.230000	-378.412149
55.240000	-367.479694
55.250000	-353.818280
55.260000	-340.236309
55.270000	-329.569790
55.280000	-327.011439
55.290000	-335.660997
55.300000	-353.451222
55.310000	-375.423171
55.320000	-395.901343
55.330000	-415.548454
55.340000	-436.367572
55.350000	-457.678851
55.360000	-477.509452
55.370000	-493.487404
55.380000	-506.004891
55.390000	-513.971230
55.400000	-516.513649
55.410000	-514.806771
55.420000	-510.703732
55.430000	-505.988283
55.440000	-499.565432
55.450000	-493.190506
55.460000	-485.765533
55.470000	-478.746000
55.480000	-469.968637
55.490000	-458.651577
55.500000	-445.522184
55.510000	-432.573603
55.520000	-421.421005
55.530000	-408.494368
55.540000	-394.344123
55.550000	-377.422347
55.560000	-361.294254
55.570000	-344.014819
55.580000	-327.935806
55.590000	-312.946802
55.600000	-298.589325
55.610000	-288.235545
55.620000	-286.258481
55.630000	-294.196035
55.640000	-305.919424
55.650000	-318.845751
55.660000	-330.927965
55.670000	-343.851816
55.680000	-355.940004
55.690000	-366.874317
55.700000	-375.963686
55.710000	-378.899513
55.720000	-375.678451
55.730000	-365.602018
55.740000	-352.417936
55.750000	-337.309940
55.760000	-322.506034
55.770000	-304.681642
55.780000	-283.280713
55.790000	-260.071984
55.800000	-239.408021
55.810000	-221.797241
55.820000	-202.198835
55.830000	-180.548186
55.840000	-158.339221
55.850000	-138.648705
55.860000	-119.477492
55.870000	-101.434816
55.880000	-82.620567
55.890000	-64.909590
55.900000	-46.097330
55.910000	-30.079275
55.920000	-14.902786
55.930000	-0.599094
55.940000	12.279045
55.950000	19.192259
55.960000	14.780813
55.970000	0.658359
55.980000	-18.052116
55.990000	-36.554037
56.000000	-52.235242
56.010000	-65.117796
56.020000	-75.763909
56.030000	-85.360591
56.040000	-93.966726
56.050000	-98.939812
56.060000	-100.521238
56.070000	-98.862487
56.080000	-97.762730
56.090000	-96.783744
56.100000	-95.681569
56.110000	-93.045203
56.120000	-89.950570
56.130000	-86.647647
56.140000	-81.557726
56.150000	-75.265802
56.160000	-68.842574
56.170000	-62.223786
56.180000	-54.467878
56.190000	-44.858510
56.200000	-37.448992
56.210000	-31.155085
56.220000	-24.103822
56.230000	-14.460902
56.240000	-1.102994
56.250000	11.876645
56.260000	25.904100
56.270000	38.193810
56.280000	46.905056
56.290000	47.829153
56.300000	41.243094
56.310000	29.795852
56.320000	18.245177
56.330000	9.415574
56.340000	1.225531
56.350000	-6.634679
56.360000	-14.468862
56.370000	-20.353499
56.380000	-26.181674
56.390000	-31.406810
56.400000	-35.903424
56.410000	-37.462098
56.420000	-39.314404
56.430000	-39.510695
56.440000	-37.737338
56.450000	-34.234862
56.460000	-29.167363
56.470000	-23.635486
56.480000	-16.598644
56.490000	-8.045996
56.500000	1.294403
56.510000	9.199160
56.520000	15.519670
56.530000	18.767237
56.540000	23.755596
56.550000	30.983561
56.560000	41.987886
56.570000	52.845148
56.580000	62.220962
56.590000	74.716794
56.600000	89.432763
56.610000	104.245662
56.620000	113.963462
56.630000	117.446399
56.640000	115.159388
56.650000	108.644323
56.660000	101.354869
56.670000	95.165625
56.680000	89.872432
56.690000	84.011332
56.700000	78.056591
56.710000	70.847228
56.720000	64.578053
56.730000	61.010091
56.740000	61.426433
56.750000	64.828323
56.760000	68.598743
56.770000	73.985615
56.780000	79.759430
56.790000	87.813402
56.800000	96.906831
56.810000	108.644396
56.820000	121.374081
56.830000	134.807998
56.840000	149.171670
56.850000	162.294011
56.860000	175.975894
56.870000	189.769641
56.880000	206.117245
56.890000	223.229568
56.900000	239.588653
56.910000	255.356817
56.920000	271.057151
56.930000	287.815210
56.940000	304.181454
56.950000	317.934415
56.960000	325.297805
56.970000	324.722773
56.980000	319.089404
56.990000	311.173975
57.000000	303.209351
57.010000	292.942740
57.020000	279.997709
57.030000	266.047096
57.040000	251.445779
57.050000	240.158066
57.060000	232.881610
57.070000	230.265669
57.080000	230.641204
57.090000	232.035931
57.100000	235.071441
57.110000	238.130255
57.120000	242.506578
57.130000	249.555003
57.140000	257.262746
57.150000	263.977709
57.160000	268.015812
57.170000	273.078876
57.180000	279.088847
57.190000	284.840646
57.200000	290.830264
57.210000	297.933846
