Time(s)	RED_denoised_wiener
0.000000	2466.305220
0.010000	2512.358663
0.020000	2533.930558
0.030000	2558.126847
0.040000	2574.345519
0.050000	2600.161105
0.060000	2631.889937
0.070000	2686.438905
0.080000	2743.184055
0.090000	2798.281350
0.100000	2836.631580
0.110000	2865.702508
0.120000	2887.914365
0.130000	2907.643872
0.140000	2926.035461
0.150000	2933.735931
0.160000	2935.373475
0.170000	2940.017675
0.180000	2953.880076
0.190000	2951.721742
0.200000	2940.984056
0.210000	2913.556276
0.220000	2832.180040
0.230000	2656.153358
0.240000	2420.495341
0.250000	2223.158938
0.260000	2105.108244
0.270000	2062.126895
0.280000	2090.270125
0.290000	2150.495520
0.300000	2207.270799
0.310000	2232.378794
0.320000	2242.889140
0.330000	2262.104517
0.340000	2284.920152
0.350000	2297.963577
0.360000	2290.780561
0.370000	2278.379276
0.380000	2275.124548
0.390000	2277.563343
0.400000	2280.279063
0.410000	2292.268183
0.420000	2316.897887
0.430000	2348.426345
0.440000	2376.982267
0.450000	2398.408975
0.460000	2413.554357
0.470000	2422.194472
0.480000	2430.949555
0.490000	2444.443946
0.500000	2462.800314
0.510000	2480.477574
0.520000	2498.467162
0.530000	2516.303770
0.540000	2526.576576
0.550000	2535.962023
0.560000	2555.823936
0.570000	2586.714013
0.580000	2603.789993
0.590000	2630.050837
0.600000	2655.784621
0.610000	2647.438891
0.620000	2557.856871
0.630000	2425.842960
0.640000	2308.089747
0.650000	2227.597548
0.660000	2183.364639
0.670000	2174.458468
0.680000	2189.715760
0.690000	2203.716061
0.700000	2205.540702
0.710000	2201.787235
0.720000	2208.154243
0.730000	2224.242582
0.740000	2234.820202
0.750000	2231.140322
0.760000	2215.940361
0.770000	2201.484950
0.780000	2181.428173
0.790000	2158.939181
0.800000	2159.391796
0.810000	2182.067915
0.820000	2219.748391
0.830000	2250.565222
0.840000	2273.903465
0.850000	2293.144899
0.860000	2305.109851
0.870000	2303.784048
0.880000	2297.420590
0.890000	2281.116795
0.900000	2271.518127
0.910000	2269.130694
0.920000	2260.300104
0.930000	2235.543891
0.940000	2199.506546
0.950000	2175.057287
0.960000	2163.033751
0.970000	2156.261065
0.980000	2145.933301
0.990000	2136.542617
1.000000	2125.184863
1.010000	2058.722921
1.020000	1907.869702
1.030000	1684.196742
1.040000	1435.272605
1.050000	1173.722517
1.060000	866.700210
1.070000	534.106315
1.080000	200.347885
1.090000	-163.658239
1.100000	-575.864490
1.110000	-991.383446
1.120000	-1371.696989
1.130000	-1672.921038
1.140000	-1894.898351
1.150000	-2069.240167
1.160000	-2217.934124
1.170000	-2338.348263
1.180000	-2407.918061
1.190000	-2439.893260
1.200000	-2445.570778
1.210000	-2455.166622
1.220000	-2489.877370
1.230000	-2546.052619
1.240000	-2609.504782
1.250000	-2653.923947
1.260000	-2690.589578
1.270000	-2720.790813
1.280000	-2751.047200
1.290000	-2767.629324
1.300000	-2778.594038
1.310000	-2789.492430
1.320000	-2795.144963
1.330000	-2801.755760
1.340000	-2795.010538
1.350000	-2783.120662
1.360000	-2762.217986
1.370000	-2738.891330
1.380000	-2730.500709
1.390000	-2728.973129
1.400000	-2701.097315
1.410000	-2673.604420
1.420000	-2687.453097
1.430000	-2782.621677
1.440000	-2899.927060
1.450000	-2994.069460
1.460000	-3061.242557
1.470000	-3094.571541
1.480000	-3090.966313
1.490000	-3068.197234
1.500000	-3055.121940
1.510000	-3063.846752
1.520000	-3076.600401
1.530000	-3074.232419
1.540000	-3067.569491
1.550000	-3062.013153
1.560000	-3072.309198
1.570000	-3088.806798
1.580000	-3107.813470
1.590000	-3124.012442
1.600000	-3134.074570
1.610000	-3130.292320
1.620000	-3119.797557
1.630000	-3103.644819
1.640000	-3088.961367
1.650000	-3074.733915
1.660000	-3059.551166
1.670000	-3038.909707
1.680000	-3006.566128
1.690000	-2968.884804
1.700000	-2928.670706
1.710000	-2902.331350
1.720000	-2880.807439
1.730000	-2863.237175
1.740000	-2837.016660
1.750000	-2807.632047
1.760000	-2782.338040
1.770000	-2750.753706
1.780000	-2698.758947
1.790000	-2643.739581
1.800000	-2599.950139
1.810000	-2554.430784
1.820000	-2534.031917
1.830000	-2573.258742
1.840000	-2681.829151
1.850000	-2790.989162
1.860000	-2850.797151
1.870000	-2876.351739
1.880000	-2867.845467
1.890000	-2838.204936
1.900000	-2801.687453
1.910000	-2766.499213
1.920000	-2729.958234
1.930000	-2677.888270
1.940000	-2617.080587
1.950000	-2564.433352
1.960000	-2533.656716
1.970000	-2527.077283
1.980000	-2521.293194
1.990000	-2498.869501
2.000000	-2465.459185
2.010000	-2434.149091
2.020000	-2409.068364
2.030000	-2381.863007
2.040000	-2358.185432
2.050000	-2339.034352
2.060000	-2327.111499
2.070000	-2317.991205
2.080000	-2299.488752
2.090000	-2276.133862
2.100000	-2238.301076
2.110000	-2204.829352
2.120000	-2168.851473
2.130000	-2129.684514
2.140000	-2095.903980
2.150000	-2057.967244
2.160000	-2019.470541
2.170000	-1979.382519
2.180000	-1942.198145
2.190000	-1902.249677
2.200000	-1845.382820
2.210000	-1758.266717
2.220000	-1692.560844
2.230000	-1682.718562
2.240000	-1769.572324
2.250000	-1897.388311
2.260000	-2010.400696
2.270000	-2084.295262
2.280000	-2113.431670
2.290000	-2098.036789
2.300000	-2041.623933
2.310000	-1974.671763
2.320000	-1912.260396
2.330000	-1864.112280
2.340000	-1797.935473
2.350000	-1740.201944
2.360000	-1703.393600
2.370000	-1697.774040
2.380000	-1706.934033
2.390000	-1715.504919
2.400000	-1709.969158
2.410000	-1683.076293
2.420000	-1641.867147
2.430000	-1604.167887
2.440000	-1569.204955
2.450000	-1531.738417
2.460000	-1499.737201
2.470000	-1470.103655
2.480000	-1436.419031
2.490000	-1390.289099
2.500000	-1342.646492
2.510000	-1297.281047
2.520000	-1255.694022
2.530000	-1213.750763
2.540000	-1172.582812
2.550000	-1144.077023
2.560000	-1124.255234
2.570000	-1098.534890
2.580000	-1067.797714
2.590000	-1025.132449
2.600000	-990.909729
2.610000	-964.500435
2.620000	-928.470516
2.630000	-884.415768
2.640000	-879.986358
2.650000	-963.494959
2.660000	-1082.387334
2.670000	-1161.340583
2.680000	-1189.461030
2.690000	-1195.457522
2.700000	-1187.307104
2.710000	-1162.040486
2.720000	-1135.701586
2.730000	-1117.099854
2.740000	-1096.541602
2.750000	-1059.642767
2.760000	-1026.639867
2.770000	-1019.353252
2.780000	-1036.504632
2.790000	-1057.507361
2.800000	-1064.874607
2.810000	-1067.229915
2.820000	-1066.389308
2.830000	-1070.466543
2.840000	-1076.035775
2.850000	-1083.878193
2.860000	-1090.500635
2.870000	-1098.135697
2.880000	-1088.739921
2.890000	-1057.927476
2.900000	-1020.194471
2.910000	-972.166876
2.920000	-918.166823
2.930000	-861.232702
2.940000	-818.674941
2.950000	-780.720651
2.960000	-742.025001
2.970000	-704.391278
2.980000	-667.198039
2.990000	-632.231411
3.000000	-611.227885
3.010000	-589.495015
3.020000	-565.790643
3.030000	-557.305120
3.040000	-547.088744
3.050000	-530.645105
3.060000	-540.985434
3.070000	-634.879142
3.080000	-772.779604
3.090000	-864.469243
3.100000	-896.613389
3.110000	-910.036424
3.120000	-916.194710
3.130000	-907.713279
3.140000	-891.309327
3.150000	-878.898857
3.160000	-875.231887
3.170000	-868.198931
3.180000	-848.656565
3.190000	-840.082405
3.200000	-850.532518
3.210000	-876.427372
3.220000	-889.166350
3.230000	-881.657828
3.240000	-868.352232
3.250000	-854.021050
3.260000	-839.352711
3.270000	-816.854067
3.280000	-790.877775
3.290000	-751.807210
3.300000	-708.277904
3.310000	-668.918371
3.320000	-639.160387
3.330000	-616.164373
3.340000	-583.830429
3.350000	-553.977454
3.360000	-525.287871
3.370000	-492.937460
3.380000	-455.912073
3.390000	-432.439682
3.400000	-422.308061
3.410000	-408.050010
3.420000	-380.214625
3.430000	-350.874404
3.440000	-305.536232
3.450000	-243.892153
3.460000	-199.103879
3.470000	-179.662640
3.480000	-173.769343
3.490000	-185.964598
3.500000	-274.067444
3.510000	-435.252674
3.520000	-592.647896
3.530000	-683.732268
3.540000	-719.916546
3.550000	-729.075256
3.560000	-727.972552
3.570000	-716.522864
3.580000	-705.208170
3.590000	-708.130686
3.600000	-706.503407
3.610000	-686.568617
3.620000	-670.045383
3.630000	-674.477378
3.640000	-698.350309
3.650000	-724.491417
3.660000	-746.165175
3.670000	-749.968065
3.680000	-730.148291
3.690000	-706.662198
3.700000	-685.573094
3.710000	-660.802458
3.720000	-623.803553
3.730000	-592.494129
3.740000	-557.102973
3.750000	-505.657714
3.760000	-472.674312
3.770000	-457.535313
3.780000	-447.355406
3.790000	-414.849745
3.800000	-391.005863
3.810000	-392.600724
3.820000	-376.299724
3.830000	-331.249008
3.840000	-273.809348
3.850000	-247.111421
3.860000	-218.250321
3.870000	-166.480331
3.880000	-106.260669
3.890000	-58.338774
3.900000	-25.694056
3.910000	-12.672388
3.920000	-63.708546
3.930000	-180.693057
3.940000	-311.712073
3.950000	-391.145806
3.960000	-413.349626
3.970000	-402.816871
3.980000	-379.777246
3.990000	-366.962820
4.000000	-347.898090
4.010000	-326.298033
4.020000	-286.766480
4.030000	-241.842901
4.040000	-220.479101
4.050000	-223.442399
4.060000	-250.320075
4.070000	-258.055922
4.080000	-252.091618
4.090000	-239.136507
4.100000	-226.327463
4.110000	-206.306623
4.120000	-176.037397
4.130000	-144.638555
4.140000	-113.855050
4.150000	-89.108097
4.160000	-67.109168
4.170000	-42.699093
4.180000	-9.486032
4.190000	32.232534
4.200000	74.992211
4.210000	112.375624
4.220000	140.018475
4.230000	158.742467
4.240000	174.602416
4.250000	190.644810
4.260000	207.390307
4.270000	228.767861
4.280000	257.386375
4.290000	289.418825
4.300000	320.259683
4.310000	335.255355
4.320000	347.422602
4.330000	365.962131
4.340000	352.669828
4.350000	252.838533
4.360000	81.323506
4.370000	-78.547835
4.380000	-172.218897
4.390000	-219.922907
4.400000	-238.534929
4.410000	-235.387516
4.420000	-221.977702
4.430000	-201.276903
4.440000	-185.226197
4.450000	-168.566357
4.460000	-155.948775
4.470000	-154.977000
4.480000	-178.130711
4.490000	-226.802709
4.500000	-278.358387
4.510000	-319.766075
4.520000	-347.055112
4.530000	-359.849689
4.540000	-354.519483
4.550000	-347.765269
4.560000	-339.713998
4.570000	-331.792957
4.580000	-314.653653
4.590000	-294.972260
4.600000	-283.377965
4.610000	-273.879241
4.620000	-263.884471
4.630000	-247.215419
4.640000	-233.205484
4.650000	-219.624596
4.660000	-205.300348
4.670000	-188.135029
4.680000	-178.532866
4.690000	-173.712077
4.700000	-177.218441
4.710000	-182.028623
4.720000	-178.665316
4.730000	-161.790756
4.740000	-149.276331
4.750000	-139.933778
4.760000	-116.943827
4.770000	-104.956284
4.780000	-158.458367
4.790000	-276.257125
4.800000	-397.907603
4.810000	-478.698119
4.820000	-535.622760
4.830000	-577.211809
4.840000	-598.730256
4.850000	-606.517514
4.860000	-613.617254
4.870000	-625.228915
4.880000	-623.200171
4.890000	-612.429831
4.900000	-605.229124
4.910000	-620.407074
4.920000	-654.621853
4.930000	-688.096589
4.940000	-709.795461
4.950000	-720.240842
4.960000	-716.381698
4.970000	-706.839043
4.980000	-693.370416
4.990000	-679.529614
5.000000	-655.743283
5.010000	-624.673423
5.020000	-595.553255
5.030000	-572.555143
5.040000	-541.062850
5.050000	-495.211540
5.060000	-448.041086
5.070000	-404.261182
5.080000	-362.083669
5.090000	-319.725765
5.100000	-283.562984
5.110000	-263.279824
5.120000	-249.068543
5.130000	-231.246732
5.140000	-202.659606
5.150000	-156.291975
5.160000	-113.405673
5.170000	-85.386818
5.180000	-53.812643
5.190000	-10.919765
5.200000	-3.109925
5.210000	-88.225059
5.220000	-236.573766
5.230000	-363.118032
5.240000	-430.908763
5.250000	-455.226246
5.260000	-449.977821
5.270000	-422.052393
5.280000	-379.787442
5.290000	-346.990316
5.300000	-332.959200
5.310000	-321.258914
5.320000	-298.205899
5.330000	-284.354962
5.340000	-293.500134
5.350000	-331.494662
5.360000	-370.767384
5.370000	-400.745219
5.380000	-413.104334
5.390000	-413.095933
5.400000	-418.538018
5.410000	-421.103066
5.420000	-429.412492
5.430000	-434.121097
5.440000	-446.737156
5.450000	-446.776839
5.460000	-438.187165
5.470000	-429.502755
5.480000	-437.048804
5.490000	-465.252214
5.500000	-510.610875
5.510000	-555.684917
5.520000	-582.559147
5.530000	-586.540754
5.540000	-572.920967
5.550000	-545.110190
5.560000	-505.999424
5.570000	-463.410529
5.580000	-407.746694
5.590000	-331.098115
5.600000	-262.310149
5.610000	-267.937123
5.620000	-352.082547
5.630000	-454.646207
5.640000	-511.222148
5.650000	-519.905261
5.660000	-493.446250
5.670000	-442.869760
5.680000	-383.391316
5.690000	-332.215107
5.700000	-297.352449
5.710000	-267.213861
5.720000	-224.337285
5.730000	-179.663047
5.740000	-152.383130
5.750000	-146.775534
5.760000	-136.381403
5.770000	-107.291925
5.780000	-64.132598
5.790000	-12.846534
5.800000	40.080868
5.810000	99.597161
5.820000	155.888112
5.830000	208.702194
5.840000	243.959867
5.850000	267.832756
5.860000	289.343442
5.870000	318.604382
5.880000	356.674299
5.890000	406.687935
5.900000	464.960059
5.910000	526.074441
5.920000	584.888347
5.930000	635.100275
5.940000	681.156061
5.950000	713.732260
5.960000	743.122348
5.970000	779.007975
5.980000	822.043298
5.990000	857.555095
6.000000	903.367712
6.010000	955.691089
6.020000	954.185743
6.030000	860.537200
6.040000	714.869518
6.050000	616.864541
6.060000	579.968096
6.070000	581.745658
6.080000	606.070319
6.090000	638.952961
6.100000	665.491004
6.110000	680.174351
6.120000	694.280067
6.130000	721.725909
6.140000	762.019774
6.150000	792.540880
6.160000	802.449996
6.170000	793.716479
6.180000	787.592583
6.190000	790.845648
6.200000	807.053708
6.210000	846.320645
6.220000	905.139290
6.230000	958.732993
6.240000	996.928007
6.250000	1022.845470
6.260000	1044.394066
6.270000	1063.940826
6.280000	1082.521803
6.290000	1102.706288
6.300000	1127.985186
6.310000	1155.788765
6.320000	1179.438152
6.330000	1193.542850
6.340000	1205.929348
6.350000	1221.290777
6.360000	1238.407263
6.370000	1262.727148
6.380000	1296.547146
6.390000	1344.507736
6.400000	1379.605044
6.410000	1403.706355
6.420000	1433.710091
6.430000	1450.144735
6.440000	1402.737305
6.450000	1270.336972
6.460000	1120.348712
6.470000	1022.209511
6.480000	981.459757
6.490000	972.338285
6.500000	982.282992
6.510000	993.796502
6.520000	1006.496621
6.530000	1018.260370
6.540000	1038.419184
6.550000	1066.374808
6.560000	1089.319750
6.570000	1093.498533
6.580000	1067.238276
6.590000	1035.401855
6.600000	1018.491074
6.610000	1021.609464
6.620000	1033.044588
6.630000	1048.518041
6.640000	1074.642206
6.650000	1104.737941
6.660000	1138.605747
6.670000	1170.624698
6.680000	1198.259792
6.690000	1221.868371
6.700000	1253.294628
6.710000	1295.102723
6.720000	1323.607121
6.730000	1348.779517
6.740000	1387.288243
6.750000	1408.343094
6.760000	1341.878845
6.770000	1191.794049
6.780000	1037.360902
6.790000	939.880275
6.800000	904.373200
6.810000	919.606857
6.820000	978.080923
6.830000	1046.614918
6.840000	1093.143885
6.850000	1104.694413
6.860000	1098.976938
6.870000	1097.135967
6.880000	1085.734441
6.890000	1060.956841
6.900000	1022.521335
6.910000	984.837870
6.920000	956.645900
6.930000	937.045774
6.940000	934.817164
6.950000	934.540754
6.960000	932.373850
6.970000	922.049447
6.980000	911.991332
6.990000	914.589550
7.000000	938.619465
7.010000	980.449545
7.020000	1021.560728
7.030000	1052.020522
7.040000	1077.900051
7.050000	1104.944742
7.060000	1133.578923
7.070000	1155.198348
7.080000	1174.314682
7.090000	1191.461898
7.100000	1218.435572
7.110000	1238.334153
7.120000	1235.580943
7.130000	1235.004871
7.140000	1245.035391
7.150000	1258.653908
7.160000	1193.637320
7.170000	1063.586779
7.180000	920.364920
7.190000	816.876361
7.200000	755.641241
7.210000	728.156022
7.220000	732.957168
7.230000	756.088215
7.240000	774.601816
7.250000	776.069279
7.260000	787.374312
7.270000	808.997588
7.280000	827.795704
7.290000	819.247507
7.300000	788.985984
7.310000	756.554905
7.320000	725.819003
7.330000	698.542195
7.340000	684.359155
7.350000	680.848404
7.360000	681.907744
7.370000	677.161262
7.380000	674.524797
7.390000	690.181552
7.400000	717.764466
7.410000	742.529877
7.420000	758.712993
7.430000	771.592548
7.440000	787.682069
7.450000	803.645128
7.460000	823.354377
7.470000	847.371843
7.480000	869.023162
7.490000	887.129793
7.500000	896.028885
7.510000	881.546729
7.520000	859.131433
7.530000	844.646705
7.540000	798.429798
7.550000	647.760243
7.560000	350.067187
7.570000	-84.706574
7.580000	-565.023915
7.590000	-938.981653
7.600000	-1171.673613
7.610000	-1291.505644
7.620000	-1306.517856
7.630000	-1253.799170
7.640000	-1182.716687
7.650000	-1112.330550
7.660000	-1051.208016
7.670000	-1016.874732
7.680000	-1006.297951
7.690000	-1016.073166
7.700000	-1023.991706
7.710000	-1036.673100
7.720000	-1054.657934
7.730000	-1072.245235
7.740000	-1074.621981
7.750000	-1054.494365
7.760000	-1020.285695
7.770000	-981.737095
7.780000	-950.277500
7.790000	-911.900221
7.800000	-876.659110
7.810000	-851.378323
7.820000	-851.722298
7.830000	-863.097396
7.840000	-875.789740
7.850000	-881.143660
7.860000	-880.208219
7.870000	-867.830699
7.880000	-844.633787
7.890000	-811.175533
7.900000	-788.105921
7.910000	-782.808715
7.920000	-763.796140
7.930000	-748.568021
7.940000	-787.568473
7.950000	-904.244858
7.960000	-1036.096469
7.970000	-1104.870196
7.980000	-1118.185453
7.990000	-1098.862444
8.000000	-1053.889469
8.010000	-997.533213
8.020000	-944.252551
8.030000	-910.200507
8.040000	-878.851077
8.050000	-834.528660
8.060000	-789.183988
8.070000	-760.531127
8.080000	-756.147515
8.090000	-762.133028
8.100000	-765.438433
8.110000	-764.758866
8.120000	-754.041276
8.130000	-732.056200
8.140000	-701.646830
8.150000	-668.686654
8.160000	-632.893543
8.170000	-596.314837
8.180000	-558.123618
8.190000	-513.924396
8.200000	-467.366885
8.210000	-424.197391
8.220000	-389.265280
8.230000	-356.765290
8.240000	-316.809868
8.250000	-268.348101
8.260000	-218.032827
8.270000	-171.585466
8.280000	-132.573545
8.290000	-100.802737
8.300000	-86.800513
8.310000	-68.587422
8.320000	-37.387001
8.330000	-30.822699
8.340000	-97.660470
8.350000	-222.538112
8.360000	-334.102985
8.370000	-394.000210
8.380000	-408.323526
8.390000	-389.803033
8.400000	-354.876634
8.410000	-329.621266
8.420000	-322.035572
8.430000	-331.404259
8.440000	-328.437934
8.450000	-302.226179
8.460000	-268.234392
8.470000	-252.064128
8.480000	-250.940972
8.490000	-247.850893
8.500000	-241.344760
8.510000	-239.651896
8.520000	-233.354264
8.530000	-210.098884
8.540000	-177.071336
8.550000	-134.513899
8.560000	-94.140203
8.570000	-54.212110
8.580000	-22.221084
8.590000	5.801303
8.600000	29.366087
8.610000	50.167819
8.620000	76.652387
8.630000	102.842120
8.640000	136.991990
8.650000	164.802161
8.660000	197.415975
8.670000	225.386963
8.680000	262.585456
8.690000	314.630699
8.700000	358.691866
8.710000	403.977640
8.720000	452.126159
8.730000	484.952279
8.740000	441.124223
8.750000	319.106893
8.760000	191.007080
8.770000	114.905638
8.780000	89.409364
8.790000	93.667171
8.800000	120.532305
8.810000	163.446789
8.820000	212.328820
8.830000	254.235252
8.840000	293.188752
8.850000	347.078735
8.860000	394.959068
8.870000	420.284800
8.880000	413.432329
8.890000	404.951913
8.900000	416.231238
8.910000	433.874407
8.920000	453.071410
8.930000	465.137369
8.940000	487.334051
8.950000	521.709842
8.960000	557.245519
8.970000	578.621975
8.980000	590.897841
8.990000	608.578350
9.000000	635.539339
9.010000	662.517079
9.020000	680.867716
9.030000	699.856904
9.040000	723.533732
9.050000	745.185859
9.060000	759.555814
9.070000	773.232803
9.080000	809.977218
9.090000	856.864518
9.100000	897.741983
9.110000	940.247163
9.120000	979.825537
9.130000	991.258678
9.140000	919.512836
9.150000	797.865051
9.160000	684.286932
9.170000	613.760578
9.180000	580.969294
9.190000	579.003999
9.200000	604.680802
9.210000	646.577013
9.220000	688.063537
9.230000	710.496657
9.240000	736.578625
9.250000	755.676829
9.260000	764.800075
9.270000	744.162866
9.280000	707.131181
9.290000	675.356873
9.300000	651.762663
9.310000	626.868562
9.320000	592.081589
9.330000	541.739903
9.340000	490.808690
9.350000	451.956372
9.360000	423.180179
9.370000	395.839202
9.380000	378.282834
9.390000	426.537386
9.400000	532.560493
9.410000	665.858112
9.420000	716.637790
9.430000	661.767520
9.440000	547.924041
9.450000	439.743359
9.460000	369.137398
9.470000	313.252310
9.480000	283.127251
9.490000	267.717217
9.500000	245.437972
9.510000	183.501034
9.520000	103.246914
9.530000	31.315491
9.540000	-6.263204
9.550000	-31.987527
9.560000	-57.394205
9.570000	-85.919423
9.580000	-102.124628
9.590000	-103.538331
9.600000	-96.196618
9.610000	-77.117473
9.620000	-58.963379
9.630000	-46.660636
9.640000	-44.380134
9.650000	-44.490250
9.660000	-43.126235
9.670000	-38.310848
9.680000	-36.213978
9.690000	-33.758778
9.700000	-26.283561
9.710000	-10.864473
9.720000	-4.059776
9.730000	-12.262166
9.740000	-17.756494
9.750000	-9.999740
9.760000	9.526785
9.770000	31.921866
9.780000	52.166822
9.790000	61.846775
9.800000	75.549204
9.810000	94.413785
9.820000	76.492146
9.830000	-16.998405
9.840000	-152.688099
9.850000	-260.631628
9.860000	-315.311994
9.870000	-334.706066
9.880000	-329.237027
9.890000	-304.088125
9.900000	-283.536642
9.910000	-277.085201
9.920000	-290.815914
9.930000	-289.959247
9.940000	-272.173543
9.950000	-259.222241
9.960000	-268.174468
9.970000	-297.757828
9.980000	-313.407033
9.990000	-316.715920
10.000000	-308.627777
10.010000	-295.679447
10.020000	-282.500125
10.030000	-268.619245
10.040000	-248.682772
10.050000	-220.558371
10.060000	-194.222586
10.070000	-172.134185
10.080000	-161.098436
10.090000	-149.650678
10.100000	-135.991783
10.110000	-115.817999
10.120000	-87.550411
10.130000	-64.684610
10.140000	-48.734104
10.150000	-44.886040
10.160000	-39.524303
10.170000	-23.758687
10.180000	8.018157
10.190000	39.650481
10.200000	54.567648
10.210000	77.848793
10.220000	99.027506
10.230000	70.954261
10.240000	-43.142979
10.250000	-191.021385
10.260000	-295.905103
10.270000	-352.184938
10.280000	-384.409253
10.290000	-397.955115
10.300000	-389.883258
10.310000	-367.078386
10.320000	-349.051464
10.330000	-327.785648
10.340000	-296.883790
10.350000	-258.843750
10.360000	-244.119379
10.370000	-254.482957
10.380000	-266.278407
10.390000	-264.806774
10.400000	-247.464060
10.410000	-231.177704
10.420000	-215.930032
10.430000	-202.878779
10.440000	-195.061474
10.450000	-181.869404
10.460000	-164.886822
10.470000	-147.525517
10.480000	-132.370419
10.490000	-120.504743
10.500000	-108.502252
10.510000	-90.471200
10.520000	-65.642204
10.530000	-33.432267
10.540000	-0.128503
10.550000	32.625228
10.560000	61.386019
10.570000	79.011612
10.580000	81.581728
10.590000	93.147111
10.600000	113.048478
10.610000	129.256911
10.620000	162.945233
10.630000	185.568923
10.640000	165.839834
10.650000	59.183106
10.660000	-75.308890
10.670000	-174.185514
10.680000	-226.596912
10.690000	-247.285971
10.700000	-248.539786
10.710000	-232.353141
10.720000	-214.849829
10.730000	-203.725571
10.740000	-190.443744
10.750000	-170.771657
10.760000	-154.070205
10.770000	-158.169589
10.780000	-181.304806
10.790000	-206.186883
10.800000	-230.241861
10.810000	-246.520905
10.820000	-259.873434
10.830000	-260.142525
10.840000	-246.191964
10.850000	-220.101858
10.860000	-194.535138
10.870000	-176.708506
10.880000	-157.161474
10.890000	-133.664006
10.900000	-107.125451
10.910000	-90.314455
10.920000	-74.359056
10.930000	-60.655528
10.940000	-49.919904
10.950000	-39.315978
10.960000	-31.491635
10.970000	-14.264871
10.980000	2.547016
10.990000	31.184270
11.000000	68.881883
11.010000	101.940788
11.020000	143.962456
11.030000	193.660450
11.040000	209.937697
11.050000	148.709228
11.060000	28.421987
11.070000	-74.411906
11.080000	-129.884477
11.090000	-152.651549
11.100000	-146.490532
11.110000	-123.242834
11.120000	-100.441738
11.130000	-87.808871
11.140000	-70.655462
11.150000	-33.368622
11.160000	21.752009
11.170000	62.660298
11.180000	74.543832
11.190000	60.408489
11.200000	52.419387
11.210000	56.755596
11.220000	69.604432
11.230000	77.747114
11.240000	83.836626
11.250000	94.085273
11.260000	108.388312
11.270000	129.434590
11.280000	151.253007
11.290000	185.168179
11.300000	214.377189
11.310000	240.622755
11.320000	260.490561
11.330000	288.463142
11.340000	322.227764
11.350000	346.939035
11.360000	367.355369
11.370000	381.065090
11.380000	401.529721
11.390000	430.829663
11.400000	449.648371
11.410000	461.660403
11.420000	493.499720
11.430000	523.361022
11.440000	496.262815
11.450000	387.480888
11.460000	263.278563
11.470000	184.588799
11.480000	142.104010
11.490000	123.023001
11.500000	125.629054
11.510000	154.476844
11.520000	189.087686
11.530000	208.598571
11.540000	222.966503
11.550000	251.414543
11.560000	284.435128
11.570000	301.869906
11.580000	288.586123
11.590000	270.439667
11.600000	255.022026
11.610000	252.351081
11.620000	258.755234
11.630000	273.271420
11.640000	295.825614
11.650000	318.839121
11.660000	345.259455
11.670000	364.704668
11.680000	384.743628
11.690000	401.874072
11.700000	418.244151
11.710000	439.721086
11.720000	467.398855
11.730000	497.555391
11.740000	514.186902
11.750000	519.439842
11.760000	524.332829
11.770000	545.005084
11.780000	571.406764
11.790000	577.860550
11.800000	579.926980
11.810000	592.714326
11.820000	593.676524
11.830000	520.123786
11.840000	386.303180
11.850000	257.672888
11.860000	187.562026
11.870000	161.033174
11.880000	156.467718
11.890000	169.773306
11.900000	189.351012
11.910000	217.215557
11.920000	243.867250
11.930000	277.704709
11.940000	314.680217
11.950000	334.814190
11.960000	335.872512
11.970000	325.280622
11.980000	315.074390
11.990000	307.383262
12.000000	295.916385
12.010000	296.208919
12.020000	308.378929
12.030000	327.683941
12.040000	341.148062
12.050000	342.172164
12.060000	343.967106
12.070000	361.995220
12.080000	396.071635
12.090000	433.445367
12.100000	461.838877
12.110000	483.931142
12.120000	505.275030
12.130000	526.397264
12.140000	546.702048
12.150000	576.219645
12.160000	603.730899
12.170000	622.380662
12.180000	640.461119
12.190000	665.532547
12.200000	663.068398
12.210000	584.304418
12.220000	455.540705
12.230000	340.504373
12.240000	274.593587
12.250000	242.556686
12.260000	242.006360
12.270000	265.252080
12.280000	299.729813
12.290000	325.250344
12.300000	341.498077
12.310000	358.934850
12.320000	381.905926
12.330000	400.904102
12.340000	400.620373
12.350000	382.240928
12.360000	353.341039
12.370000	328.919883
12.380000	313.353996
12.390000	310.919757
12.400000	320.339286
12.410000	335.226244
12.420000	344.298160
12.430000	356.575248
12.440000	370.547918
12.450000	393.935786
12.460000	417.403399
12.470000	432.618021
12.480000	444.948497
12.490000	449.924925
12.500000	463.868761
12.510000	482.158736
12.520000	507.459830
12.530000	541.373446
12.540000	573.334327
12.550000	591.568036
12.560000	610.263020
12.570000	629.038511
12.580000	609.736868
12.590000	522.847990
12.600000	401.363972
12.610000	312.399112
12.620000	263.474988
12.630000	246.889001
12.640000	251.891207
12.650000	270.031772
12.660000	286.603127
12.670000	288.157209
12.680000	286.362891
12.690000	298.944455
12.700000	320.704524
12.710000	333.674430
12.720000	324.369257
12.730000	304.450564
12.740000	290.357179
12.750000	283.829369
12.760000	294.342357
12.770000	316.810494
12.780000	345.968989
12.790000	372.756102
12.800000	398.264720
12.810000	422.004865
12.820000	442.531621
12.830000	458.226567
12.840000	473.788910
12.850000	485.731772
12.860000	502.050003
12.870000	520.514108
12.880000	544.965925
12.890000	573.919571
12.900000	595.824901
12.910000	621.356370
12.920000	634.914936
12.930000	634.132321
12.940000	637.364293
12.950000	638.810577
12.960000	602.365311
12.970000	496.803379
12.980000	353.839911
12.990000	243.200860
13.000000	179.462885
13.010000	163.526856
13.020000	175.995747
13.030000	198.153252
13.040000	212.496698
13.050000	210.769356
13.060000	217.050332
13.070000	238.970377
13.080000	264.847235
13.090000	269.429996
13.100000	246.658932
13.110000	220.934910
13.120000	206.737894
13.130000	204.361588
13.140000	207.759716
13.150000	210.079200
13.160000	209.421170
13.170000	205.760859
13.180000	202.049236
13.190000	206.748967
13.200000	215.934125
13.210000	226.028420
13.220000	239.124503
13.230000	253.587086
13.240000	270.611639
13.250000	285.417853
13.260000	303.080553
13.270000	315.834256
13.280000	324.861137
13.290000	333.209069
13.300000	339.916851
13.310000	326.153795
13.320000	309.023103
13.330000	312.736070
13.340000	311.275605
13.350000	250.859134
13.360000	123.938318
13.370000	-7.878457
13.380000	-104.509185
13.390000	-155.749697
13.400000	-177.413564
13.410000	-173.641452
13.420000	-162.409010
13.430000	-145.876664
13.440000	-129.467469
13.450000	-110.143179
13.460000	-84.245925
13.470000	-68.187001
13.480000	-71.060290
13.490000	-96.605948
13.500000	-118.850026
13.510000	-132.806675
13.520000	-135.369543
13.530000	-132.423869
13.540000	-128.945486
13.550000	-133.443507
13.560000	-143.551445
13.570000	-149.503191
13.580000	-148.236668
13.590000	-140.969292
13.600000	-135.000405
13.610000	-123.793011
13.620000	-103.835214
13.630000	-71.680149
13.640000	-33.426625
13.650000	-1.649265
13.660000	15.930629
13.670000	23.683021
13.680000	39.927247
13.690000	71.250328
13.700000	92.770872
13.710000	102.814336
13.720000	123.612643
13.730000	140.876713
13.740000	103.952737
13.750000	-2.700079
13.760000	-128.260990
13.770000	-215.997199
13.780000	-265.366092
13.790000	-286.059952
13.800000	-288.210398
13.810000	-286.206203
13.820000	-281.424579
13.830000	-286.121752
13.840000	-285.303802
13.850000	-272.801893
13.860000	-261.977486
13.870000	-274.913940
13.880000	-309.994490
13.890000	-337.023033
13.900000	-343.135097
13.910000	-339.273974
13.920000	-327.327745
13.930000	-300.578642
13.940000	-272.988340
13.950000	-251.609266
13.960000	-239.048772
13.970000	-228.025219
13.980000	-213.194125
13.990000	-201.220868
14.000000	-190.396963
14.010000	-185.181047
14.020000	-180.321158
14.030000	-177.909862
14.040000	-170.969343
14.050000	-162.749439
14.060000	-153.024417
14.070000	-135.990563
14.080000	-107.835596
14.090000	-75.345194
14.100000	-51.749301
14.110000	-19.032597
14.120000	5.821849
14.130000	-22.550734
14.140000	-119.945662
14.150000	-240.653579
14.160000	-331.446586
14.170000	-385.972999
14.180000	-410.069236
14.190000	-407.709309
14.200000	-395.482296
14.210000	-387.194156
14.220000	-396.986206
14.230000	-405.677824
14.240000	-401.601505
14.250000	-388.628668
14.260000	-391.699575
14.270000	-409.599649
14.280000	-425.848090
14.290000	-431.684608
14.300000	-432.796122
14.310000	-435.197366
14.320000	-435.478891
14.330000	-433.145804
14.340000	-426.252404
14.350000	-414.193035
14.360000	-403.140025
14.370000	-391.982800
14.380000	-374.777283
14.390000	-351.552253
14.400000	-327.860031
14.410000	-320.583514
14.420000	-313.950812
14.430000	-302.073339
14.440000	-275.129235
14.450000	-249.734582
14.460000	-231.710505
14.470000	-218.806509
14.480000	-206.050841
14.490000	-203.352867
14.500000	-209.795352
14.510000	-203.275299
14.520000	-191.723632
14.530000	-218.730630
14.540000	-315.386215
14.550000	-433.069345
14.560000	-514.795154
14.570000	-543.621041
14.580000	-536.734506
14.590000	-513.616043
14.600000	-493.777955
14.610000	-480.337019
14.620000	-479.935751
14.630000	-471.419969
14.640000	-447.570461
14.650000	-417.319571
14.660000	-403.014621
14.670000	-415.627512
14.680000	-432.138645
14.690000	-445.085045
14.700000	-455.392879
14.710000	-459.972350
14.720000	-457.091943
14.730000	-461.011638
14.740000	-488.907370
14.750000	-545.124329
14.760000	-606.756880
14.770000	-656.695487
14.780000	-676.044311
14.790000	-667.435542
14.800000	-641.463653
14.810000	-612.964222
14.820000	-593.651663
14.830000	-570.201632
14.840000	-534.632102
14.850000	-484.565779
14.860000	-432.431467
14.870000	-398.730602
14.880000	-366.239296
14.890000	-334.721069
14.900000	-284.773709
14.910000	-212.533674
14.920000	-151.189582
14.930000	-151.842066
14.940000	-230.288646
14.950000	-325.720437
14.960000	-376.833628
14.970000	-374.188760
14.980000	-345.929564
14.990000	-309.742980
15.000000	-275.117820
15.010000	-247.066627
15.020000	-241.785395
15.030000	-277.511364
15.040000	-365.215377
15.050000	-479.304919
15.060000	-607.798860
15.070000	-721.166597
15.080000	-803.870636
15.090000	-857.525443
15.100000	-922.499107
15.110000	-1061.395807
15.120000	-1270.804857
15.130000	-1477.188187
15.140000	-1581.347549
15.150000	-1565.652895
15.160000	-1486.954071
15.170000	-1400.899083
15.180000	-1328.249692
15.190000	-1283.579987
15.200000	-1274.310828
15.210000	-1279.635299
15.220000	-1273.141946
15.230000	-1245.188806
15.240000	-1207.483924
15.250000	-1177.878151
15.260000	-1155.226098
15.270000	-1131.333903
15.280000	-1075.358553
15.290000	-990.000989
15.300000	-867.915993
15.310000	-716.160244
15.320000	-595.072418
15.330000	-583.823889
15.340000	-695.834268
15.350000	-912.846614
15.360000	-1196.414115
15.370000	-1541.696931
15.380000	-1714.464770
15.390000	-1755.665924
15.400000	-1638.489664
15.410000	-1410.524103
15.420000	-749.640421
15.430000	-342.299508
15.440000	-170.792533
15.450000	-96.153181
15.460000	-80.584901
15.470000	-117.949774
15.480000	-185.784706
15.490000	-308.661094
15.500000	-507.189748
15.510000	-826.722206
15.520000	-1054.406477
15.530000	-1193.179369
15.540000	-1247.363831
15.550000	-1275.270917
15.560000	-1265.915866
15.570000	-1220.179964
15.580000	-1085.773331
15.590000	-875.244034
15.600000	-601.373501
15.610000	-316.488935
15.620000	-25.741147
15.630000	240.573220
15.640000	430.691487
15.650000	523.822930
15.660000	531.951007
15.670000	509.746021
15.680000	510.757307
15.690000	549.110821
15.700000	617.722132
15.710000	682.284426
15.720000	679.491000
15.730000	568.737526
15.740000	389.029109
15.750000	222.860772
15.760000	133.398264
15.770000	110.667371
15.780000	130.613086
15.790000	162.005371
15.800000	177.055230
15.810000	160.596009
15.820000	125.124757
15.830000	97.444103
15.840000	69.984805
15.850000	29.494945
15.860000	-30.584982
15.870000	-84.814447
15.880000	-124.983459
15.890000	-165.300015
15.900000	-203.116817
15.910000	-224.201511
15.920000	-226.063408
15.930000	-217.247538
15.940000	-211.805913
15.950000	-209.367974
15.960000	-211.668121
15.970000	-208.235371
15.980000	-189.981173
15.990000	-165.264298
16.000000	-145.750142
16.010000	-143.741705
16.020000	-141.215771
16.030000	-139.385120
16.040000	-140.463883
16.050000	-139.120766
16.060000	-119.128243
16.070000	-95.387973
16.080000	-115.996390
16.090000	-179.631950
16.100000	-252.220296
16.110000	-287.955975
16.120000	-298.380528
16.130000	-284.696969
16.140000	-268.375001
16.150000	-257.513026
16.160000	-257.807876
16.170000	-257.392381
16.180000	-238.669758
16.190000	-214.132326
16.200000	-191.295789
16.210000	-188.011679
16.220000	-193.955318
16.230000	-201.342092
16.240000	-200.386633
16.250000	-188.803582
16.260000	-173.620533
16.270000	-145.664107
16.280000	-112.677621
16.290000	-76.952911
16.300000	-54.548963
16.310000	-42.967041
16.320000	-36.521037
16.330000	-33.768838
16.340000	-30.594967
16.350000	-15.994098
16.360000	19.885693
16.370000	53.580374
16.380000	91.339345
16.390000	137.374108
16.400000	185.322293
16.410000	171.903329
16.420000	86.675661
16.430000	-31.874298
16.440000	-126.360152
16.450000	-171.514425
16.460000	-175.261270
16.470000	-156.959958
16.480000	-145.963693
16.490000	-152.125646
16.500000	-162.710977
16.510000	-164.396474
16.520000	-160.945133
16.530000	-168.140110
16.540000	-202.955538
16.550000	-246.223976
16.560000	-280.744022
16.570000	-290.082479
16.580000	-279.698341
16.590000	-253.041013
16.600000	-220.443626
16.610000	-183.413875
16.620000	-145.299038
16.630000	-113.235390
16.640000	-89.913657
16.650000	-68.468578
16.660000	-44.974103
16.670000	-19.483620
16.680000	15.548898
16.690000	38.651045
16.700000	47.019415
16.710000	57.736734
16.720000	80.031599
16.730000	69.237801
16.740000	-15.381858
16.750000	-130.132166
16.760000	-220.535135
16.770000	-269.373744
16.780000	-283.189439
16.790000	-271.726391
16.800000	-244.612195
16.810000	-221.207707
16.820000	-211.444148
16.830000	-207.408269
16.840000	-196.364272
16.850000	-193.119053
16.860000	-202.357659
16.870000	-226.257168
16.880000	-238.373142
16.890000	-220.852739
16.900000	-191.252890
16.910000	-146.826035
16.920000	-104.286066
16.930000	-55.163286
16.940000	1.226439
16.950000	55.706299
16.960000	98.304200
16.970000	124.491796
16.980000	143.988909
16.990000	160.495427
17.000000	177.240513
17.010000	189.712838
17.020000	211.109312
17.030000	233.440801
17.040000	251.554825
17.050000	280.125657
17.060000	305.826046
17.070000	276.941206
17.080000	168.072516
17.090000	37.222299
17.100000	-42.402603
17.110000	-65.446143
17.120000	-60.734613
17.130000	-40.832756
17.140000	-27.187014
17.150000	-20.591804
17.160000	-32.096566
17.170000	-37.683350
17.180000	-33.155867
17.190000	-27.238852
17.200000	-31.651686
17.210000	-56.217265
17.220000	-77.818313
17.230000	-90.002557
17.240000	-84.741544
17.250000	-75.273684
17.260000	-62.056921
17.270000	-49.984065
17.280000	-42.796032
17.290000	-45.457864
17.300000	-54.605477
17.310000	-55.326310
17.320000	-40.195010
17.330000	-13.319112
17.340000	17.111744
17.350000	42.929155
17.360000	55.658847
17.370000	66.138498
17.380000	88.456423
17.390000	115.865671
17.400000	148.180587
17.410000	190.181895
17.420000	210.046467
17.430000	156.687636
17.440000	24.279260
17.450000	-111.673800
17.460000	-180.926114
17.470000	-190.002975
17.480000	-174.969330
17.490000	-156.379419
17.500000	-135.048026
17.510000	-117.527808
17.520000	-100.856598
17.530000	-81.430268
17.540000	-50.406439
17.550000	-32.847994
17.560000	-42.680988
17.570000	-67.281248
17.580000	-87.024583
17.590000	-81.132758
17.600000	-58.537689
17.610000	-32.082740
17.620000	-19.485064
17.630000	-22.409333
17.640000	-47.867643
17.650000	-91.123995
17.660000	-136.640709
17.670000	-155.889615
17.680000	-141.892751
17.690000	-107.462527
17.700000	-53.865834
17.710000	13.534077
17.720000	84.395028
17.730000	147.108344
17.740000	210.627025
17.750000	274.237573
17.760000	313.709461
17.770000	341.716711
17.780000	360.679131
17.790000	348.377086
17.800000	267.188920
17.810000	130.092367
17.820000	12.452833
17.830000	-55.065515
17.840000	-69.108478
17.850000	-57.726363
17.860000	-39.059110
17.870000	-25.788589
17.880000	-29.756965
17.890000	-32.516978
17.900000	-15.537104
17.910000	11.595058
17.920000	22.220364
17.930000	1.657995
17.940000	-26.665996
17.950000	-41.032072
17.960000	-42.362688
17.970000	-33.809566
17.980000	-25.492984
17.990000	-22.654619
18.000000	-17.668722
18.010000	-9.598653
18.020000	4.747966
18.030000	30.716298
18.040000	62.052712
18.050000	96.629335
18.060000	118.907552
18.070000	136.192216
18.080000	146.323673
18.090000	163.721414
18.100000	170.237965
18.110000	160.540264
18.120000	164.169335
18.130000	188.218923
18.140000	198.241571
18.150000	131.408092
18.160000	13.144836
18.170000	-105.744245
18.180000	-182.050470
18.190000	-217.764940
18.200000	-214.655880
18.210000	-189.905187
18.220000	-160.003107
18.230000	-145.800961
18.240000	-136.673930
18.250000	-116.090389
18.260000	-101.514499
18.270000	-106.110876
18.280000	-142.763659
18.290000	-173.066346
18.300000	-181.818906
18.310000	-170.142149
18.320000	-147.973701
18.330000	-129.972742
18.340000	-121.511299
18.350000	-111.499586
18.360000	-99.151816
18.370000	-82.430765
18.380000	-59.199649
18.390000	-39.135132
18.400000	-17.281187
18.410000	-2.618154
18.420000	12.943966
18.430000	31.475612
18.440000	62.783873
18.450000	95.103816
18.460000	117.887659
18.470000	147.399713
18.480000	166.493914
18.490000	134.893161
18.500000	31.079620
18.510000	-98.498612
18.520000	-195.707625
18.530000	-235.051563
18.540000	-216.970797
18.550000	-162.064392
18.560000	-111.026825
18.570000	-82.754832
18.580000	-79.440936
18.590000	-80.453028
18.600000	-66.930173
18.610000	-46.627737
18.620000	-44.870890
18.630000	-73.501783
18.640000	-93.407840
18.650000	-77.143872
18.660000	-35.117899
18.670000	15.793986
18.680000	58.101589
18.690000	95.722062
18.700000	118.547499
18.710000	125.607032
18.720000	129.963940
18.730000	146.428973
18.740000	178.281066
18.750000	209.463685
18.760000	231.551880
18.770000	244.119944
18.780000	254.109354
18.790000	264.699142
18.800000	282.275756
18.810000	305.524148
18.820000	314.658563
18.830000	312.010546
18.840000	322.370539
18.850000	313.608261
18.860000	242.987874
18.870000	101.901029
18.880000	-37.905939
18.890000	-121.250046
18.900000	-155.369385
18.910000	-155.487748
18.920000	-143.916829
18.930000	-133.096034
18.940000	-129.512124
18.950000	-134.754905
18.960000	-132.455296
18.970000	-115.168656
18.980000	-95.182864
18.990000	-95.007178
19.000000	-118.589313
19.010000	-141.497444
19.020000	-150.422497
19.030000	-148.428695
19.040000	-145.336747
19.050000	-140.727489
19.060000	-134.313519
19.070000	-121.409522
19.080000	-109.385209
19.090000	-102.143665
19.100000	-92.487865
19.110000	-75.612319
19.120000	-52.667978
19.130000	-32.830596
19.140000	-22.233804
19.150000	-14.408147
19.160000	-0.185928
19.170000	17.587781
19.180000	35.132699
19.190000	53.871500
19.200000	79.068895
19.210000	90.692936
19.220000	95.686555
19.230000	104.799048
19.240000	82.451372
19.250000	-12.167963
19.260000	-168.033344
19.270000	-305.003540
19.280000	-387.699221
19.290000	-424.016015
19.300000	-432.452077
19.310000	-434.093272
19.320000	-447.589063
19.330000	-474.848518
19.340000	-510.763888
19.350000	-532.278048
19.360000	-539.392097
19.370000	-540.119437
19.380000	-543.746786
19.390000	-551.327656
19.400000	-552.459242
19.410000	-559.654500
19.420000	-568.179798
19.430000	-572.033110
19.440000	-561.277906
19.450000	-536.495406
19.460000	-509.461328
19.470000	-487.332681
19.480000	-471.349260
19.490000	-455.871584
19.500000	-435.959389
19.510000	-415.822315
19.520000	-394.274480
19.530000	-371.830578
19.540000	-350.646686
19.550000	-335.565236
19.560000	-320.708205
19.570000	-308.708431
19.580000	-296.806477
19.590000	-283.907496
19.600000	-263.273614
19.610000	-240.524597
19.620000	-228.477674
19.630000	-200.082413
19.640000	-177.533599
19.650000	-214.777101
19.660000	-342.240984
19.670000	-499.604985
19.680000	-610.620115
19.690000	-666.667164
19.700000	-684.116141
19.710000	-689.806069
19.720000	-692.276250
19.730000	-699.657900
19.740000	-709.119996
19.750000	-714.881736
19.760000	-715.355054
19.770000	-712.829035
19.780000	-723.340366
19.790000	-747.445989
19.800000	-774.673896
19.810000	-789.427045
19.820000	-786.413570
19.830000	-772.151368
19.840000	-750.857409
19.850000	-723.911364
19.860000	-692.677648
19.870000	-656.374881
19.880000	-632.590722
19.890000	-609.131948
19.900000	-581.566750
19.910000	-528.884740
19.920000	-460.333428
19.930000	-375.986161
19.940000	-291.182139
19.950000	-216.447406
19.960000	-165.077775
19.970000	-122.203549
19.980000	-88.053405
19.990000	-130.182737
20.000000	-200.749817
20.010000	-254.539802
20.020000	-216.066681
20.030000	-158.675501
20.040000	-127.007496
20.050000	-140.444207
20.060000	-190.908205
20.070000	-251.863788
20.080000	-303.528628
20.090000	-353.058111
20.100000	-448.962981
20.110000	-596.165983
20.120000	-770.684128
20.130000	-914.880523
20.140000	-997.844025
20.150000	-1015.700909
20.160000	-1040.577150
20.170000	-1179.261538
20.180000	-1450.210106
20.190000	-1601.258077
20.200000	-1652.068044
20.210000	-1606.373319
20.220000	-1485.210149
20.230000	-1228.120883
20.240000	-850.692647
20.250000	-707.301667
20.260000	-622.722580
20.270000	-505.134742
20.280000	-281.329254
20.290000	-83.225834
20.300000	-13.644948
20.310000	-109.830369
20.320000	-319.128992
20.330000	-555.686301
20.340000	-761.851468
20.350000	-950.744794
20.360000	-1144.396940
20.370000	-1346.439987
20.380000	-1527.204295
20.390000	-1660.831773
20.400000	-1710.667554
20.410000	-1644.253401
20.420000	-1461.570975
20.430000	-1202.336897
20.440000	-882.184997
20.450000	-556.814681
20.460000	-334.549099
20.470000	-242.188193
20.480000	-266.415036
20.490000	-330.209460
20.500000	-387.044158
20.510000	-383.891670
20.520000	-301.109799
20.530000	-158.693596
20.540000	-27.993364
20.550000	49.242889
20.560000	83.256950
20.570000	99.212089
20.580000	108.795965
20.590000	111.808329
20.600000	111.671934
20.610000	123.096552
20.620000	157.533914
20.630000	187.941316
20.640000	199.759759
20.650000	203.184288
20.660000	213.329978
20.670000	229.715925
20.680000	241.537312
20.690000	241.255974
20.700000	241.800936
20.710000	251.450626
20.720000	226.590040
20.730000	136.014671
20.740000	-10.839966
20.750000	-144.252475
20.760000	-225.350845
20.770000	-259.637012
20.780000	-259.208059
20.790000	-239.692172
20.800000	-221.739358
20.810000	-211.032551
20.820000	-203.235499
20.830000	-193.028620
20.840000	-176.058716
20.850000	-176.760876
20.860000	-191.461207
20.870000	-217.150795
20.880000	-236.813756
20.890000	-243.222151
20.900000	-239.515356
20.910000	-225.270320
20.920000	-208.225322
20.930000	-195.301548
20.940000	-185.899284
20.950000	-181.322003
20.960000	-176.539198
20.970000	-170.335634
20.980000	-160.157477
20.990000	-153.023608
21.000000	-150.073670
21.010000	-136.982512
21.020000	-114.009332
21.030000	-95.291620
21.040000	-86.232431
21.050000	-71.855519
21.060000	-74.869135
21.070000	-132.769475
21.080000	-253.065588
21.090000	-373.132248
21.100000	-453.633457
21.110000	-483.880488
21.120000	-479.579937
21.130000	-460.946553
21.140000	-440.476655
21.150000	-427.975988
21.160000	-404.598091
21.170000	-370.694216
21.180000	-339.724244
21.190000	-333.737394
21.200000	-351.754484
21.210000	-373.026249
21.220000	-380.427293
21.230000	-370.651647
21.240000	-349.757041
21.250000	-322.236601
21.260000	-292.382721
21.270000	-264.450564
21.280000	-242.302393
21.290000	-222.271543
21.300000	-203.189243
21.310000	-180.710068
21.320000	-164.072292
21.330000	-146.061581
21.340000	-127.936071
21.350000	-125.075289
21.360000	-117.659196
21.370000	-90.390056
21.380000	-41.373721
21.390000	-53.558380
21.400000	-142.857273
21.410000	-267.186501
21.420000	-356.214943
21.430000	-383.218703
21.440000	-364.975679
21.450000	-318.200256
21.460000	-274.726742
21.470000	-254.430363
21.480000	-243.332155
21.490000	-219.251209
21.500000	-182.277933
21.510000	-149.062662
21.520000	-142.852884
21.530000	-153.058155
21.540000	-173.048281
21.550000	-178.614194
21.560000	-165.573436
21.570000	-130.446171
21.580000	-88.757383
21.590000	-49.198562
21.600000	-24.891936
21.610000	-12.175875
21.620000	-1.614234
21.630000	15.241241
21.640000	32.689161
21.650000	59.764135
21.660000	91.687337
21.670000	103.632100
21.680000	109.860421
21.690000	127.910694
21.700000	142.679562
21.710000	94.804180
21.720000	-13.260979
21.730000	-122.074537
21.740000	-188.507635
21.750000	-205.980876
21.760000	-190.743483
21.770000	-156.472560
21.780000	-121.918261
21.790000	-91.515845
21.800000	-58.987115
21.810000	-24.499584
21.820000	6.006174
21.830000	23.921431
21.840000	25.425446
21.850000	18.789240
21.860000	17.941258
21.870000	63.144465
21.880000	189.191213
21.890000	375.764914
21.900000	570.102720
21.910000	714.122168
21.920000	798.567161
21.930000	832.950542
21.940000	834.473025
21.950000	838.583411
21.960000	844.033199
21.970000	848.301945
21.980000	844.003219
21.990000	843.164389
22.000000	845.697927
22.010000	865.824798
22.020000	891.412950
22.030000	870.803363
22.040000	773.948067
22.050000	640.066929
22.060000	549.023577
22.070000	522.266151
22.080000	553.118607
22.090000	705.877404
22.100000	1051.649667
22.110000	1781.226288
22.120000	2139.906868
22.130000	2234.205073
22.140000	2204.923087
22.150000	2207.505176
22.160000	2292.204460
22.170000	2405.623079
22.180000	2518.321368
22.190000	2647.305512
22.200000	2799.180554
22.210000	2951.680026
22.220000	3067.102575
22.230000	3145.931813
22.240000	3200.830926
22.250000	3244.624048
22.260000	3301.363898
22.270000	3368.684593
22.280000	3435.647934
22.290000	3482.495904
22.300000	3510.431557
22.310000	3513.396294
22.320000	3498.694559
22.330000	3473.071452
22.340000	3413.652788
22.350000	3320.252424
22.360000	3210.436840
22.370000	3096.195350
22.380000	2944.207240
22.390000	2746.652616
22.400000	2559.931809
22.410000	2437.880753
22.420000	2370.926918
22.430000	2337.520791
22.440000	2328.400655
22.450000	2338.283369
22.460000	2357.641069
22.470000	2426.627442
22.480000	2562.597262
22.490000	2758.349144
22.500000	2956.527437
22.510000	3125.586782
22.520000	3267.661790
22.530000	3375.242881
22.540000	3449.264207
22.550000	3477.975584
22.560000	3467.359987
22.570000	3445.546965
22.580000	3431.875981
22.590000	3431.189369
22.600000	3429.785012
22.610000	3421.295664
22.620000	3407.493229
22.630000	3390.178603
22.640000	3378.665020
22.650000	3371.140281
22.660000	3352.910395
22.670000	3329.933961
22.680000	3306.927262
22.690000	3284.490848
22.700000	3277.423889
22.710000	3279.764370
22.720000	3263.633520
22.730000	3169.055794
22.740000	3020.179765
22.750000	2882.566001
22.760000	2801.107083
22.770000	2771.043786
22.780000	2757.053833
22.790000	2743.344662
22.800000	2723.127487
22.810000	2699.106492
22.820000	2686.001715
22.830000	2673.900911
22.840000	2639.939936
22.850000	2550.096892
22.860000	2389.696123
22.870000	2183.164373
22.880000	1964.241248
22.890000	1741.926507
22.900000	1531.231383
22.910000	1344.107954
22.920000	1219.388936
22.930000	1150.591057
22.940000	1100.888459
22.950000	1039.181040
22.960000	963.558479
22.970000	852.807498
22.980000	661.936012
22.990000	331.960269
23.000000	-81.951287
23.010000	-587.822090
23.020000	-1103.838396
23.030000	-1665.133979
23.040000	-2151.334007
23.050000	-2380.553803
23.060000	-2574.822707
23.070000	-2770.987748
23.080000	-2960.415139
23.090000	-3073.842401
23.100000	-3106.439210
23.110000	-3118.464588
23.120000	-3157.350883
23.130000	-3220.873939
23.140000	-3267.077678
23.150000	-3223.123396
23.160000	-3065.532296
23.170000	-2820.228107
23.180000	-2593.105423
23.190000	-2435.914167
23.200000	-2327.712275
23.210000	-2217.907391
23.220000	-2067.948011
23.230000	-1899.997056
23.240000	-1738.787679
23.250000	-1656.146782
23.260000	-1633.309744
23.270000	-1625.155820
23.280000	-1576.736995
23.290000	-1490.922970
23.300000	-1416.222698
23.310000	-1354.829791
23.320000	-1294.937265
23.330000	-1132.333218
23.340000	-826.948253
23.350000	-19.951912
23.360000	733.356171
23.370000	705.701984
23.380000	307.441460
23.390000	-220.746211
23.400000	-727.397887
23.410000	-991.466317
23.420000	-1091.417061
23.430000	-1064.787398
23.440000	-999.898940
23.450000	-916.191894
23.460000	-834.323816
23.470000	-779.883299
23.480000	-760.640157
23.490000	-755.770274
23.500000	-751.583893
23.510000	-770.698460
23.520000	-800.706608
23.530000	-846.950924
23.540000	-895.051020
23.550000	-922.122904
23.560000	-930.073395
23.570000	-924.247860
23.580000	-918.396039
23.590000	-900.245515
23.600000	-879.724138
23.610000	-858.832848
23.620000	-851.028785
23.630000	-849.643613
23.640000	-848.948341
23.650000	-847.077603
23.660000	-830.782856
23.670000	-812.194460
23.680000	-782.172379
23.690000	-756.660568
23.700000	-736.133359
23.710000	-716.728965
23.720000	-739.833059
23.730000	-829.698324
23.740000	-992.096925
23.750000	-1149.387072
23.760000	-1254.727439
23.770000	-1301.468481
23.780000	-1308.376912
23.790000	-1293.163014
23.800000	-1268.963382
23.810000	-1252.149514
23.820000	-1230.755284
23.830000	-1203.448659
23.840000	-1173.175875
23.850000	-1160.078799
23.860000	-1165.161152
23.870000	-1180.301268
23.880000	-1184.394968
23.890000	-1168.508158
23.900000	-1131.935836
23.910000	-1093.052014
23.920000	-1061.738050
23.930000	-1032.839345
23.940000	-999.152839
23.950000	-963.606122
23.960000	-934.868432
23.970000	-906.951083
23.980000	-884.231007
23.990000	-861.220859
24.000000	-828.534840
24.010000	-788.809003
24.020000	-748.133556
24.030000	-710.343057
24.040000	-674.671777
24.050000	-676.595489
24.060000	-744.141741
24.070000	-843.296407
24.080000	-907.474486
24.090000	-909.390853
24.100000	-871.228694
24.110000	-819.449313
24.120000	-760.212739
24.130000	-694.111403
24.140000	-625.158421
24.150000	-545.025152
24.160000	-465.778991
24.170000	-392.204407
24.180000	-341.385489
24.190000	-317.299779
24.200000	-296.535507
24.210000	-264.705313
24.220000	-214.323151
24.230000	-165.471864
24.240000	-122.018176
24.250000	-78.497998
24.260000	-27.325875
24.270000	19.804462
24.280000	68.796350
24.290000	112.452579
24.300000	156.335304
24.310000	205.146731
24.320000	248.213803
24.330000	290.599254
24.340000	323.435904
24.350000	366.512384
24.360000	421.323033
24.370000	472.093397
24.380000	509.275945
24.390000	537.094279
24.400000	542.897919
24.410000	492.417886
24.420000	376.972296
24.430000	251.632072
24.440000	178.782256
24.450000	176.105658
24.460000	219.860631
24.470000	279.609720
24.480000	338.358138
24.490000	397.212386
24.500000	459.577519
24.510000	523.181693
24.520000	588.854320
24.530000	637.478450
24.540000	664.887748
24.550000	674.845878
24.560000	688.684975
24.570000	716.230566
24.580000	748.479332
24.590000	780.675742
24.600000	810.328700
24.610000	841.855318
24.620000	878.222809
24.630000	910.383908
24.640000	934.513224
24.650000	948.298564
24.660000	964.894639
24.670000	987.902100
24.680000	1019.654288
24.690000	1055.869105
24.700000	1086.111928
24.710000	1113.922625
24.720000	1136.266213
24.730000	1162.391149
24.740000	1198.125595
24.750000	1236.204753
24.760000	1260.675363
24.770000	1287.486764
24.780000	1305.865715
24.790000	1286.765752
24.800000	1198.763214
24.810000	1077.609422
24.820000	979.095764
24.830000	922.733276
24.840000	888.031426
24.850000	861.255139
24.860000	832.690724
24.870000	798.839795
24.880000	743.694512
24.890000	650.801863
24.900000	496.724199
24.910000	275.393545
24.920000	1.210928
24.930000	-258.436864
24.940000	-484.097317
24.950000	-686.165546
24.960000	-866.383584
24.970000	-1030.864053
24.980000	-1172.256274
24.990000	-1269.147556
25.000000	-1320.475351
25.010000	-1348.452351
25.020000	-1360.945922
25.030000	-1352.344538
25.040000	-1312.695830
25.050000	-1261.943603
25.060000	-1226.755800
25.070000	-1191.384584
25.080000	-1143.784499
25.090000	-1062.424879
25.100000	-940.144832
25.110000	-792.486486
25.120000	-666.885168
25.130000	-567.722361
25.140000	-462.149208
25.150000	-351.344425
25.160000	-285.507382
25.170000	-291.862980
25.180000	-323.621958
25.190000	-350.052083
25.200000	-359.749489
25.210000	-335.518568
25.220000	-280.559749
25.230000	-224.016434
25.240000	-194.996787
25.250000	-177.350282
25.260000	-141.022672
25.270000	-95.753874
25.280000	-46.663055
25.290000	-1.458507
25.300000	52.124080
25.310000	116.515771
25.320000	182.251051
25.330000	246.547508
25.340000	290.038166
25.350000	323.701542
25.360000	357.193854
25.370000	400.227855
25.380000	447.346586
25.390000	482.430174
25.400000	491.543858
25.410000	477.717535
25.420000	455.143477
25.430000	426.678690
25.440000	394.445907
25.450000	355.998689
25.460000	345.219406
25.470000	375.299708
25.480000	394.853278
25.490000	370.354079
25.500000	361.112984
25.510000	407.393536
25.520000	453.145438
25.530000	372.612035
25.540000	169.622256
25.550000	-48.172820
25.560000	-210.418545
25.570000	-291.703211
25.580000	-312.497428
25.590000	-270.802150
25.600000	-184.594899
25.610000	-75.875984
25.620000	48.719195
25.630000	185.093063
25.640000	306.005517
25.650000	392.119485
25.660000	446.388608
25.670000	486.221030
25.680000	522.121366
25.690000	560.346072
25.700000	606.554185
25.710000	645.448456
25.720000	673.721361
25.730000	688.921141
25.740000	688.589657
25.750000	669.760081
25.760000	633.837458
25.770000	606.031742
25.780000	584.043545
25.790000	546.952602
25.800000	474.618611
25.810000	384.342959
25.820000	288.881009
25.830000	210.793218
25.840000	155.796599
25.850000	115.905109
25.860000	77.061262
25.870000	47.777885
25.880000	20.981823
25.890000	-47.419164
25.900000	-174.993104
25.910000	-310.729717
25.920000	-386.556550
25.930000	-408.880404
25.940000	-405.146870
25.950000	-399.992648
25.960000	-399.656110
25.970000	-398.709147
25.980000	-393.473298
25.990000	-375.047952
26.000000	-340.610665
26.010000	-304.403948
26.020000	-280.050151
26.030000	-271.370343
26.040000	-257.058103
26.050000	-236.029924
26.060000	-209.710745
26.070000	-185.009190
26.080000	-154.963405
26.090000	-121.317303
26.100000	-93.542377
26.110000	-75.582140
26.120000	-62.067832
26.130000	-36.789411
26.140000	-7.297576
26.150000	20.034040
26.160000	35.156592
26.170000	37.577593
26.180000	32.319613
26.190000	38.185885
26.200000	59.469519
26.210000	61.714336
26.220000	53.430538
26.230000	63.324543
26.240000	89.667432
26.250000	67.787855
26.260000	-21.946141
26.270000	-127.526391
26.280000	-205.892099
26.290000	-250.916709
26.300000	-264.835805
26.310000	-252.622812
26.320000	-218.753225
26.330000	-187.692382
26.340000	-161.918967
26.350000	-137.051966
26.360000	-121.094387
26.370000	-112.360747
26.380000	-117.936514
26.390000	-128.266582
26.400000	-143.782302
26.410000	-163.478176
26.420000	-177.580517
26.430000	-179.675646
26.440000	-176.725588
26.450000	-171.170952
26.460000	-166.183055
26.470000	-162.971392
26.480000	-155.932465
26.490000	-143.092589
26.500000	-119.985949
26.510000	-100.241199
26.520000	-83.311675
26.530000	-75.720530
26.540000	-64.227886
26.550000	-47.878494
26.560000	-46.512898
26.570000	-40.907644
26.580000	-13.781850
26.590000	11.974145
26.600000	-19.453415
26.610000	-111.312002
26.620000	-199.586008
26.630000	-241.970340
26.640000	-260.541449
26.650000	-260.227722
26.660000	-247.146419
26.670000	-219.777177
26.680000	-199.794932
26.690000	-191.592450
26.700000	-179.702297
26.710000	-161.088715
26.720000	-149.970682
26.730000	-163.239393
26.740000	-182.455880
26.750000	-192.713734
26.760000	-187.946093
26.770000	-171.862437
26.780000	-152.763198
26.790000	-135.315549
26.800000	-123.893993
26.810000	-115.061803
26.820000	-105.673620
26.830000	-102.817632
26.840000	-93.045076
26.850000	-76.926970
26.860000	-58.073314
26.870000	-42.023474
26.880000	-22.718329
26.890000	1.886931
26.900000	9.922143
26.910000	13.575286
26.920000	33.603792
26.930000	45.824418
26.940000	5.579987
26.950000	-88.791013
26.960000	-175.585868
26.970000	-219.795944
26.980000	-237.541767
26.990000	-238.766953
27.000000	-227.130210
27.010000	-201.040108
27.020000	-183.101770
27.030000	-172.231618
27.040000	-156.694248
27.050000	-135.101811
27.060000	-123.652042
27.070000	-123.247097
27.080000	-118.883340
27.090000	-105.069117
27.100000	-87.128369
27.110000	-75.890366
27.120000	-64.642745
27.130000	-60.066009
27.140000	-54.100993
27.150000	-44.241340
27.160000	-33.893334
27.170000	-24.061342
27.180000	-21.686662
27.190000	-20.830729
27.200000	-23.820868
27.210000	-29.241424
27.220000	-28.587270
27.230000	-23.331272
27.240000	-31.718230
27.250000	-45.333136
27.260000	-46.475674
27.270000	-52.416449
27.280000	-110.300648
27.290000	-217.682445
27.300000	-314.285752
27.310000	-367.677290
27.320000	-380.686828
27.330000	-367.021202
27.340000	-327.037169
27.350000	-270.042366
27.360000	-226.097243
27.370000	-191.623941
27.380000	-156.793011
27.390000	-126.231480
27.400000	-112.162630
27.410000	-123.817181
27.420000	-136.759555
27.430000	-144.438500
27.440000	-142.014403
27.450000	-132.401061
27.460000	-118.923716
27.470000	-106.354318
27.480000	-95.809768
27.490000	-88.294095
27.500000	-90.030371
27.510000	-93.850696
27.520000	-88.225983
27.530000	-78.440515
27.540000	-63.056889
27.550000	-51.380311
27.560000	-42.513628
27.570000	-23.942103
27.580000	-21.396030
27.590000	-25.728770
27.600000	-13.225803
27.610000	19.441139
27.620000	15.792679
27.630000	-66.002915
27.640000	-183.611915
27.650000	-277.721290
27.660000	-331.454065
27.670000	-351.492088
27.680000	-341.609323
27.690000	-317.617084
27.700000	-298.093358
27.710000	-294.710997
27.720000	-288.146845
27.730000	-266.814113
27.740000	-236.903814
27.750000	-225.963905
27.760000	-232.235003
27.770000	-236.052594
27.780000	-221.899015
27.790000	-199.532164
27.800000	-177.547987
27.810000	-156.979134
27.820000	-136.846292
27.830000	-113.406726
27.840000	-96.169226
27.850000	-81.453010
27.860000	-63.474652
27.870000	-44.843963
27.880000	-28.435773
27.890000	-21.568772
27.900000	-0.967865
27.910000	21.287636
27.920000	27.161988
27.930000	29.908270
27.940000	45.978903
27.950000	65.802352
27.960000	27.664179
27.970000	-56.088591
27.980000	-147.234603
27.990000	-202.286876
28.000000	-224.583815
28.010000	-223.490217
28.020000	-207.251803
28.030000	-185.017902
28.040000	-176.270044
28.050000	-172.457144
28.060000	-154.915736
28.070000	-124.605516
28.080000	-105.279271
28.090000	-70.590703
