2025-07-21 16:16:08    绿光---红外光---红光---X轴---Y轴---Z轴
53105 239712 265924 -8320 13841 -599
53080 239713 265956 -8335 13785 -615
53055 239723 265973 -8353 13744 -630
53042 239741 265994 -8352 13718 -622
53035 239785 266040 -8364 13685 -638
53026 239794 266054 -8386 13703 -652
53019 239796 266048 -8407 13743 -655
53016 239794 266007 -8416 13731 -659
53023 239800 266013 -8424 13677 -662
53029 239803 266005 -8431 13643 -666
53029 239771 265963 -8435 13643 -652
53031 239739 265923 -8433 13652 -662
53043 239746 265945 -8420 13652 -700
53050 239774 265986 -8398 13654 -724
53056 239778 265986 -8398 13688 -735
53062 239757 265939 -8417 13718 -725
53067 239741 265894 -8446 13707 -707
53079 239712 265836 -8463 13677 -704
53089 239705 265790 -8462 13653 -700
53105 239674 265723 -8453 13639 -694
53111 239601 265576 -8450 13629 -683
53100 239425 265294 -8460 13612 -668
53088 239211 264963 -8481 13608 -657
53087 239068 264738 -8483 13603 -640
53106 239039 264678 -8463 13579 -643
53132 239038 264650 -8455 13567 -655
53160 239059 264647 -8461 13579 -635
53185 239069 264622 -8466 13588 -613
53209 239058 264581 -8469 13574 -605
53238 239094 264606 -8477 13548 -600
53272 239163 264666 -8484 13530 -611
53304 239204 264696 -8503 13512 -608
53329 239205 264650 -8568 13541 -622
53362 239244 264688 -8536 13489 -629
53405 239275 264734 -8527 13466 -630
53438 239187 264686 -8553 13509 -597
53448 239029 264583 -8570 13537 -583
53448 238891 264517 -8566 13528 -600
53443 238840 264522 -8541 13520 -623
53434 238814 264557 -8523 13510 -628
53418 238811 264585 -8522 13498 -611
53411 238845 264618 -8563 13552 -649
53407 238858 264634 -8545 13544 -657
53415 238904 264690 -8541 13542 -665
53417 238933 264719 -8536 13553 -651
53427 238969 264737 -8533 13533 -647
53442 239033 264794 -8543 13521 -639
53456 239054 264814 -8552 13516 -626
53472 239067 264828 -8551 13511 -636
53482 239070 264845 -8541 13524 -649
53493 239071 264845 -8584 13562 -691
53502 239082 264852 -8592 13537 -680
53512 239108 264892 -8598 13507 -661
53520 239122 264904 -8603 13492 -654
53531 239139 264917 -8592 13495 -652
53545 239170 264942 -8584 13500 -636
53563 239213 264975 -8584 13493 -622
53578 239226 264973 -8590 13475 -621
53593 239244 264973 -8590 13443 -623
53608 239250 264969 -8597 13422 -631
53625 239284 264986 -8628 13427 -628
53648 239312 265003 -8643 13394 -627
53668 239336 265010 -8639 13364 -635
53692 239379 265055 -8629 13361 -640
53714 239428 265096 -8615 13341 -637
53737 239485 265152 -8612 13341 -630
53763 239532 265189 -8601 13342 -633
53782 239555 265195 -8582 13348 -622
53808 239618 265260 -8572 13399 -605
53833 239660 265295 -8553 13492 -634
53854 239676 265272 -8628 13427 -628
53884 239747 265352 -8643 13394 -627
53917 239768 265387 -8639 13364 -635
53934 239631 265262 -8629 13361 -640
53942 239474 265145 -8615 13341 -637
53940 239344 265078 -8612 13341 -630
53934 239268 265056 -8601 13342 -633
53920 239215 265013 -8582 13348 -622
53910 239196 265002 -8572 13399 -605
53906 239201 265002 -8553 13492 -634
53907 239205 264993 -8530 13802 -710
53907 239242 265048 -8511 13959 -668
53908 239271 265061 -8478 14033 -665
53915 239308 265069 -8448 13995 -680
53926 239358 265131 -8442 13885 -669
53938 239377 265146 -8454 13742 -642
53945 239378 265137 -8473 13584 -632
53953 239367 265131 -8500 13459 -626
53962 239374 265148 -8538 13361 -612
53969 239395 265166 -8603 13320 -625
53977 239416 265182 -8674 13314 -630
53991 239434 265208 -8723 13285 -603
54001 239468 265227 -8749 13266 -609
54014 239500 265265 -8760 13270 -611
54027 239539 265302 -8768 13287 -603
54044 239577 265324 -8761 13306 -612
54061 239622 265361 -8736 13339 -614
54078 239647 265380 -8699 13369 -626
54100 239708 265439 -8685 13397 -629
54127 239801 265537 -8741 13504 -661
54156 239908 265675 -8745 13469 -657
54185 240024 265812 -8753 13426 -639
54213 240108 265904 -8771 13394 -637
54238 240160 265932 -8773 13360 -632
54257 240195 265971 -8768 13324 -623
54274 240231 265985 -8766 13288 -627
54295 240252 265987 -8756 13275 -646
54313 240281 266006 -8761 13292 -656
54324 240281 265961 -8779 13338 -650
54341 240293 265947 -8793 13396 -662
54373 240330 265990 -8780 13408 -663
54399 240253 265919 -8745 13385 -646
54409 240087 265799 -8712 13381 -631
54409 239955 265735 -8684 13378 -619
54402 239881 265732 -8678 13370 -612
54385 239841 265731 -8677 13377 -597
54376 239820 265734 -8662 13396 -605
54363 239842 265754 -8650 13385 -637
54352 239840 265762 -8684 13406 -641
54347 239859 265768 -8743 13479 -616
54342 239886 265803 -8739 13473 -619
54338 239897 265797 -8702 13421 -648
54338 239915 265795 -8665 13397 -658
54337 239942 265816 -8638 13393 -635
54339 239916 265791 -8633 13397 -622
54340 239902 265762 -8625 13389 -629
54341 239892 265749 -8625 13393 -634
54338 239879 265749 -8634 13410 -653
54332 239883 265738 -8645 13425 -675
54330 239886 265758 -8716 13470 -729
54331 239899 265764 -8692 13451 -717
54332 239914 265772 -8679 13434 -684
54337 239930 265783 -8676 13405 -665
54338 239951 265787 -8672 13384 -660
54343 239986 265803 -8663 13394 -664
54347 240000 265802 -8655 13421 -671
54354 240023 265812 -8663 13444 -664
54364 240046 265823 -8684 13433 -657
54373 240078 265827 -8738 13458 -654
54383 240100 265833 -8725 13415 -631
54395 240117 265841 -8712 13373 -615
54409 240151 265854 -8714 13349 -606
54419 240164 265847 -8699 13347 -610
54430 240169 265841 -8684 13353 -612
54441 240190 265852 -8688 13355 -609
54453 240200 265836 -8694 13363 -608
54463 240196 265819 -8697 13373 -600
54476 240222 265843 -8712 13389 -601
54488 240255 265835 -8746 13416 -623
54501 240247 265780 -8750 13417 -637
54524 240289 265822 -8723 13393 -646
54551 240292 265854 -8713 13384 -654
54563 240144 265737 -8718 13387 -654
54555 239961 265606 -8721 13373 -665
54533 239824 265541 -8727 13350 -677
54500 239751 265532 -8740 13336 -664
54464 239697 265514 -8733 13312 -662
54432 239685 265514 -8729 13325 -682
54404 239695 265527 -8785 13408 -660
54376 239702 265516 -8820 13449 -616
54350 239691 265522 -8790 13406 -620
54331 239700 265522 -8748 13371 -645
54311 239693 265512 -8722 13363 -643
54293 239704 265503 -8711 13352 -636
54281 239716 265514 -8687 13348 -635
54267 239681 265475 -8666 13362 -641
54248 239646 265424 -8678 13384 -650
54234 239618 265414 -8699 13395 -674
54219 239628 265402 -8760 13473 -695
54203 239622 265409 -8728 13431 -693
54191 239614 265403 -8720 13401 -680
54175 239599 265387 -8722 13391 -658
54167 239616 265392 -8729 13398 -663
54156 239641 265399 -8719 13394 -677
54148 239659 265406 -8710 13386 -673
54143 239672 265410 -8717 13377 -667
54143 239689 265416 -8738 13368 -664
54143 239724 265433 -8816 13417 -660
54149 239757 265460 -8798 13377 -653
54149 239784 265472 -8771 13354 -655
54156 239808 265480 -8752 13351 -654
54162 239823 265480 -8737 13346 -640
54164 239843 265482 -8715 13333 -632
54170 239867 265499 -8704 13337 -638
54182 239883 265492 -8714 13360 -644
54189 239902 265493 -8721 13370 -640
54201 239924 265496 -8760 13382 -658
54209 239934 265498 -8754 13353 -661
54218 239952 265487 -8760 13328 -664
54229 239961 265486 -8775 13335 -655
54241 239994 265500 -8782 13348 -649
54249 240008 265477 -8780 13347 -647
54258 240000 265442 -8774 13350 -633
54277 240054 265496 -8764 13339 -632
54295 240006 265458 -8745 13338 -630
54297 239833 265317 -8745 13378 -635
54273 239663 265226 -8762 13408 -663
54233 239542 265199 -8743 13366 -685
54180 239467 265174 -8734 13358 -672
54125 239402 265154 -8762 13416 -628
54071 239396 265154 -8769 13416 -613
54031 239411 265163 -8752 13374 -640
53995 239408 265178 -8730 13356 -649
53964 239434 265207 -8714 13365 -614
53936 239418 265184 -8686 13383 -612
53911 239418 265166 -8662 13405 -635
53896 239453 265197 -8701 13452 -652
53885 239452 265193 -8736 13464 -660
53866 239431 265161 -8742 13439 -653
53848 239388 265128 -8753 13408 -645
53825 239365 265111 -8761 13355 -634
53802 239362 265111 -8759 13326 -649
53779 239357 265109 -8780 13316 -641
53757 239347 265099 -8813 13308 -650
53743 239360 265105 -8826 13302 -671
53728 239389 265125 -8834 13294 -659
53721 239409 265149 -8878 13324 -698
53714 239426 265152 -8878 13302 -671
53707 239428 265146 -8869 13283 -662
53705 239465 265174 -8856 13281 -663
53708 239499 265198 -8856 13282 -661
53713 239530 265224 -8858 13284 -646
53719 239567 265242 -8869 13278 -618
53726 239592 265248 -8859 13257 -620
53734 239628 265267 -8843 13252 -624
53743 239653 265292 -8882 13328 -647
53753 239685 265311 -8863 13337 -653
53765 239718 265336 -8831 13320 -649
53774 239752 265353 -8824 13307 -663
53786 239777 265377 -8838 13309 -665
53793 239801 265386 -8848 13308 -657
53805 239832 265399 -8850 13303 -656
53815 239862 265432 -8851 13295 -660
53828 239904 265463 -8853 13290 -661
53833 239909 265424 -8861 13320 -671
53851 239953 265473 -8863 13341 -691
53874 240036 265542 -8852 13321 -678
53892 239974 265494 -8848 13302 -637
53888 239798 265379 -8842 13267 -643
53859 239649 265313 -8829 13240 -664
53807 239539 265291 -8860 13260 -637
53741 239455 265261 -8897 13272 -608
53667 239419 265248 -8875 13249 -637
53605 239401 265260 -8830 13238 -661
53553 239405 265259 -8806 13251 -650
53497 239358 265198 -8811 13291 -676
53444 239305 265125 -8788 13326 -695
53379 239195 264968 -8739 13344 -685
53311 239044 264753 -8719 13388 -675
53209 238751 264362 -8712 13464 -678
53103 238388 263863 -8683 13529 -692
53001 238039 263418 -8641 13560 -695
52913 237767 263070 -8626 13583 -688
52849 237576 262847 -8634 13604 -681
52804 237481 262726 -8625 13610 -676
52770 237400 262636 -8619 13562 -682
52742 237350 262572 -8619 13477 -668
52713 237298 262487 -8635 13408 -648
52681 237215 262385 -8645 13375 -639
52655 237161 262284 -8648 13371 -634
52636 237138 262238 -8667 13384 -624
52624 237109 262193 -8686 13402 -606
52613 237084 262124 -8677 13406 -592
52607 237053 262077 -8662 13392 -579
52607 237065 262054 -8673 13438 -555
52611 237082 262051 -8659 13427 -543
52616 237089 262024 -8647 13420 -548
52621 237086 262007 -8647 13429 -553
52634 237108 262016 -8645 13436 -559
52653 237147 262028 -8652 13421 -562
52675 237187 262065 -8666 13393 -554
52699 237260 262133 -8674 13373 -553
52729 237331 262205 -8685 13343 -554
52758 237394 262249 -8723 13344 -572
52787 237455 262312 -8762 13387 -595
52813 237529 262373 -8752 13400 -595
52843 237612 262467 -8733 13404 -588
52872 237676 262497 -8724 13406 -590
52898 237702 262488 -8700 13395 -599
52926 237778 262588 -8697 13409 -600
52968 237836 262658 -8701 13421 -591
52998 237739 262608 -8667 13393 -598
53001 237583 262546 -8655 13380 -612
52974 237465 262531 -8711 13413 -609
52934 237417 262552 -8774 13445 -607
52884 237385 262585 -8763 13436 -617
52836 237398 262639 -8709 13403 -621
52794 237406 262670 -8675 13384 -612
52758 237422 262686 -8639 13389 -595
52729 237444 262720 -8609 13415 -601
52710 237481 262745 -8601 13458 -608
52692 237480 262736 -8596 13489 -618
52682 237509 262755 -8596 13483 -630
52685 237562 262821 -8611 13484 -622
52689 237583 262830 -8646 13507 -636
52689 237570 262829 -8659 13490 -669
52686 237569 262851 -8659 13468 -665
52676 237569 262851 -8668 13459 -656
52671 237584 262868 -8666 13458 -662
52666 237612 262912 -8669 13470 -650
52668 237634 262948 -8673 13452 -649
52670 237675 262966 -8669 13407 -655
52675 237703 262995 -8678 13372 -642
52681 237736 263026 -8688 13371 -625
52690 237765 263042 -8760 13414 -645
52703 237803 263060 -8743 13397 -618
52717 237836 263081 -8714 13376 -599
52734 237876 263116 -8684 13356 -586
52753 237920 263137 -8684 13340 -558
52771 237945 263143 -8697 13341 -542
52789 237964 263159 -8700 13359 -550
52809 238002 263171 -8698 13380 -556
52831 238050 263194 -8685 13392 -572
52854 238083 263215 -8740 13452 -628
52881 238118 263238 -8726 13421 -626
52910 238154 263259 -8698 13389 -617
52935 238200 263282 -8700 13371 -613
52965 238235 263301 -8721 13360 -623
52996 238272 263330 -8742 13365 -623
53023 238303 263352 -8745 13357 -617
53049 238348 263378 -8727 13341 -616
53081 238393 263398 -8705 13342 -615
53105 238395 263360 -8734 13427 -663
53134 238444 263390 -8719 13409 -680
53175 238497 263438 -8678 13391 -689
53209 238401 263377 -8680 13454 -688
53232 238238 263300 -8697 13495 -668
53229 238073 263221 -8700 13472 -662
53212 237975 263199 -8688 13426 -663
53184 237921 263191 -8676 13386 -652
53152 237882 263175 -8666 13361 -637
53129 237879 263197 -8670 13358 -647
53119 237917 263216 -8699 13404 -678
53105 237923 263222 -8720 13427 -690
53098 237955 263242 -8722 13403 -693
53092 237949 263231 -8726 13382 -690
53090 237966 263241 -8727 13357 -678
53095 238003 263277 -8727 13336 -676
53103 238018 263275 -8727 13338 -669
53112 238008 263266 -8725 13352 -670
53115 237988 263242 -8722 13363 -679
53116 237969 263231 -8718 13383 -686
53119 237967 263224 -8740 13437 -689
53121 237969 263247 -8712 13417 -674
53125 237980 263245 -8720 13411 -656
53129 237994 263231 -8737 13387 -633
53139 238000 263220 -8739 13356 -620
53148 238017 263223 -8737 13334 -627
53157 238019 263206 -8739 13326 -618
53166 238024 263189 -8745 13324 -598
53177 238039 263178 -8748 13317 -596
53197 238058 263169 -8766 13402 -635
53213 238078 263167 -8752 13393 -612
53230 238092 263150 -8716 13385 -604
53246 238113 263147 -8686 13386 -611
53265 238137 263157 -8678 13394 -597
53287 238167 263150 -8686 13380 -595
53312 238204 263165 -8696 13370 -603
53336 238226 263176 -8714 13375 -596
53359 238250 263172 -8725 13363 -599
53385 238277 263174 -8773 13408 -608
53412 238328 263203 -8768 13392 -610
53438 238357 263219 -8755 13365 -613
53463 238385 263250 -8745 13352 -618
53491 238432 263267 -8734 13346 -608
53521 238471 263290 -8730 13335 -609
53549 238502 263294 -8710 13292 -638
53571 238517 263278 -8723 13287 -656
53604 238583 263331 -8771 13344 -625
53638 238619 263354 -8799 13378 -623
53669 238477 263238 -8805 13396 -675
53699 238305 263177 -8773 13410 -687
53714 238175 263153 -8722 13413 -669
53717 238104 263150 -8684 13406 -668
53709 238056 263153 -8648 13399 -666
53699 238045 263178 -8623 13402 -674
53694 238079 263225 -8636 13409 -679
53688 238107 263242 -8667 13412 -678
53687 238137 263274 -8689 13413 -661
53691 238166 263290 -8697 13407 -661
53694 238200 263313 -8711 13422 -703
53706 238255 263351 -8718 13441 -711
53717 238278 263371 -8694 13431 -704
53723 238272 263343 -8686 13422 -696
53737 238267 263344 -8689 13414 -666
53744 238240 263329 -8683 13402 -648
53753 238226 263314 -8683 13385 -648
53756 238231 263324 -8696 13366 -649
53761 238239 263335 -8706 13351 -642
53769 238256 263357 -8718 13355 -642
53780 238297 263386 -8772 13390 -660
53792 238340 263423 -8806 13403 -649
53802 238354 263431 -8779 13374 -617
53811 238375 263442 -8745 13347 -621
53823 238412 263460 -8719 13338 -613
53841 238453 263490 -8699 13359 -608
53859 238497 263526 -8683 13398 -624
53878 238538 263552 -8677 13414 -629
53895 238577 263578 -8682 13409 -621
53917 238615 263607 -8691 13402 -626
53941 238664 263637 -8772 13390 -660
53958 238693 263667 -8806 13403 -649
53976 238731 263689 -8779 13374 -617
53996 238754 263687 -8745 13347 -621
54016 238784 263702 -8719 13338 -613
54040 238811 263732 -8699 13359 -608
54064 238852 263752 -8683 13398 -624
54087 238904 263794 -8677 13414 -629
54108 238950 263810 -8682 13409 -621
54121 238944 263780 -8691 13402 -626
54142 238970 263793 -8752 13469 -660
54173 239057 263875 -8722 13431 -671
54202 239077 263890 -8703 13389 -672
54223 238931 263766 -8697 13370 -668
54238 238770 263694 -8694 13349 -671
54239 238647 263666 -8693 13338 -670
54232 238559 263624 -8704 13353 -659
54218 238522 263628 -8719 13361 -657
54206 238526 263655 -8713 13325 -673
54198 238552 263688 -8726 13314 -696
54196 238591 263707 -8775 13356 -683
54189 238613 263720 -8806 13401 -641
54181 238619 263715 -8783 13414 -650
54183 238645 263735 -8736 13402 -680
54190 238702 263774 -8713 13384 -676
54192 238709 263761 -8687 13351 -678
54202 238702 263741 -8677 13345 -677
54202 238676 263719 -8691 13359 -675
54206 238668 263727 -8701 13372 -710
54204 238653 263721 -8736 13378 -748
54203 238656 263726 -8778 13419 -749
54201 238655 263726 -8764 13416 -732
54204 238681 263750 -8738 13368 -725
54211 238701 263757 -8746 13380 -721
54212 238722 263763 -8760 13395 -719
54211 238740 263771 -8755 13386 -712
54218 238762 263779 -8742 13374 -707
54220 238783 263774 -8744 13381 -709
54230 238799 263769 -8760 13375 -702
54236 238810 263759 -8766 13354 -691
54245 238832 263767 -8788 13380 -684
54260 238868 263788 -8793 13389 -683
54270 238883 263780 -8760 13353 -685
54281 238901 263777 -8744 13339 -677
54293 238924 263793 -8743 13340 -675
54304 238959 263802 -8746 13336 -684
54317 238974 263815 -8740 13324 -674
54334 239006 263834 -8733 13327 -652
54346 239033 263854 -8734 13336 -646
54357 239057 263853 -8731 13347 -642
54370 239089 263876 -8751 13404 -659
54384 239107 263888 -8772 13443 -694
54391 239106 263848 -8764 13404 -697
54411 239161 263882 -8748 13371 -691
54437 239207 263933 -8737 13365 -680
54455 239088 263845 -8729 13349 -669
54460 238892 263723 -8732 13326 -666
54451 238744 263657 -8744 13325 -663
54426 238643 263651 -8735 13349 -651
54393 238598 263654 -8719 13357 -639
54358 238571 263652 -8783 13392 -690
54328 238580 263677 -8737 13355 -711
54297 238584 263692 -8744 13349 -702
54272 238591 263696 -8798 13379 -667
54251 238616 263717 -8821 13392 -647
54226 238605 263704 -8805 13368 -665
54207 238613 263700 -8765 13332 -673
54195 238658 263746 -8732 13322 -656
54182 238649 263724 -8711 13320 -659
54169 238617 263677 -8709 13359 -679
54152 238587 263656 -8728 13416 -704
54133 238560 263642 -8743 13416 -715
54113 238543 263630 -8747 13387 -715
54094 238537 263635 -8755 13357 -698
54080 238554 263639 -8752 13317 -688
54064 238555 263631 -8739 13299 -706
54053 238569 263651 -8740 13326 -701
54041 238580 263645 -8750 13354 -687
54031 238594 263639 -8743 13383 -699
54028 238623 263663 -8730 13414 -710
54024 238640 263666 -8745 13447 -726
54023 238662 263678 -8755 13447 -726
54026 238688 263699 -8754 13396 -711
54032 238722 263722 -8769 13360 -700
54036 238764 263748 -8778 13346 -704
54041 238795 263764 -8785 13333 -701
54044 238792 263746 -8797 13305 -676
54048 238821 263760 -8793 13297 -670
54058 238867 263804 -8765 13306 -667
54071 238909 263839 -8748 13310 -648
54080 238921 263856 -8761 13382 -666
54079 238913 263797 -8724 13389 -679
54087 238932 263809 -8737 13393 -702
54102 239004 263891 -8795 13385 -700
54108 239028 263901 -8846 13342 -694
54103 238975 263780 -8842 13292 -694
54112 238990 263789 -8817 13301 -698
54133 239030 263849 -8809 13343 -695
54145 238932 263800 -8806 13360 -662
54130 238729 263669 -8808 13386 -657
54084 238529 263544 -8791 13382 -677
54030 238428 263526 -8753 13347 -661
53957 238340 263499 -8732 13383 -607
53882 238289 263462 -8709 13385 -557
53820 238284 263467 -8657 13296 -587
53759 238251 263447 -8633 13277 -635
53714 238240 263429 -8662 13375 -625
53678 238273 263488 -8679 13471 -630
53640 238260 263461 -8659 13499 -681
53601 238240 263432 -8667 13482 -737
53577 238272 263472 -8671 13467 -730
53553 238279 263487 -8655 13447 -745
53521 238215 263404 -8663 13422 -745
53477 238136 263328 -8669 13405 -753
53439 238110 263295 -8673 13399 -781
53404 238096 263298 -8697 13430 -779
53373 238095 263306 -8731 13464 -772
53341 238103 263316 -8737 13436 -794
53314 238085 263299 -8914 13504 -769
53290 238084 263282 -8939 13442 -734
53269 238095 263306 -8932 13334 -730
53258 238103 263299 -8962 13243 -720
53242 238087 263267 -8992 13175 -677
53225 238101 263260 -9008 13139 -656
53218 238107 263265 -9029 13115 -639
53209 238110 263253 -9051 13082 -633
53201 238129 263234 -9052 13058 -653
53192 238127 263237 -9034 13179 -715
53191 238164 263253 -9008 13208 -744
53190 238186 263263 -8957 13211 -762
53189 238205 263253 -8932 13237 -767
53194 238229 263283 -8906 13266 -764
53199 238267 263314 -8861 13275 -762
53204 238285 263320 -8817 13272 -769
53210 238301 263322 -8796 13277 -769
53220 238324 263333 -8793 13301 -763
53227 238368 263373 -8797 13335 -774
53235 238393 263386 -8796 13361 -791
53237 238394 263338 -8792 13357 -797
53248 238402 263334 -8808 13338 -788
53268 238439 263356 -8830 13313 -775
53285 238381 263333 -8841 13280 -782
53277 238195 263218 -8871 13265 -772
53230 237997 263091 -8901 13278 -746
53162 237846 262999 -8921 13270 -746
53082 237764 262972 -8924 13209 -769
53012 237763 263024 -8933 13185 -798
52953 237780 263076 -9006 13249 -801
52893 237738 263012 -9071 13291 -783
52840 237693 262961 -9072 13269 -770
52805 237737 263027 -9025 13234 -782
52773 237780 263080 -8954 13207 -797
52742 237769 263047 -8893 13206 -812
52716 237743 263023 -8872 13274 -804
52712 237779 263060 -8872 13351 -763
52696 237783 263083 -8828 13335 -758
52666 237718 262999 -8768 13273 -789
52630 237649 262926 -8845 13360 -774
52607 237672 262980 -8814 13339 -756
52586 237699 263029 -8774 13322 -786
52567 237682 262993 -8788 13342 -782
52549 237650 262948 -8835 13373 -739
52537 237675 262957 -8842 13340 -729
52535 237701 262990 -8813 13253 -758
52530 237743 263034 -8819 13230 -759
52527 237766 263046 -8875 13261 -711
52527 237777 263027 -8927 13271 -706
52533 237791 263035 -8889 13229 -712
52540 237819 263053 -8870 13233 -721
52552 237849 263072 -8873 13286 -717
52564 237876 263092 -8875 13319 -701
52567 237893 263082 -8863 13318 -695
52583 237907 263086 -8846 13306 -703
52596 237953 263114 -8826 13305 -711
52619 237982 263138 -8804 13322 -714
52637 238019 263165 -8835 13401 -730
52656 238052 263192 -8822 13380 -749
52674 238072 263205 -8802 13318 -758
52685 238101 263212 -8817 13282 -758
52707 238161 263264 -8852 13296 -737
52743 238232 263334 -8873 13313 -732
52769 238287 263372 -8865 13322 -736
52787 238278 263323 -8819 13316 -742
52808 238322 263369 -8774 13297 -758
52837 238332 263394 -8779 13317 -754
52856 238206 263326 -8827 13372 -743
52848 238036 263223 -8825 13356 -764
52805 237868 263141 -8776 13306 -778
52753 237786 263120 -8791 13329 -740
52701 237762 263137 -8830 13376 -708
52655 237766 263178 -8824 13409 -720
52619 237809 263240 -8791 13395 -739
52591 237818 263250 -8769 13343 -732
52576 237856 263301 -8757 13298 -720
52568 237894 263327 -8764 13282 -743
52560 237918 263349 -8795 13330 -778
52560 237965 263402 -8819 13357 -765
52562 237988 263422 -8829 13309 -730
52562 237980 263420 -8843 13290 -712
52561 237966 263408 -8846 13299 -696
52558 237950 263397 -8839 13303 -694
52549 237944 263397 -8827 13324 -694
52542 237942 263412 -8812 13348 -685
52534 237946 263413 -8792 13361 -683
52536 237967 263444 -8784 13352 -677
52541 238008 263473 -8828 13347 -661
52554 238054 263528 -8803 13323 -646
52568 238107 263578 -8782 13304 -642
52580 238143 263598 -8779 13322 -638
52596 238169 263627 -8779 13333 -635
52613 238208 263662 -8786 13349 -634
52635 238259 263703 -8788 13374 -622
52658 238317 263752 -8792 13360 -596
52685 238375 263811 -8800 13317 -573
52710 238414 263831 -8840 13324 -593
52736 238446 263859 -8818 13339 -586
52760 238495 263908 -8800 13337 -563
52791 238548 263949 -8807 13339 -551
52819 238576 263967 -8812 13329 -551
52843 238598 263970 -8819 13315 -559
52868 238629 264005 -8840 13294 -569
52899 238693 264055 -8866 13277 -577
52926 238711 264054 -8891 13268 -571
52953 238741 264075 -8916 13271 -569
52987 238830 264163 -8960 13296 -578
53023 238851 264181 -8952 13291 -579
53045 238716 264061 -8884 13246 -596
53049 238555 263970 -8872 13240 -608
53039 238447 263947 -8918 13293 -571
53017 238378 263944 -8938 13319 -520
52989 238333 263941 -8886 13299 -527
52964 238346 263969 -8824 13282 -548
52949 238374 264008 -8785 13290 -544
52940 238400 264047 -8758 13328 -540
52933 238444 264080 -8760 13384 -541
52931 238465 264107 -8756 13405 -539
52939 238488 264121 -8737 13386 -542
52946 238544 264180 -8746 13369 -552
52957 238560 264161 -8762 13354 -533
52966 238541 264147 -8755 13325 -520
52967 238506 264116 -8751 13314 -535
52973 238499 264120 -8756 13348 -528
52979 238490 264119 -8764 13371 -515
52983 238504 264127 -8774 13364 -524
52992 238515 264146 -8802 13427 -531
53001 238537 264154 -8793 13366 -512
53012 238556 264169 -8789 13342 -510
53021 238572 264176 -8793 13349 -502
53038 238592 264179 -8801 13358 -494
53051 238613 264175 -8807 13349 -493
53071 238645 264214 -8803 13334 -490
53091 238658 264213 -8795 13315 -494
53112 238682 264210 -8787 13298 -503
53134 238712 264231 -8817 13330 -504
53154 238743 264247 -8839 13348 -502
53177 238774 264269 -8809 13327 -504
53202 238804 264272 -8791 13319 -501
53228 238822 264277 -8777 13311 -502
53252 238839 264284 -8773 13306 -505
53273 238867 264291 -8794 13306 -497
53298 238906 264328 -8809 13313 -477
53328 238954 264373 -8809 13308 -471
53353 238978 264360 -8799 13297 -478
53378 238982 264343 -8825 13357 -502
53414 239046 264419 -8819 13361 -510
53441 239025 264398 -8773 13307 -521
53458 238861 264258 -8770 13313 -517
53454 238667 264136 -8808 13375 -484
53441 238539 264068 -8823 13390 -462
53428 238492 264072 -8807 13365 -489
53408 238466 264065 -8777 13335 -506
53394 238456 264080 -8748 13322 -488
53383 238473 264094 -8732 13331 -483
53373 238478 264093 -8746 13362 -495
53365 238475 264093 -8741 13389 -503
53354 238461 264055 -8717 13393 -505
53342 238433 264017 -8716 13400 -512
53336 238421 263990 -8723 13403 -504
53338 238436 263988 -8721 13377 -503
53338 238399 263942 -8725 13348 -510
53334 238364 263897 -8741 13359 -483
53340 238350 263886 -8745 13377 -457
53344 238338 263888 -8735 13383 -471
53345 238347 263896 -8768 13413 -497
53344 238333 263868 -8786 13409 -508
53344 238316 263846 -8758 13383 -506
53347 238305 263809 -8760 13381 -489
53344 238268 263765 -8764 13370 -479
53340 238236 263681 -8766 13363 -477
53337 238173 263578 -8780 13347 -465
53323 238084 263449 -8781 13323 -457
53311 237988 263315 -8770 13313 -450
53296 237875 263140 -8758 13309 -441
53278 237760 262968 -8774 13341 -450
53251 237591 262719 -8795 13386 -450
53218 237411 262473 -8781 13390 -435
53189 237241 262233 -8765 13383 -428
53146 237016 261926 -8754 13366 -433
53111 236801 261629 -8733 13343 -449
53089 236633 261381 -8732 13326 -448
53085 236518 261228 -8736 13329 -440
53103 236504 261211 -8723 13365 -435
53147 236594 261318 -8717 13392 -437
53196 236687 261407 -8724 13420 -478
53245 236763 261486 -8697 13405 -477
53299 236857 261600 -8685 13384 -455
53333 236809 261577 -8665 13347 -486
53347 236624 261429 -8680 13358 -484
53351 236446 261295 -8728 13399 -441
53340 236345 261242 -8741 13397 -437
53329 236287 261223 -8726 13375 -461
53317 236266 261205 -8709 13356 -476
53309 236272 261238 -8714 13354 -474
53302 236302 261260 -8728 13372 -489
53297 236302 261264 -8708 13384 -506
53289 236295 261247 -8685 13390 -505
53279 236286 261228 -8697 13393 -507
53275 236286 261222 -8705 13393 -525
53281 236340 261272 -8717 13385 -520
53287 236354 261283 -8717 13375 -519
53292 236339 261268 -8713 13360 -549
53291 236316 261238 -8737 13369 -541
53297 236329 261264 -8764 13400 -527
53303 236354 261288 -8798 13413 -549
53313 236390 261340 -8798 13399 -545
53324 236440 261405 -8765 13377 -518
53333 236482 261448 -8744 13370 -515
53347 236537 261498 -8734 13370 -502
53356 236580 261541 -8740 13366 -488
53362 236607 261560 -8746 13362 -473
53375 236642 261584 -8734 13363 -458
53386 236680 261616 -8713 13356 -450
53399 236725 261654 -8692 13337 -441
53416 236766 261694 -8737 13390 -443
53432 236804 261733 -8708 13375 -437
53446 236839 261758 -8682 13379 -445
53465 236880 261794 -8680 13394 -436
53479 236907 261809 -8690 13403 -430
53497 236940 261822 -8694 13400 -434
53514 236972 261840 -8696 13385 -440
53527 236998 261857 -8707 13376 -446
53542 237016 261867 -8716 13375 -448
53562 237044 261890 -8734 13399 -446
53574 237073 261889 -8755 13425 -449
53591 237093 261919 -8743 13404 -455
53614 237148 261964 -8715 13373 -462
53630 237173 261959 -8714 13355 -465
53647 237183 261957 -8719 13351 -457
53677 237260 262039 -8720 13328 -456
53702 237227 262016 -8713 13298 -474
53708 237042 261864 -8728 13323 -476
53697 236877 261753 -8764 13383 -441
53675 236749 261686 -8798 13423 -475
53639 236681 261640 -8761 13392 -463
53597 236589 261561 -8711 13365 -429
53553 236525 261491 -8670 13381 -420
53497 236415 261348 -8643 13416 -424
53416 236192 261045 -8638 13457 -436
53335 235964 260750 -8643 13470 -446
53258 235724 260436 -8654 13455 -446
53190 235533 260179 -8649 13426 -435
53141 235400 260005 -8647 13404 -437
53079 235207 259742 -8666 13428 -451
52999 234904 259359 -8667 13456 -432
52913 234609 258986 -8649 13437 -414
52832 234343 258660 -8636 13422 -426
52741 234023 258262 -8625 13482 -435
52673 233801 257980 -8605 13572 -436
52618 233620 257748 -8575 13603 -424
52575 233456 257538 -8545 13606 -407
52520 233273 257279 -8534 13612 -390
52469 233074 257008 -8529 13601 -380
52418 232837 256691 -8514 13594 -380
52388 232682 256473 -8493 13581 -371
52364 232553 256291 -8473 13547 -350
52327 232378 256053 -8470 13523 -344
52296 232242 255869 -8479 13516 -343
52283 232157 255750 -8484 13510 -337
52272 232090 255668 -8478 13510 -349
52266 232025 255546 -8474 13536 -357
52258 231895 255352 -8482 13588 -336
52264 231898 255316 -8467 13630 -317
52261 231879 255277 -8418 13657 -415
52257 231863 255227 -8484 13640 -376
52260 231863 255216 -8540 13623 -356
52266 231857 255167 -8598 13623 -341
52275 231817 255085 -8620 13602 -320
52292 231822 255062 -8602 13553 -325
52326 231904 255164 -8597 13501 -333
52346 231895 255144 -8608 13522 -291
52361 231870 255084 -8600 13539 -249
52378 231881 255102 -8540 13418 -285
52411 231940 255192 -8563 13443 -267
52430 231883 255156 -8571 13535 -248
52429 231704 255033 -8546 13602 -257
52418 231564 254950 -8528 13602 -278
52398 231502 254954 -8551 13559 -271
52364 231480 254978 -8571 13497 -262
52334 231503 255038 -8557 13440 -280
52318 231604 255178 -8545 13416 -305
52310 231714 255326 -8576 13429 -320
52308 231828 255469 -8614 13466 -326
52312 231941 255624 -8609 13483 -328
52302 231989 255681 -8587 13469 -334
52283 232000 255673 -8567 13462 -361
52275 232061 255738 -8560 13488 -376
52272 232060 255748 -8572 13528 -366
52262 232066 255745 -8578 13531 -374
52264 232097 255791 -8571 13519 -391
52266 232130 255847 -8573 13496 -384
52264 232196 255921 -8587 13472 -378
52267 232260 256006 -8628 13479 -371
52269 232331 256084 -8640 13492 -364
52276 232420 256189 -8609 13489 -368
52285 232516 256307 -8606 13477 -356
52298 232614 256410 -8608 13455 -339
52316 232728 256538 -8600 13432 -324
52350 232882 256726 -8592 13421 -323
52402 233114 256989 -8577 13419 -341
52467 233375 257293 -8563 13433 -352
52540 233652 257620 -8563 13452 -358
52611 233922 257940 -8656 13519 -383
52690 234221 258284 -8644 13493 -366
52758 234481 258586 -8654 13466 -365
52810 234690 258844 -8662 13444 -376
52860 234903 259077 -8665 13428 -384
52896 235065 259261 -8687 13414 -383
52920 235176 259367 -8699 13382 -398
52938 235268 259464 -8712 13364 -412
52948 235344 259534 -8731 13360 -417
52959 235423 259629 -8563 13452 -358
52971 235487 259676 -8656 13519 -383
52969 235499 259647 -8644 13493 -366
52974 235537 259690 -8654 13466 -365
52988 235577 259730 -8662 13444 -376
52990 235472 259630 -8665 13428 -384
52972 235274 259482 -8687 13414 -383
52931 235132 259399 -8699 13382 -398
52879 235027 259384 -8712 13364 -412
52819 234982 259380 -8731 13360 -417
52757 234971 259402 -8781 13407 -439
52709 234994 259452 -8740 13359 -446
52663 235023 259492 -8715 13348 -449
52620 235038 259519 -8732 13400 -426
52582 235039 259515 -8750 13430 -394
52547 235025 259487 -8736 13411 -395
52516 235027 259496 -8703 13374 -426
52500 235069 259544 -8689 13346 -420
52481 235074 259536 -8687 13346 -403
52457 235042 259493 -8699 13371 -399
52431 234997 259449 -8692 13391 -414
52402 234980 259440 -8669 13403 -435
52376 234973 259442 -8676 13401 -430
52354 234972 259445 -8691 13391 -432
52334 234976 259453 -8686 13375 -444
52315 234994 259465 -8672 13370 -453
52305 235008 259488 -8682 13384 -454
52290 235028 259492 -8702 13401 -439
52282 235047 259507 -8709 13413 -435
52280 235070 259523 -8730 13419 -449
52279 235095 259533 -8766 13424 -456
52283 235106 259542 -8764 13398 -445
52284 235146 259557 -8735 13372 -438
52288 235167 259574 -8725 13368 -443
52293 235190 259578 -8728 13370 -439
52299 235195 259582 -8731 13382 -431
52305 235225 259594 -8737 13381 -419
52308 235235 259581 -8726 13367 -412
52317 235266 259590 -8712 13358 -406
52327 235278 259606 -8703 13368 -395
52339 235298 259620 -8716 13414 -394
52348 235312 259615 -8709 13428 -397
52358 235329 259612 -8686 13405 -398
52375 235373 259655 -8685 13397 -406
52390 235398 259656 -8683 13398 -413
52401 235414 259632 -8682 13403 -409
52427 235476 259697 -8675 13390 -415
52448 235443 259664 -8673 13381 -427
52453 235259 259510 -8685 13382 -422
52430 235075 259397 -8703 13372 -410
52385 234922 259325 -8785 13395 -401
52330 234844 259308 -8754 13371 -405
52272 234804 259312 -8742 13369 -411
52220 234791 259330 -8719 13369 -410
52180 234804 259356 -8694 13359 -424
52143 234797 259364 -8716 13393 -412
52112 234799 259362 -8750 13421 -371
52081 234791 259345 -8752 13405 -366
52055 234762 259322 -8727 13390 -390
52037 234774 259332 -8759 13400 -388
52032 234810 259365 -8717 13388 -391
52017 234782 259341 -8665 13396 -400
52004 234749 259299 -8642 13434 -406
51984 234715 259282 -8650 13444 -407
51972 234714 259284 -8669 13424 -405
51958 234707 259281 -8672 13415 -400
51950 234715 259289 -8673 13393 -407
51944 234728 259306 -8676 13375 -418
51943 234745 259318 -8706 13416 -408
51944 234765 259329 -8754 13456 -403
51940 234792 259339 -8745 13437 -421
51944 234803 259355 -8705 13401 -433
51948 234814 259352 -8695 13381 -422
51957 234849 259372 -8686 13377 -421
51970 234888 259395 -8688 13385 -426
51983 234914 259410 -8704 13395 -427
51995 234934 259407 -8714 13389 -432
52007 234946 259413 -8715 13365 -428
52024 234966 259415 -8716 13368 -426
52037 234988 259427 -8743 13401 -424
52055 235008 259424 -8740 13395 -422
52074 235029 259438 -8702 13370 -410
52093 235058 259452 -8697 13382 -397
52113 235076 259458 -8687 13391 -402
52136 235103 259466 -8677 13402 -409
52162 235148 259499 -8675 13403 -416
52184 235190 259534 -8667 13392 -421
52206 235213 259534 -8663 13396 -416
52229 235250 259553 -8670 13394 -406
52256 235280 259561 -8764 13433 -407
52291 235347 259614 -8739 13409 -385
52322 235347 259614 -8714 13394 -384
52345 235201 259494 -8697 13384 -389
52348 235033 259398 -8685 13393 -368
52333 234883 259338 -8670 13397 -339
52303 234806 259322 -8633 13398 -346
52274 234780 259335 -8599 13396 -361
52248 234782 259365 -8592 13388 -368
52227 234808 259399 -8738 13469 -373
52209 234818 259410 -8757 13453 -356
52194 234832 259427 -8738 13408 -372
52185 234841 259434 -8710 13371 -387
52179 234843 259440 -8688 13358 -396
52179 234892 259487 -8674 13352 -402
52188 234941 259536 -8649 13369 -422
52192 234932 259521 -8627 13418 -446
52195 234920 259514 -8631 13452 -456
52196 234918 259524 -8704 13490 -455
52198 234931 259556 -8700 13446 -466
52203 234956 259598 -8686 13409 -467
52206 234967 259624 -8685 13415 -456
52213 235000 259641 -8684 13416 -444
52221 235022 259664 -8675 13402 -438
52227 235054 259692 -8670 13381 -428
52235 235079 259699 -8653 13377 -426
52249 235109 259719 -8653 13386 -421
52264 235144 259739 -8674 13426 -414
52281 235182 259757 -8714 13473 -412
52298 235207 259786 -8734 13456 -405
52319 235241 259809 -8717 13409 -393
52336 235259 259826 -8712 13386 -377
52355 235300 259838 -8706 13377 -371
52379 235350 259867 -8695 13368 -376
52399 235386 259893 -8684 13369 -383
52426 235421 259930 -8675 13392 -393
52448 235472 259970 -8675 13413 -398
52472 235522 260008 -8687 13424 -392
52496 235565 260046 -8713 13455 -390
52517 235588 260065 -8721 13453 -393
52543 235624 260093 -8705 13408 -399
52572 235680 260141 -8712 13388 -400
52601 235750 260208 -8718 13387 -401
52624 235781 260203 -8710 13398 -405
52646 235814 260224 -8701 13399 -393
52677 235898 260308 -8685 13396 -386
52704 235906 260309 -8658 13394 -390
52720 235751 260159 -8639 13390 -391
52736 235570 260056 -8705 13472 -358
52740 235455 260005 -8685 13423 -376
52733 235379 259996 -8685 13379 -404
52723 235349 260002 -8720 13403 -403
52714 235365 260054 -8757 13437 -378
52708 235415 260109 -8752 13415 -371
52706 235462 260163 -8723 13364 -389
52701 235506 260212 -8699 13339 -390
52702 235528 260218 -8677 13340 -387
52704 235546 260221 -8701 13407 -419
52716 235611 260274 -8713 13405 -434
52726 235641 260301 -8702 13400 -438
52739 235648 260298 -8701 13432 -425
52753 235639 260295 -8689 13434 -421
52760 235629 260289 -8671 13406 -430
52764 235621 260283 -8664 13413 -438
52767 235616 260294 -8668 13429 -440
52773 235635 260318 -8673 13434 -441
52781 235660 260358 -8698 13458 -459
52783 235693 260362 -8744 13493 -472
52790 235693 260361 -8749 13468 -465
52797 235723 260368 -8739 13397 -461
52809 235757 260392 -8742 13382 -473
52819 235790 260406 -8740 13406 -468
52832 235807 260398 -8729 13408 -445
52844 235811 260387 -8719 13365 -433
52854 235842 260407 -8713 13319 -419
52867 235872 260427 -8713 13302 -398
52879 235887 260416 -8725 13327 -390
52895 235910 260414 -8754 13390 -402
52913 235945 260440 -8757 13384 -409
52935 235988 260459 -8743 13343 -401
52955 236002 260465 -8731 13327 -392
52975 236013 260460 -8729 13318 -375
52992 236036 260472 -8712 13320 -371
53008 236066 260485 -8677 13347 -384
53026 236097 260500 -8682 13383 -388
53048 236137 260536 -8722 13386 -381
53058 236144 260495 -8766 13358 -381
53078 236174 260512 -8872 13374 -399
53105 236256 260581 -8869 13329 -397
53126 236205 260520 -8859 13322 -392
53141 236014 260380 -8847 13318 -384
53151 235847 260294 -8811 13290 -386
53152 235736 260266 -8780 13291 -402
53146 235683 260267 -8790 13350 -373
53136 235660 260286 -8784 13405 -337
53129 235700 260329 -8746 13386 -348
53125 235728 260382 -8751 13370 -363
53117 235747 260388 -8723 13354 -354
53111 235781 260409 -8687 13349 -360
53107 235799 260418 -8675 13395 -369
53109 235820 260442 -8676 13428 -369
53118 235878 260484 -8675 13415 -370
53119 235883 260489 -8675 13398 -367
53120 235866 260450 -8671 13378 -360
53123 235839 260431 -8663 13375 -370
53122 235813 260418 -8737 13467 -375
53120 235808 260400 -8741 13459 -382
53120 235808 260404 -8715 13420 -373
53121 235818 260407 -8696 13373 -374
53125 235838 260411 -8690 13347 -368
53127 235845 260424 -8695 13348 -359
53132 235881 260437 -8711 13351 -351
53137 235892 260443 -8725 13360 -351
53142 235917 260453 -8726 13366 -337
53149 235934 260454 -8733 13363 -320
53159 235953 260463 -8781 13367 -327
53168 235983 260469 -8793 13367 -334
53181 236019 260488 -8754 13350 -327
53192 236038 260503 -8741 13336 -323
53202 236062 260510 -8736 13336 -326
53215 236086 260509 -8732 13340 -332
53221 236106 260530 -8729 13334 -336
53233 236138 260529 -8723 13338 -337
53249 236165 260552 -8706 13342 -339
53264 236190 260547 -8708 13340 -328
53272 236205 260540 -8755 13375 -312
53285 236216 260535 -8773 13387 -311
53297 236227 260542 -8754 13367 -314
53317 236278 260590 -8733 13387 -311
53331 236310 260598 -8721 13379 -315
53338 236299 260547 -8705 13338 -328
53358 236358 260593 -8698 13341 -332
53373 236346 260587 -8701 13374 -330
53384 236174 260427 -8682 13378 -332
53387 235976 260313 -8665 13345 -349
53375 235826 260241 -8780 13461 -308
53357 235746 260230 -8743 13467 -320
53333 235703 260234 -8701 13445 -332
53304 235679 260226 -8673 13414 -325
53281 235698 260256 -8663 13397 -324
53259 235708 260260 -8662 13407 -316
53241 235718 260294 -8658 13409 -324
53226 235744 260295 -8659 13409 -346
53209 235728 260274 -8672 13406 -352
53200 235760 260290 -8741 13431 -375
53195 235787 260327 -8728 13401 -368
53185 235758 260297 -8725 13374 -365
53170 235728 260258 -8726 13379 -347
53157 235693 260226 -8728 13384 -336
53145 235685 260223 -8730 13379 -349
53131 235675 260219 -8728 13379 -359
53118 235679 260235 -8723 13364 -358
53110 235697 260237 -8715 13353 -352
53102 235708 260238 -8740 13379 -342
53094 235726 260245 -8797 13406 -329
53089 235734 260253 -8810 13390 -324
53083 235744 260251 -8789 13360 -322
53081 235764 260241 -8772 13350 -325
53079 235783 260254 -8762 13341 -319
53078 235808 260264 -8752 13320 -297
53081 235825 260276 -8740 13308 -290
53086 235849 260281 -8723 13322 -297
53090 235871 260281 -8715 13344 -301
53094 235894 260291 -8729 13358 -303
53099 235918 260300 -8769 13406 -311
53105 235931 260302 -8783 13425 -318
53113 235950 260296 -8754 13384 -319
53122 235972 260317 -8743 13362 -311
53130 235992 260324 -8742 13354 -312
53141 236005 260316 -8746 13345 -315
53148 236023 260316 -8747 13350 -320
53157 236049 260323 -8741 13356 -332
53171 236077 260345 -8730 13346 -329
53175 236084 260323 -8723 13341 -323
53192 236127 260348 -8785 13401 -311
53213 236186 260389 -8744 13348 -340
53221 236062 260274 -8746 13353 -348
53216 235861 260116 -8786 13401 -321
53196 235672 260002 -8795 13406 -306
53165 235576 259975 -8766 13370 -321
53121 235518 259970 -8726 13342 -333
53077 235472 259956 -8701 13336 -324
53037 235471 259972 -8685 13355 -314
53004 235484 259986 -8705 13481 -321
52974 235489 259987 -8700 13470 -336
52945 235505 260002 -8704 13430 -334
52917 235500 259987 -8723 13385 -313
52898 235514 259989 -8734 13348 -314
52887 235552 260025 -8737 13334 -332
52877 235541 260005 -8741 13361 -326
52859 235526 259982 -8749 13373 -315
52839 235486 259952 -8746 13360 -324
52821 235474 259933 -8784 13413 -294
52803 235458 259930 -8775 13402 -294
52782 235455 259922 -8748 13382 -301
52764 235468 259935 -8758 13374 -298
52749 235474 259941 -8768 13362 -293
52736 235491 259962 -8757 13340 -296
52728 235525 259973 -8749 13332 -296
52725 235536 259980 -8749 13320 -279
52721 235560 259985 -8737 13313 -276
52721 235583 259989 -8735 13324 -287
52721 235613 260019 -8761 13368 -290
52721 235643 260022 -8759 13402 -296
52724 235667 260033 -8726 13385 -308
52728 235688 260048 -8711 13364 -323
52731 235726 260067 -8720 13364 -324
52739 235748 260077 -8732 13374 -329
52746 235775 260082 -8736 13366 -326
52754 235787 260085 -8752 13347 -321
52763 235817 260098 -8751 13340 -336
52768 235844 260110 -8756 13339 -334
52778 235857 260121 -8807 13386 -310
52787 235883 260123 -8824 13399 -296
52802 235917 260151 -8796 13353 -309
52813 235955 260193 -8780 13346 -321
52820 235966 260150 -8760 13352 -326
52837 236014 260193 -8712 13342 -354
52864 236089 260261 -8701 13353 -361
52877 236051 260230 -8747 13407 -320
52881 235886 260076 -8762 13446 -300
52861 235696 259955 -8735 13433 -306
52829 235564 259914 -8722 13431 -307
52790 235511 259917 -8674 13416 -308
52745 235486 259937 -8648 13407 -318
52701 235497 259965 -8636 13411 -325
52665 235521 260007 -8643 13408 -320
52636 235548 260025 -8671 13400 -315
52609 235570 260041 -8690 13385 -313
52586 235563 260024 -8684 13373 -318
52569 235588 260041 -8682 13382 -325
52562 235626 260070 -8769 13442 -334
52553 235618 260063 -8753 13427 -334
52540 235600 260026 -8724 13395 -326
52525 235565 259995 -8719 13353 -321
52506 235539 259974 -8731 13334 -321
52489 235532 259980 -8766 13351 -325
52472 235541 259994 -8800 13351 -326
52457 235527 259989 -8810 13324 -314
52441 235541 259980 -8812 13290 -308
52434 235546 259982 -8846 13272 -301
52430 235571 260002 -8886 13291 -299
52420 235607 260027 -8859 13298 -312
52422 235636 260048 -8809 13278 -308
52424 235664 260073 -8790 13265 -295
52426 235681 260074 -8769 13278 -291
52430 235701 260099 -8755 13305 -292
52437 235743 260126 -8749 13338 -304
52447 235777 260150 -8752 13354 -312
52455 235800 260148 -8753 13356 -316
52463 235830 260168 -8761 13373 -328
52473 235857 260181 -8796 13409 -340
52487 235881 260177 -8784 13417 -343
52496 235896 260184 -8738 13398 -329
52507 235899 260173 -8716 13377 -316
52516 235912 260171 -8705 13341 -314
52531 235931 260176 -8707 13340 -319
52548 235978 260223 -8716 13358 -322
52563 235996 260205 -8702 13336 -345
52579 236006 260197 -8706 13340 -356
52602 236083 260270 -8749 13373 -323
52623 236065 260258 -8796 13409 -340
52632 235916 260127 -8784 13417 -343
52622 235743 260023 -8738 13398 -329
52590 235597 259949 -8716 13377 -316
52544 235505 259930 -8705 13341 -314
52497 235466 259928 -8707 13340 -319
52453 235465 259945 -8716 13358 -322
52417 235481 259965 -8702 13336 -345
52384 235499 259980 -8706 13340 -356
52363 235512 259994 -8749 13373 -323
52344 235512 259993 -8822 13438 -305
52326 235530 259997 -8770 13409 -309
52325 235571 260033 -8720 13381 -305
52323 235587 260043 -8692 13361 -299
52321 235579 260029 -8669 13363 -314
52312 235545 259995 -8661 13382 -329
52299 235530 259984 -8670 13425 -330
52285 235518 259974 -8668 13450 -325
52274 235511 259991 -8665 13418 -318
52264 235521 260008 -8716 13388 -322
52263 235542 260020 -8766 13365 -327
52261 235568 260033 -8767 13356 -317
52259 235583 260036 -8758 13372 -316
52261 235600 260043 -8733 13386 -326
52265 235616 260053 -8717 13380 -332
52272 235634 260057 -8706 13361 -327
52281 235656 260065 -8700 13352 -314
52290 235681 260075 -8709 13355 -313
52298 235696 260083 -8721 13365 -313
52314 235731 260089 -8773 13437 -308
52326 235744 260098 -8761 13433 -300
52339 235772 260110 -8721 13395 -290
52354 235800 260124 -8701 13367 -284
52370 235820 260128 -8695 13356 -279
52387 235846 260139 -8690 13353 -276
52406 235866 260159 -8677 13367 -274
52426 235892 260177 -8671 13377 -276
52442 235907 260168 -8672 13380 -284
52463 235935 260184 -8676 13404 -293
52488 235997 260221 -8707 13441 -314
52511 236014 260232 -8717 13451 -320
52526 236040 260235 -8693 13425 -318
52558 236110 260302 -8696 13408 -324
52587 236072 260264 -8701 13406 -324
52602 235917 260152 -8703 13400 -323
52598 235744 260046 -8706 13403 -320
52575 235624 260007 -8688 13392 -329
52543 235563 260010 -8688 13370 -325
52509 235527 260021 -8722 13348 -332
52477 235544 260055 -8751 13357 -372
52450 235559 260075 -8765 13385 -373
52426 235568 260079 -8775 13389 -322
52410 235573 260096 -8782 13381 -290
52395 235575 260083 -8764 13362 -299
52385 235583 260093 -8721 13353 -314
52383 235639 260143 -8681 13361 -317
52386 235652 260168 -8647 13383 -330
52380 235620 260125 -8617 13409 -354
52374 235597 260109 -8612 13446 -366
52372 235585 260112 -8677 13508 -364
52361 235588 260117 -8670 13454 -343
52357 235596 260136 -8672 13417 -342
52356 235609 260146 -8671 13410 -368
52353 235629 260171 -8684 13420 -360
52351 235633 260173 -8701 13421 -342
52355 235668 260191 -8702 13407 -334
52358 235676 260195 -8692 13402 -335
52364 235703 260202 -8671 13409 -335
52373 235735 260227 -8692 13463 -333
52385 235753 260247 -8685 13445 -333
52395 235777 260251 -8682 13425 -319
52409 235810 260279 -8695 13406 -307
52421 235829 260285 -8711 13375 -294
52438 235844 260288 -8710 13355 -295
52455 235876 260303 -8703 13333 -307
52474 235892 260311 -8702 13334 -303
52487 235916 260315 -8702 13367 -302
52506 235944 260323 -8760 13443 -332
52526 235966 260338 -8741 13405 -337
52544 235981 260339 -8728 13378 -337
52562 236006 260347 -8722 13384 -354
52582 236030 260358 -8723 13379 -369
52607 236083 260403 -8723 13364 -358
52629 236114 260406 -8738 13345 -345
52647 236119 260398 -8738 13337 -345
52675 236193 260462 -8739 13347 -339
52701 236166 260431 -8763 13411 -349
52717 236002 260285 -8743 13399 -350
52714 235820 260170 -8713 13391 -346
52700 235676 260102 -8671 13370 -364
52681 235606 260105 -8672 13366 -354
52656 235574 260104 -8724 13394 -314
52637 235582 260133 -8756 13400 -276
52618 235604 260162 -8755 13372 -278
52603 235622 260178 -8724 13359 -306
52590 235628 260185 -8709 13390 -322
52584 235629 260178 -8712 13432 -339
52578 235652 260205 -8685 13443 -359
52589 235707 260261 -8655 13443 -378
52595 235743 260281 -8660 13443 -385
52601 235721 260255 -8674 13424 -388
52597 235681 260219 -8686 13411 -375
52597 235674 260223 -8684 13394 -377
52592 235668 260212 -8677 13374 -413
52593 235668 260233 -8689 13390 -414
52589 235685 260254 -8718 13421 -403
52589 235699 260264 -8762 13471 -416
52592 235720 260268 -8764 13477 -417
52596 235740 260284 -8726 13428 -395
52598 235753 260290 -8696 13389 -380
52607 235778 260303 -8682 13377 -372
52617 235802 260325 -8695 13395 -363
52630 235835 260354 -8709 13408 -358
52645 235862 260378 -8719 13394 -345
52656 235895 260388 -8709 13359 -333
52671 235914 260402 -8701 13322 -314
52687 235941 260424 -8738 13364 -331
52706 235989 260455 -8709 13365 -332
52721 236009 260471 -8690 13381 -329
52739 236039 260485 -8680 13399 -332
52757 236075 260506 -8682 13401 -346
52779 236107 260528 -8691 13397 -353
52796 236130 260556 -8687 13382 -359
52812 236147 260560 -8687 13367 -363
52830 236173 260581 -8711 13355 -355
52846 236203 260602 -8785 13418 -369
52864 236228 260602 -8770 13407 -353
52886 236283 260650 -8750 13374 -350
52911 236346 260714 -8740 13352 -338
52933 236306 260665 -8725 13356 -333
52944 236146 260537 -8695 13357 -358
52944 235996 260447 -8681 13355 -379
52937 235877 260395 -8707 13391 -384
52918 235831 260396 -8736 13429 -366
52903 235823 260425 -8753 13468 -359
52889 235838 260455 -8695 13461 -363
52877 235860 260484 -8637 13436 -366
52866 235886 260514 -8600 13419 -362
52858 235910 260529 -8573 13439 -364
52848 235897 260501 -8595 13460 -369
52847 235921 260518 -8649 13447 -359
52853 235963 260556 -8681 13420 -360
52854 235949 260545 -8678 13389 -353
52854 235924 260508 -8674 13390 -362
52853 235904 260491 -8699 13451 -385
52849 235893 260488 -8709 13488 -384
52845 235880 260481 -8700 13451 -385
52840 235877 260478 -8707 13419 -390
52841 235879 260491 -8723 13412 -377
52839 235923 260520 -8740 13400 -354
52847 235954 260555 -8745 13373 -354
52848 235969 260567 -8746 13350 -344
52851 235981 260570 -8751 13343 -339
52854 236006 260570 -8761 13365 -340
52864 236020 260583 -8804 13437 -330
52873 236040 260596 -8808 13460 -321
52885 236060 260602 -8751 13402 -313
52893 236074 260608 -8705 13368 -306
52906 236109 260631 -8678 13362 -306
52917 236128 260635 -8667 13343 -303
52923 236152 260641 -8674 13315 -294
52940 236168 260649 -8690 13319 -302
52953 236195 260667 -8702 13354 -307
52963 236209 260674 -8724 13366 -304
52978 236229 260676 -8792 13402 -309
52993 236239 260666 -8837 13416 -332
53008 236268 260685 -8819 13376 -352
53020 236302 260700 -8789 13348 -346
53031 236285 260667 -8773 13334 -332
53040 236294 260656 -8775 13313 -332
53068 236363 260725 -8785 13302 -330
53087 236355 260719 -8798 13339 -333
53100 236221 260615 -8777 13340 -360
53098 236060 260499 -8748 13284 -379
53083 235927 260456 -8895 13366 -327
53059 235868 260434 -8898 13418 -320
53026 235838 260431 -8831 13405 -331
52995 235850 260461 -8765 13388 -337
52975 235857 260492 -8710 13383 -331
52955 235879 260496 -8654 13369 -326
52937 235897 260531 -8622 13369 -339
52916 235891 260518 -8629 13379 -351
52903 235888 260514 -8662 13373 -345
52896 235924 260551 -8720 13382 -336
52890 235926 260554 -8770 13399 -321
52880 235904 260515 -8768 13377 -330
52862 235865 260483 -8758 13352 -359
52850 235839 260468 -8767 13365 -355
52835 235823 260456 -8766 13390 -354
52824 235820 260457 -8756 13393 -369
52811 235819 260455 -8767 13380 -366
52799 235823 260454 -8797 13355 -352
52795 235834 260468 -8825 13327 -346
52789 235845 260459 -8854 13326 -337
52786 235853 260461 -8880 13359 -336
52782 235867 260455 -8870 13364 -342
52777 235881 260460 -8836 13326 -345
52780 235898 260473 -8825 13307 -342
52786 235920 260488 -8836 13312 -320
52791 235953 260505 -8826 13295 -314
52796 235971 260512 -8805 13269 -323
52802 235986 260519 -8788 13262 -327
52804 235996 260508 -8789 13270 -325
52812 236024 260526 -8795 13291 -329
52823 236058 260562 -8838 13375 -355
52838 236087 260582 -8822 13333 -344
52849 236103 260584 -8816 13318 -341
52856 236107 260583 -8812 13337 -334
52867 236109 260574 -8797 13365 -332
52876 236137 260581 -8787 13371 -337
52889 236181 260621 -8790 13357 -340
52895 236185 260605 -8787 13337 -334
52904 236185 260573 -8771 13308 -329
52921 236246 260629 -8809 13365 -317
52943 236239 260622 -8784 13329 -345
52948 236095 260492 -8777 13321 -331
52934 235919 260375 -8799 13364 -295
52903 235771 260293 -8801 13365 -290
52862 235681 260265 -8791 13321 -307
52813 235614 260220 -8784 13292 -309
52769 235595 260230 -8769 13302 -293
52734 235610 260258 -8736 13324 -292
52700 235607 260258 -8732 13354 -318
52668 235604 260255 -8770 13389 -326
52642 235602 260262 -8789 13389 -321
52615 235594 260255 -8800 13371 -316
52600 235637 260300 -8815 13345 -314
52588 235688 260371 -8808 13306 -320
52577 235683 260381 -8810 13292 -333
52564 235668 260365 -8826 13319 -330
52544 235662 260375 -8837 13340 -326
52527 235673 260388 -8846 13342 -337
52510 235679 260404 -8843 13351 -352
52494 235704 260444 -8873 13369 -360
52485 235731 260470 -8896 13353 -352
52471 235744 260487 -8874 13318 -361
52464 235759 260500 -8854 13312 -362
52457 235781 260524 -8851 13306 -357
52449 235800 260518 -8863 13294 -367
52449 235831 260555 -8880 13280 -358
52450 235861 260595 -8881 13266 -348
52452 235905 260616 -8849 13254 -351
52458 235931 260635 -8819 13273 -351
52465 235972 260673 -8845 13386 -358
52473 236002 260695 -8794 13367 -368
52479 236021 260725 -8763 13331 -360
52487 236059 260730 -8776 13308 -340
52497 236094 260761 -8791 13316 -331
52514 236128 260782 -8797 13315 -343
52527 236157 260812 -8805 13309 -352
52550 236215 260880 -8801 13304 -357
52568 236242 260898 -8812 13300 -347
52579 236254 260868 -8859 13324 -337
52592 236277 260895 -8878 13335 -339
52606 236301 260892 -8852 13305 -343
52609 236274 260832 -8845 13289 -346
52626 236309 260859 -8844 13279 -340
52639 236309 260843 -8817 13249 -340
52631 236159 260701 -8819 13266 -333
52596 235949 260539 -8849 13327 -327
52535 235735 260387 -8864 13348 -336
52460 235584 260289 -8865 13322 -336
52384 235476 260191 -8855 13311 -323
52297 235335 260028 -8817 13294 -317
52205 235135 259760 -8766 13305 -333
52153 235040 259646 -8748 13342 -344
52132 235053 259663 -8817 13347 -357
52115 235097 259750 -8879 13304 -371
52133 235349 260078 -8857 13298 -376
52180 235704 260557 -8886 13257 -376
52231 236011 260929 -8940 13215 -380
52254 236170 261140 -8927 13283 -381
52259 236263 261282 -8942 13366 -369
52266 236371 261457 -8974 13352 -381
52254 236415 261516 -8983 13285 -396
52242 236434 261546 -8971 13271 -396
52232 236463 261570 -8947 13274 -400
52221 236444 261552 -8967 13277 -392
52195 236323 261362 -9030 13233 -369
52166 236199 261200 -9083 13186 -364
52151 236159 261141 -9102 13164 -373
52147 236178 261143 -9129 13133 -356
52147 236174 261134 -9159 13111 -341
52143 236164 261098 -9160 13083 -335
52132 236120 261009 -9107 13096 -329
52122 236050 260910 -9037 13146 -333
52121 236031 260871 -8988 13191 -339
52131 236039 260873 -8963 13222 -345
52147 236090 260917 -8958 13229 -355
52171 236162 260998 -8969 13221 -361
52197 236234 261079 -9007 13190 -365
52228 236340 261190 -9058 13135 -362
52257 236436 261308 -9115 13137 -369
52288 236525 261409 -9154 13192 -385
52310 236551 261425 -9141 13200 -388
52324 236567 261413 -9132 13196 -376
52345 236568 261392 -9139 13189 -356
52367 236603 261407 -9135 13162 -344
52405 236705 261522 -9132 13135 -318
52447 236821 261676 -9111 13100 -312
52484 236827 261706 -9099 13044 -325
52491 236709 261646 -9140 13045 -306
52473 236564 261573 -9192 13203 -310
52437 236456 261516 -9150 13202 -312
52390 236397 261491 -9101 13172 -298
52347 236351 261468 -9064 13145 -293
52309 236328 261436 -9031 13142 -300
52281 236292 261395 -8991 13170 -316
52250 236205 261270 -8971 13218 -316
52220 236095 261133 -8985 13243 -305
52205 236050 261075 -9012 13234 -307
52195 236040 261049 -9029 13236 -313
52192 236049 261042 -9054 13265 -332
52195 236037 261030 -9061 13253 -354
52193 236017 261013 -9056 13214 -347
52189 236006 261004 -9058 13186 -350
52183 235987 260988 -9066 13183 -353
52176 235973 260972 -9089 13190 -343
52170 235947 260957 -9100 13167 -336
52167 235950 260956 -9103 13152 -331
52164 235958 260956 -9111 13141 -312
52173 235968 260960 -9101 13150 -308
52180 235991 260969 -9102 13199 -310
52187 236005 260984 -9106 13210 -295
52205 236030 260996 -9082 13171 -294
52218 236045 261000 -9069 13139 -284
52233 236069 261012 -9077 13137 -266
52251 236090 261038 -9078 13141 -272
52267 236111 261049 -9056 13148 -289
52287 236124 261043 -9037 13162 -304
52308 236156 261058 -9042 13179 -311
52324 236171 261070 -9054 13191 -310
52345 236206 261086 -9077 13222 -316
52369 236228 261099 -9088 13235 -321
52390 236256 261114 -9074 13188 -322
52407 236272 261118 -9074 13156 -315
52433 236285 261111 -9068 13157 -309
52461 236342 261176 -9043 13149 -319
52494 236355 261200 -9025 13141 -337
52515 236267 261122 -9040 13170 -334
52512 236115 261016 -9067 13214 -308
52501 236002 260958 -9071 13230 -298
52483 235945 260952 -9071 13233 -334
52458 235918 260955 -9018 13212 -317
52436 235928 260976 -8963 13191 -306
52423 235943 261001 -8941 13212 -310
52414 235954 261017 -8940 13260 -322
52409 235968 261028 -8955 13280 -326
52402 235964 261012 -8971 13270 -327
52406 235982 261026 -8971 13247 -323
52412 236006 261064 -8971 13222 -332
52422 236019 261064 -9035 13277 -316
52424 236007 261042 -9047 13269 -310
52432 235997 261027 -9015 13231 -314
52435 235986 261032 -8988 13221 -310
52438 235981 261027 -8990 13215 -306
52443 235987 261041 -9010 13208 -294
52447 235996 261048 -9014 13203 -293
52455 236020 261073 -9003 13197 -301
52466 236035 261094 -9001 13200 -305
52480 236072 261108 -9017 13221 -313
52494 236083 261117 -9044 13250 -305
52506 236097 261110 -9032 13249 -290
52523 236120 261116 -8994 13219 -283
52543 236141 261149 -8969 13202 -282
52562 236166 261156 -8945 13206 -286
52581 236197 261166 -8933 13216 -300
52603 236231 261187 -8935 13229 -313
52628 236250 261207 -8935 13229 -312
52655 236283 261223 -8943 13221 -317
52679 236302 261240 -8947 13221 -335
52702 236340 261261 -8990 13255 -335
52725 236382 261286 -9026 13271 -320
52746 236393 261281 -9017 13248 -313
52766 236395 261260 -8998 13220 -321
52798 236460 261318 -8984 13204 -344
52830 236458 261328 -8994 13226 -350
52848 236353 261226 -9017 13255 -325
52853 236197 261126 -9014 13246 -316
52848 236103 261082 -8981 13211 -325
52837 236046 261080 -8955 13191 -309
52826 236029 261095 -8988 13240 -322
52817 236050 261121 -8961 13243 -323
52813 236069 261155 -8933 13268 -334
52808 236085 261163 -8941 13288 -332
52807 236098 261171 -8949 13290 -320
52807 236105 261180 -8940 13259 -327
52809 236123 261185 -8935 13227 -357
52819 236165 261228 -8954 13220 -358
52832 236186 261242 -8979 13223 -340
52841 236172 261227 -9017 13292 -362
52851 236163 261218 -8988 13279 -345
52859 236159 261233 -8967 13248 -342
52871 236184 261251 -8983 13215 -337
52882 236207 261271 -9009 13198 -324
52892 236239 261302 -9020 13189 -311
52904 236250 261316 -9014 13185 -310
52914 236284 261337 -9002 13189 -304
52925 236306 261356 -8997 13189 -292
52939 236334 261388 -9007 13205 -278
52958 236371 261426 -9016 13240 -281
52976 236409 261450 -8993 13241 -297
52993 236437 261470 -8970 13227 -296
53013 236459 261481 -8963 13227 -294
53031 236482 261492 -8963 13226 -293
53049 236513 261504 -8970 13228 -305
53069 236533 261517 -8975 13233 -320
53087 236552 261526 -8968 13237 -326
53104 236560 261520 -8956 13229 -328
53123 236570 261507 -8965 13218 -318
53143 236584 261508 -8985 13248 -319
53168 236635 261561 -9002 13265 -322
53194 236683 261601 -9000 13239 -318
53209 236694 261591 -8972 13205 -338
53238 236747 261628 -8983 13210 -337
53264 236767 261652 -9025 13259 -312
53287 236688 261571 -9020 13271 -318
53292 236525 261439 -8985 13243 -324
53291 236382 261358 -8944 13219 -322
53284 236309 261339 -8907 13221 -337
53277 236286 261337 -8985 13248 -319
53266 236281 261343 -9002 13265 -322
53258 236298 261362 -9000 13239 -318
53254 236306 261360 -8972 13205 -338
53248 236308 261368 -8983 13210 -337
53245 236322 261363 -9025 13259 -312
53246 236320 261364 -9020 13271 -318
53244 236353 261375 -8985 13243 -324
53254 236393 261423 -8944 13219 -322
53260 236400 261416 -8907 13221 -337
53269 236392 261414 -8917 13322 -360
53279 236396 261416 -8892 13314 -367
53281 236402 261433 -8911 13296 -369
53287 236429 261470 -8933 13279 -366
53291 236441 261477 -8955 13244 -370
53297 236443 261468 -8970 13203 -378
53296 236459 261478 -8979 13205 -384
53305 236486 261501 -8992 13228 -385
53316 236513 261523 -8991 13259 -391
53326 236527 261528 -8994 13291 -397
53331 236554 261530 -8996 13277 -382
53347 236575 261556 -8972 13246 -368
53361 236611 261582 -8957 13236 -362
53380 236653 261615 -8960 13245 -342
53395 236677 261615 -8964 13262 -338
53408 236703 261622 -8958 13253 -345
53422 236711 261623 -8963 13237 -320
53434 236746 261641 -8976 13226 -289
53452 236768 261635 -8967 13209 -276
53466 236790 261653 -8963 13214 -286
53483 236811 261655 -8960 13264 -296
53506 236852 261704 -8928 13295 -304
53522 236889 261717 -8901 13293 -315
53535 236889 261681 -8885 13287 -317
53555 236930 261709 -8879 13278 -310
53580 236991 261772 -8881 13278 -303
53598 236940 261730 -8872 13285 -301
53613 236800 261613 -8872 13280 -299
53616 236672 261551 -8871 13272 -302
53607 236584 261527 -8873 13291 -289
53595 236534 261503 -8916 13342 -273
53579 236521 261517 -8943 13345 -262
53570 236556 261563 -8915 13283 -259
53562 236576 261573 -8886 13223 -281
53547 236588 261597 -8899 13225 -284
53541 236610 261605 -8948 13279 -259
53529 236623 261606 -8946 13297 -268
53531 236672 261636 -8902 13276 -298
53536 236709 261692 -8888 13265 -288
53540 236716 261697 -8877 13253 -272
53540 236713 261688 -8886 13283 -278
53537 236716 261703 -8897 13328 -288
53535 236708 261705 -8883 13324 -298
53530 236717 261715 -8901 13302 -298
53526 236738 261743 -8942 13283 -290
53522 236759 261760 -8941 13251 -303
53523 236790 261787 -8920 13215 -325
53523 236818 261809 -8931 13238 -325
53525 236848 261843 -8929 13278 -325
53526 236880 261858 -8929 13287 -334
53529 236899 261858 -8980 13319 -359
53535 236917 261878 -8973 13282 -341
53539 236950 261891 -8960 13248 -324
53547 236975 261905 -8956 13225 -299
53553 237007 261911 -8951 13222 -296
53562 237016 261921 -8943 13226 -300
53571 237049 261933 -8939 13228 -292
53580 237066 261942 -8929 13230 -280
53591 237094 261945 -8920 13228 -268
53599 237103 261959 -8933 13296 -254
53613 237135 261965 -8905 13282 -261
53622 237155 261961 -8888 13259 -255
53632 237166 261953 -8881 13255 -245
53651 237222 262005 -8878 13252 -242
53670 237257 262030 -8884 13240 -241
53685 237179 261947 -8887 13234 -245
53686 237019 261813 -8879 13240 -249
53675 236886 261748 -8879 13248 -254
53655 236802 261725 -8893 13279 -268
53626 236750 261712 -8926 13310 -265
53595 236747 261735 -8914 13282 -265
53569 236779 261786 -8895 13264 -278
53544 236792 261806 -8928 13297 -273
53520 236808 261802 -8971 13327 -258
53498 236815 261789 -8966 13315 -267
53476 236810 261780 -8925 13275 -290
53465 236840 261799 -8892 13265 -291
53457 236870 261808 -8856 13249 -294
53447 236851 261798 -8846 13228 -308
53437 236827 261768 -8892 13287 -325
53422 236803 261741 -8937 13335 -326
53406 236783 261726 -8933 13324 -319
53388 236777 261722 -8910 13313 -310
53375 236778 261733 -8896 13278 -292
53362 236794 261731 -8884 13243 -306
53351 236805 261754 -8879 13250 -320
53342 236828 261757 -8897 13268 -303
53333 236835 261774 -8920 13263 -304
53326 236864 261774 -8930 13260 -322
53328 236885 261780 -8964 13301 -305
53322 236893 261769 -8978 13300 -284
53324 236926 261779 -8966 13242 -284
53325 236944 261798 -8966 13232 -285
53331 236952 261805 -8961 13245 -299
53336 236984 261808 -8951 13248 -305
53338 237006 261821 -8941 13239 -291
53343 237020 261820 -8948 13235 -260
53348 237035 261818 -8944 13238 -237
53355 237057 261819 -8905 13232 -245
53363 237069 261820 -8929 13316 -232
53377 237110 261852 -8901 13304 -228
53383 237136 261855 -8877 13288 -251
53386 237131 261798 -8878 13284 -269
53405 237179 261863 -8882 13285 -269
53421 237178 261859 -8882 13281 -266
53429 237045 261746 -8864 13270 -283
53416 236883 261631 -8855 13256 -290
53381 236737 261566 -8867 13250 -285
53334 236665 261557 -8912 13283 -279
53279 236599 261537 -8955 13330 -293
53221 236589 261551 -8932 13300 -333
53176 236609 261576 -8924 13271 -348
53136 236611 261582 -8956 13304 -314
53101 236625 261580 -8965 13316 -287
53068 236612 261580 -8942 13302 -289
53039 236611 261569 -8900 13278 -288
53017 236626 261583 -8874 13263 -269
53001 236657 261608 -8853 13260 -258
52985 236630 261584 -8835 13271 -267
52959 236613 261556 -8863 13318 -271
52937 236596 261555 -8883 13336 -293
52915 236591 261556 -8868 13306 -317
52889 236596 261563 -8880 13280 -307
52871 236603 261575 -8902 13253 -287
52851 236607 261579 -8910 13255 -298
52834 236621 261589 -8909 13276 -316
52826 236635 261590 -8925 13278 -319
52812 236641 261585 -8927 13279 -333
52803 236655 261575 -8907 13282 -344
52798 236681 261591 -8942 13323 -336
52795 236683 261597 -8925 13305 -327
52795 236707 261592 -8928 13306 -317
52793 236725 261587 -8929 13299 -313
52795 236731 261587 -8934 13292 -314
52794 236756 261580 -8919 13273 -303
52802 236770 261584 -8903 13249 -284
52806 236785 261569 -8896 13235 -282
52808 236796 261578 -8879 13240 -293
52814 236808 261582 -8930 13344 -284
52822 236820 261569 -8913 13318 -282
52831 236841 261586 -8890 13285 -285
52852 236902 261628 -8884 13266 -287
52864 236923 261629 -8890 13271 -285
52880 236974 261671 -8899 13280 -290
52918 237088 261811 -8916 13289 -275
52962 237183 261966 -8919 13288 -269
53023 237304 262239 -8900 13268 -286
53105 237665 262908 -8950 13336 -276
53235 238380 264003 -8938 13315 -277
53311 238906 264798 -8905 13272 -294
53329 239156 265163 -8930 13270 -296
53316 239308 265348 -8983 13280 -262
53287 239325 265377 -8998 13254 -254
53251 239290 265313 -8988 13224 -301
53219 239256 265239 -8924 13216 -305
53185 239158 265092 -8854 13212 -250
53152 239037 264916 -8849 13230 -237
53125 238957 264773 -8881 13270 -258
53109 238898 264689 -8908 13296 -267
53085 238837 264585 -8911 13286 -280
53055 238734 264463 -8909 13269 -291
53025 238637 264340 -8905 13268 -303
53003 238589 264274 -8926 13273 -320
52977 238527 264187 -8967 13271 -334
52949 238461 264103 -8991 13257 -341
52927 238435 264052 -8993 13250 -335
52910 238390 263972 -8993 13252 -325
52889 238311 263839 -9026 13255 -325
52877 238268 263775 -9039 13234 -327
52874 238245 263718 -9015 13229 -327
52868 238197 263632 -9013 13239 -332
52854 238135 263526 -9042 13221 -335
52854 238114 263468 -9068 13201 -329
52853 238101 263433 -9073 13187 -322
52854 238074 263371 -9065 13188 -317
52858 238056 263327 -9045 13182 -317
52869 238064 263319 -9022 13176 -316
52886 238104 263340 -9058 13232 -291
52895 238096 263320 -9057 13212 -289
52905 238091 263293 -9050 13209 -298
52915 238075 263233 -9049 13200 -299
52918 238044 263169 -9063 13198 -296
52927 238033 263133 -9077 13194 -307
52927 237977 263040 -9092 13193 -317
52923 237903 262899 -9095 13194 -308
52935 237916 262880 -9084 13175 -307
52950 237890 262850 -9120 13168 -295
52954 237753 262752 -9117 13161 -298
52927 237554 262592 -9089 13161 -301
52878 237360 262456 -9068 13124 -335
52841 237369 262569 -9091 13120 -338
52801 237421 262692 -9126 13162 -312
52749 237428 262716 -9149 13171 -296
52689 237331 262582 -9148 13160 -288
52629 237194 262388 -9121 13132 -295
52559 236950 262044 -9118 13108 -296
52513 236791 261822 -9117 13129 -292
52511 236819 261855 -9109 13131 -290
52531 236988 262090 -9094 13143 -299
52578 237289 262488 -9076 13183 -313
52651 237585 262849 -9120 13175 -323
52708 237806 263149 -9248 13088 -320
52741 237940 263335 -9279 13035 -316
52761 238045 263491 -9246 13045 -333
52782 238205 263720 -9300 13017 -357
52797 238304 263850 -9333 13037 -347
52809 238392 263955 -9342 13117 -330
52811 238401 263963 -9343 13131 -340
52814 238401 263941 -9317 13076 -357
52805 238313 263804 -9322 13020 -359
52782 238149 263552 -9369 12971 -330
52759 237964 263276 -9390 12957 -311
52742 237815 263050 -9383 12979 -303
52730 237727 262910 -9405 12954 -291
52727 237658 262807 -9458 12890 -271
52723 237596 262690 -9508 12852 -276
52736 237591 262653 -9518 12879 -278
52765 237664 262742 -9487 12844 -272
52810 237812 262921 -9462 12841 -273
52863 238015 263187 -9442 12866 -266
52920 238232 263443 -9416 12888 -260
52959 238349 263594 -9405 12907 -274
53002 238460 263706 -9423 12891 -284
53033 238512 263725 -9458 12865 -278
53049 238474 263627 -9488 12867 -272
53064 238409 263512 -9497 12907 -270
53089 238375 263443 -9502 12930 -275
53123 238330 263417 -9530 12910 -263
53149 238225 263372 -9576 12866 -250
53158 238125 263357 -9588 12811 -252
53149 238050 263348 -9588 12786 -259
53137 238039 263379 -9616 12775 -261
53123 238057 263440 -9647 12779 -246
53110 238067 263453 -9645 12799 -244
53097 238054 263417 -9603 12810 -249
53083 238000 263319 -9533 12824 -246
53069 237923 263207 -9498 12846 -255
53056 237815 263032 -9474 12891 -271
53044 237711 262871 -9484 12932 -260
53047 237700 262834 -9493 12925 -261
53055 237671 262801 -9493 12890 -264
53064 237642 262753 -9489 12875 -250
53066 237601 262706 -9491 12867 -261
53075 237576 262683 -9503 12858 -269
53075 237565 262680 -9508 12876 -240
53084 237579 262674 -9517 12906 -227
53095 237591 262684 -9507 12906 -241
53108 237608 262683 -9496 12881 -246
53119 237606 262677 -9499 12869 -253
53133 237620 262666 -9485 12869 -258
53146 237618 262639 -9481 12859 -251
53158 237606 262611 -9495 12861 -241
53178 237616 262602 -9502 12873 -225
53196 237618 262589 -9492 12868 -214
53218 237650 262595 -9483 12876 -212
53246 237694 262630 -9473 12923 -229
53273 237741 262673 -9457 12932 -233
53298 237781 262696 -9428 12903 -223
53318 237802 262717 -9409 12900 -215
53349 237858 262765 -9396 12914 -221
53374 237898 262801 -9378 12938 -239
53401 237919 262809 -9371 12948 -239
53428 237963 262836 -9361 12940 -239
53463 238019 262890 -9351 12932 -241
53493 237977 262861 -9356 12941 -226
53508 237831 262743 -9374 12973 -225
53509 237698 262660 -9358 12978 -256
53505 237618 262640 -9344 12970 -265
53504 237612 262680 -9362 12998 -246
53501 237613 262710 -9370 13018 -230
53499 237651 262755 -9351 13006 -228
53502 237682 262781 -9299 12985 -245
53497 237687 262797 -9253 12992 -262
53497 237702 262787 -9214 13032 -272
53501 237702 262775 -9184 13064 -288
53505 237718 262769 -9227 13146 -328
53514 237726 262775 -9250 13148 -327
53520 237712 262752 -9229 13117 -316
53527 237689 262720 -9217 13096 -313
53537 237681 262695 -9223 13102 -316
53542 237658 262683 -9228 13095 -310
53545 237647 262670 -9230 13082 -304
53549 237643 262644 -9214 13093 -322
53561 237652 262645 -9204 13102 -332
53567 237668 262644 -9210 13126 -334
53576 237675 262646 -9224 13172 -360
53584 237684 262625 -9217 13170 -367
53594 237692 262627 -9200 13136 -351
53609 237705 262619 -9203 13126 -325
53625 237724 262627 -9195 13114 -314
53641 237743 262626 -9184 13092 -306
53659 237772 262634 -9180 13085 -295
53676 237797 262645 -9167 13080 -303
53695 237803 262635 -9169 13076 -304
53715 237843 262666 -9181 13097 -295
53734 237863 262672 -9197 13128 -273
53749 237865 262638 -9196 13134 -271
53772 237913 262674 -9181 13109 -287
53798 237939 262690 -9181 13088 -297
53820 237852 262612 -9185 13092 -303
53829 237705 262501 -9170 13085 -314
53840 237589 262440 -9159 13066 -328
53838 237520 262422 -9190 13083 -325
53836 237501 262432 -9227 13108 -312
53842 237525 262475 -9235 13116 -301
53843 237564 262520 -9213 13161 -311
53843 237593 262541 -9161 13127 -303
53844 237618 262556 -9120 13098 -313
53843 237626 262539 -9106 13126 -335
53851 237639 262537 -9116 13176 -340
53861 237687 262583 -9123 13195 -340
53873 237687 262568 -9138 13166 -334
53881 237669 262548 -9161 13114 -331
53892 237650 262525 -9172 13091 -340
53896 237644 262519 -9228 13134 -318
53903 237643 262529 -9231 13121 -330
53914 237663 262562 -9224 13099 -333
53926 237702 262590 -9221 13072 -308
53937 237729 262613 -9215 13051 -298
53950 237760 262642 -9214 13044 -303
53960 237800 262676 -9210 13050 -311
53970 237829 262687 -9210 13060 -298
53985 237848 262708 -9217 13087 -282
53997 237883 262736 -9258 13108 -275
54014 237924 262768 -9240 13100 -281
54029 237954 262799 -9197 13092 -277
54048 237989 262813 -9178 13092 -263
54064 238006 262810 -9183 13109 -259
54078 238051 262857 -9179 13124 -270
54095 238084 262892 -9164 13110 -273
54106 238106 262871 -9165 13102 -269
54128 238163 262918 -9179 13097 -266
54155 238241 263010 -9160 13078 -292
54180 238231 263008 -9169 13077 -328
54192 238097 262893 -9227 13105 -320
54201 237983 262835 -9251 13154 -296
54201 237899 262813 -9232 13173 -292
54194 237858 262814 -9189 13142 -301
54185 237869 262840 -9145 13112 -306
54185 237913 262926 -9118 13098 -307
54180 237953 262965 -9092 13089 -312
54177 237989 262991 -9091 13109 -321
54171 238011 263001 -9131 13140 -339
54173 238033 263021 -9179 13185 -342
54176 238094 263079 -9198 13179 -322
54180 238101 263074 -9185 13131 -324
54181 238091 263053 -9171 13109 -337
54182 238062 263020 -9182 13105 -324
54181 238053 263002 -9188 13136 -321
54178 238042 262997 -9187 13141 -342
54176 238039 262992 -9199 13125 -357
54173 238036 262990 -9207 13114 -351
54172 238054 263019 -9225 13100 -329
54172 238073 263020 -9278 13116 -335
54173 238087 263030 -9270 13107 -332
54173 238098 263017 -9263 13076 -329
54176 238113 263027 -9263 13044 -315
54178 238128 263028 -9265 13015 -288
54183 238150 263050 -9248 12998 -270
54189 238171 263061 -9226 13003 -262
54193 238186 263060 -9206 13030 -265
54202 238196 263055 -9193 13066 -275
54212 238235 263073 -9236 13105 -285
54217 238232 263044 -9224 13094 -276
54225 238252 263043 -9187 13062 -279
54242 238319 263126 -9160 13037 -299
54256 238315 263107 -9194 13063 -302
54260 238187 262978 -9256 13106 -282
54252 238028 262873 -9274 13114 -279
54235 237912 262807 -9262 13108 -293
54211 237820 262763 -9238 13086 -296
54186 237789 262751 -9221 13072 -290
54166 237805 262779 -9228 13078 -291
54147 237836 262818 -9222 13077 -313
54128 237841 262827 -9208 13099 -327
54110 237849 262820 -9222 13127 -334
54092 237842 262795 -9236 13119 -322
54078 237850 262788 -9237 13082 -313
54071 237880 262814 -9239 13049 -323
54064 237857 262786 -9251 13061 -319
54054 237834 262746 -9252 13091 -327
54043 237794 262716 -9228 13106 -354
54031 237777 262701 -9229 13123 -350
54021 237781 262704 -9235 13106 -345
54012 237787 262720 -9227 13068 -354
54001 237803 262723 -9236 13056 -348
53995 237821 262729 -9243 13055 -345
53987 237834 262745 -9252 13044 -342
53986 237860 262751 -9267 13027 -338
53985 237874 262763 -9269 13007 -337
53985 237899 262785 -9265 12995 -326
53990 237928 262811 -9262 12998 -310
53997 237975 262838 -9241 13107 -317
54000 237992 262856 -9216 13112 -327
54002 238010 262870 -9212 13102 -325
54007 238035 262871 -9209 13086 -318
54009 238048 262872 -9206 13069 -322
54019 238099 262923 -9210 13060 -327
54030 238122 262915 -9226 13076 -307
54027 238112 262877 -9217 13060 -309
54046 238170 262939 -9216 13041 -336
54059 238176 262942 -9263 13098 -327
54055 238020 262786 -9295 13144 -295
54032 237838 262666 -9273 13116 -297
54002 237706 262588 -9230 13069 -319
53959 237626 262563 -9198 13038 -309
53915 237592 262552 -9188 13035 -294
53874 237582 262571 -9173 13051 -307
53835 237596 262577 -9167 13096 -319
53804 237597 262588 -9182 13118 -324
53773 237595 262596 -9202 13135 -321
53743 237576 262554 -9232 13174 -305
53725 237590 262559 -9233 13145 -322
53707 237621 262595 -9222 13087 -347
53693 237617 262579 -9221 13085 -340
53675 237590 262543 -9218 13094 -323
53654 237565 262515 -9223 13088 -324
53631 237543 262511 -9225 13088 -329
53611 237529 262506 -9215 13085 -326
53593 237534 262514 -9214 13075 -319
53578 237557 262520 -9230 13057 -301
53566 237575 262540 -9280 13108 -256
53555 237585 262548 -9291 13076 -259
53541 237607 262549 -9283 13038 -266
53537 237616 262557 -9252 13013 -269
53530 237643 262566 -9224 13009 -274
53528 237653 262573 -9208 13021 -283
53527 237674 262587 -9187 13040 -294
53532 237702 262602 -9189 13068 -297
53532 237728 262621 -9206 13086 -294
53529 237729 262594 -9270 13111 -293
53535 237734 262591 -9263 13099 -295
53542 237772 262609 -9255 13052 -294
53553 237805 262635 -9259 13021 -297
53577 237912 262755 -9254 13022 -299
53606 238025 262882 -9228 13008 -309
53635 238134 262996 -9224 13005 -330
53685 238342 263276 -9268 13048 -315
53754 238585 263596 -9308 13079 -285
53813 238713 263830 -9299 13096 -289
53841 238733 263967 -9270 13136 -299
53836 238745 264105 -9228 13134 -305
53825 238825 264303 -9181 13097 -316
53804 238909 264467 -9162 13081 -325
53780 238998 264590 -9168 13086 -325
53755 239031 264634 -9198 13099 -318
53727 239005 264589 -9240 13086 -322
53696 238968 264539 -9260 13075 -308
53656 238882 264410 -9266 13054 -303
53620 238787 264262 -9266 13025 -325
53589 238735 264170 -9292 13058 -332
53563 238668 264069 -9330 13074 -323
53539 238592 263979 -9320 13040 -326
53505 238496 263864 -9298 13023 -327
53454 238324 263633 -9295 13009 -309
53386 238108 263344 -9325 12988 -301
53328 237921 263098 -9356 12976 -296
53253 237665 262742 -9369 12963 -304
53199 237518 262544 -9400 12931 -312
53179 237512 262538 -9421 12899 -305
53293 238866 264204 -9436 12929 -306
53374 239196 264622 -9434 12983 -297
53434 239400 264855 -9383 12989 -286
53468 239482 264912 -9355 12949 -283
53482 239473 264874 -9333 12918 -283
53500 239513 264886 -9297 12956 -288
53517 239446 264811 -9314 12992 -295
53507 239257 264649 -9400 12932 -298
53475 239046 264488 -9448 12842 -298
53422 238895 264377 -9471 12813 -308
53358 238754 264259 -9476 13005 -313
53288 238618 264139 -9481 13008 -312
53228 238537 264029 -9483 12932 -318
53181 238482 263973 -9494 12888 -332
53144 238434 263909 -9539 12893 -342
53102 238395 263842 -9577 12916 -327
53065 238324 263746 -9549 12952 -341
53038 238272 263664 -9484 12971 -367
53021 238255 263614 -9476 12915 -357
53017 238249 263612 -9516 12847 -346
53008 238234 263607 -9535 12814 -337
52993 238208 263564 -9532 12830 -335
52972 238163 263509 -9545 12852 -354
52965 238163 263524 -9567 12829 -353
52962 238183 263535 -9578 12813 -344
52956 238186 263518 -9558 12846 -337
52944 238158 263480 -9524 12877 -335
52941 238160 263475 -9516 12887 -340
52941 238151 263443 -9543 12875 -339
52952 238204 263515 -9573 12858 -328
52970 238272 263588 -9586 12851 -326
52992 238347 263666 -9596 12836 -313
53013 238398 263722 -9588 12834 -317
53029 238449 263750 -9577 12842 -337
53047 238489 263780 -9601 12838 -328
53064 238512 263774 -9653 12821 -308
53085 238535 263791 -9662 12797 -293
53101 238553 263791 -9643 12773 -290
53121 238585 263807 -9657 12737 -290
53138 238600 263797 -9651 12703 -286
53154 238605 263773 -9616 12735 -283
53183 238660 263817 -9601 12791 -283
53212 238666 263801 -9582 12821 -284
53222 238519 263658 -9550 12840 -280
53218 238342 263530 -9552 12843 -276
53193 238195 263436 -9554 12841 -279
53162 238087 263400 -9527 12836 -276
53128 238057 263397 -9520 12829 -274
53093 238047 263426 -9523 12830 -276
53070 238084 263476 -9528 12822 -268
53053 238115 263509 -9549 12851 -291
53044 238147 263544 -9591 12876 -280
53029 238151 263552 -9595 12858 -266
53028 238171 263570 -9586 12820 -274
53034 238225 263607 -9565 12819 -277
53039 238244 263624 -9530 12846 -274
53040 238235 263615 -9480 12867 -276
53040 238191 263570 -9433 12889 -297
53035 238153 263507 -9417 12916 -315
53029 238120 263479 -9468 12998 -360
53030 238110 263466 -9456 13015 -356
53028 238127 263463 -9429 13008 -377
53032 238139 263487 -9426 12990 -404
53039 238171 263513 -9446 12966 -402
53046 238195 263542 -9468 12928 -399
53056 238236 263573 -9487 12876 -399
53071 238276 263598 -9497 12855 -394
53087 238314 263636 -9520 12825 -372
53114 238380 263696 -9567 12806 -337
53141 238431 263749 -9598 12807 -306
53163 238465 263763 -9611 12773 -275
53182 238465 263744 -9617 12736 -250
53204 238495 263770 -9613 12732 -221
53238 238569 263839 -9590 12748 -194
53262 238590 263843 -9554 12779 -201
53284 238627 263871 -9513 12825 -226
53320 238712 263980 -9482 12888 -259
53352 238726 264017 -9451 12971 -310
53362 238601 263899 -9419 13036 -354
53356 238429 263774 -9426 13063 -389
53349 238312 263712 -9459 13007 -407
53340 238275 263723 -9528 12901 -397
53326 238251 263696 -9595 12858 -380
53301 238190 263627 -9577 12839 -386
53287 238189 263601 -9542 12838 -402
53284 238240 263669 -9526 12871 -395
53283 238251 263677 -9492 12928 -373
53286 238293 263712 -9449 12948 -363
53299 238367 263777 -9431 12888 -358
53317 238411 263819 -9416 12909 -357
53332 238395 263808 -9412 12968 -367
53353 238385 263781 -9427 13014 -377
53360 238334 263716 -9465 13011 -382
53365 238311 263683 -9490 12980 -384
53372 238312 263701 -9545 12915 -388
53372 238303 263683 -9670 12821 -389
53374 238309 263666 -9790 12747 -387
53379 238329 263682 -9845 12703 -398
53385 238369 263719 -9902 12677 -427
53392 238387 263730 -9943 12660 -436
53407 238407 263732 -9973 12633 -424
53413 238366 263672 -9988 12645 -417
53424 238334 263587 -9965 12681 -437
53438 238320 263550 -9900 12694 -465
53471 238386 263630 -9849 12662 -477
53517 238511 263777 -9860 12620 -472
53537 238565 263818 -9875 12604 -475
53558 238630 263911 -9845 12615 -488
53582 238692 263943 -9790 12655 -497
53601 238672 263864 -9742 12690 -551
53615 238507 263588 -9708 12708 -621
53638 238378 263393 -9664 12710 -671
53668 238330 263372 -9654 12676 -703
53691 238223 263310 -9710 12633 -693
53705 238098 263242 -9786 12608 -715
53714 238030 263215 -9805 12666 -761
53724 238029 263246 -9777 12783 -788
53745 238092 263363 -9739 12829 -834
53754 238182 263492 -9782 12823 -889
53753 238268 263587 -9895 12803 -894
53757 238346 263699 -9924 12781 -868
53754 238419 263786 -9876 12767 -833
53762 238510 263898 -9864 12745 -838
53769 238625 264029 -9846 12724 -877
53778 238664 264077 -9797 12708 -857
53783 238661 264074 -9797 12714 -820
53800 238687 264096 -9806 12746 -807
53828 238749 264191 -9762 12785 -824
53864 238844 264308 -9690 12792 -860
53892 238930 264424 -9683 12766 -858
53912 238980 264472 -9712 12777 -867
53926 238971 264439 -9772 12773 -874
53936 238968 264397 -9846 12736 -864
53942 238947 264347 -9918 12678 -838
53950 238932 264307 -9937 12637 -826
53960 238935 264279 -9901 12647 -845
53972 238950 264276 -9872 12676 -849
53989 238953 264255 -9838 12720 -862
54008 238955 264239 -9826 12752 -891
54033 238952 264216 -9828 12738 -895
54051 238919 264146 -9824 12710 -891
54057 238834 264013 -9848 12693 -889
54065 238778 263915 -9859 12686 -904
54083 238778 263895 -9841 12700 -935
54101 238793 263899 -9806 12731 -995
54115 238766 263838 -9799 12766 -1045
54121 238704 263724 -9842 12779 -1064
54126 238634 263674 -9873 12749 -1093
54141 238507 263585 -9898 12697 -1095
54130 238316 263439 -9991 12644 -1050
54110 238136 263271 -10081 12596 -951
54072 237981 263113 -10055 12600 -909
54066 238030 263203 -9912 12657 -972
54067 238092 263282 -9871 12668 -931
54062 238094 263265 -9957 12633 -763
54033 237959 263046 -9955 12659 -676
54010 237866 262913 -9791 12819 -742
54025 237968 263044 -9621 12892 -835
54044 238092 263173 -9634 12769 -748
54037 238031 263066 -9736 12710 -594
54012 237882 262858 -9666 12852 -616
54028 237943 262948 -9421 13053 -792
54062 238039 263067 -9283 13021 -929
54075 238051 263083 -9443 12810 -920
54068 237973 262951 -9697 12713 -846
54055 237889 262839 -9767 12801 -828
54068 237950 262916 -9679 12825 -908
54092 238044 263031 -9660 12676 -977
54095 238042 263005 -9750 12617 -898
54086 237997 262901 -9729 12756 -815
54091 238002 262903 -9547 12981 -872
54101 238033 262915 -9364 13073 -978
54116 238090 262971 -9329 12985 -1024
54126 238123 262981 -9432 12902 -952
54129 238114 262920 -9531 12904 -854
54133 238066 262824 -9547 12922 -841
54142 238070 262820 -9558 12875 -876
54152 238089 262827 -9637 12840 -911
54167 238123 262840 -9625 12863 -865
54170 238123 262801 -9593 12900 -812
54187 238159 262801 -9539 12904 -800
54211 238226 262892 -9468 12883 -842
54227 238183 262839 -9439 12868 -878
54221 237969 262614 -9462 12852 -872
54225 237845 262572 -9491 12825 -858
54223 237777 262583 -9482 12807 -864
54210 237722 262559 -9474 12941 -922
54199 237704 262571 -9488 13018 -892
54192 237750 262631 -9423 12990 -933
54190 237789 262652 -9400 12920 -969
54190 237837 262708 -9442 12896 -917
54191 237882 262743 -9443 12885 -881
54195 237925 262783 -9438 12864 -881
54200 237966 262796 -9457 12865 -865
54206 237983 262800 -9464 12900 -865
54211 237972 262777 -9438 12962 -907
54208 237957 262749 -9418 13012 -940
54212 237952 262756 -9440 12993 -935
54216 237956 262770 -9480 12945 -931
54217 237970 262794 -9500 12927 -942
54226 238014 262845 -9483 12938 -963
54235 238073 262913 -9445 12927 -988
54244 238117 262954 -9445 12892 -978
54251 238155 262997 -9482 12866 -960
54259 238203 263037 -9496 12865 -953
54262 238231 263050 -9461 12916 -986
54266 238247 263053 -9416 12982 -1022
54267 238244 263029 -9404 13002 -1018
54275 238284 263062 -9419 12979 -1021
54289 238336 263116 -9434 12963 -1021
54307 238399 263181 -9437 12959 -994
54314 238407 263156 -9431 12928 -964
54322 238407 263130 -9421 12874 -935
54342 238476 263198 -9413 12826 -904
54361 238504 263230 -9396 12820 -892
54362 238385 263114 -9383 12887 -886
54351 238196 262974 -9375 13017 -918
54333 238053 262881 -9326 13092 -996
54308 237963 262837 -9289 13099 -1051
54280 237918 262819 -9335 13133 -1042
54263 237941 262858 -9397 13152 -998
54244 237970 262888 -9417 13112 -978
54231 237990 262912 -9399 13043 -984
54224 238032 262947 -9382 12972 -978
54216 238047 262977 -9367 12890 -958
54212 238097 263007 -9350 12844 -944
54219 238160 263074 -9369 12983 -959
54219 238155 263059 -9340 13017 -943
54222 238157 263061 -9316 13026 -908
54221 238160 263073 -9324 13026 -894
54222 238165 263075 -9328 13025 -881
54218 238161 263090 -9352 13047 -850
54204 238145 263052 -9365 13048 -846
54200 238146 263058 -9342 13018 -838
54195 238149 263051 -9340 12975 -844
54183 238118 263001 -9394 12883 -830
54165 238071 262918 -9450 12861 -824
54149 238024 262836 -9473 12903 -831
54131 237971 262762 -9464 12996 -824
54124 237955 262726 -9450 13037 -821
54120 237969 262711 -9445 13011 -823
54123 237958 262690 -9447 12933 -810
54127 237985 262706 -9447 12863 -787
54120 237949 262642 -9437 12816 -785
54111 237898 262525 -9443 12805 -786
54121 237930 262561 -9444 12828 -802
54127 237888 262500 -9450 12857 -810
54113 237678 262275 -9466 12879 -779
54087 237449 262091 -9438 12865 -790
54050 237311 261995 -9415 12870 -823
54008 237231 261952 -9437 12922 -804
53966 237208 261945 -9442 12975 -791
53936 237237 261995 -9417 12991 -820
53910 237263 262047 -9385 12988 -845
53892 237306 262086 -9364 12984 -856
53870 237330 262126 -9353 13014 -866
53851 237356 262149 -9323 13044 -875
53831 237398 262182 -9297 13036 -877
53822 237439 262223 -9290 13041 -870
53809 237422 262204 -9281 13058 -871
53678 237553 262321 -9325 13018 -939
53671 237574 262331 -9311 13038 -924
53669 237589 262340 -9307 13043 -901
53673 237608 262343 -9299 13035 -893
53676 237644 262368 -9284 13077 -934
53675 237638 262336 -9270 13075 -931
53674 237619 262278 -9257 13067 -911
53685 237674 262336 -9265 13055 -885
53689 237624 262277 -9277 13032 -868
53667 237419 262086 -9259 12992 -891
53625 237207 261917 -9270 12999 -885
53576 237091 261843 -9315 13058 -832
53524 237030 261829 -9329 13082 -811
53467 237002 261815 -9311 13065 -841
53424 236995 261832 -9298 13052 -870
53388 237019 261863 -9284 13057 -850
53362 237051 261900 -9245 13066 -838
53337 237071 261934 -9212 13064 -853
53319 237118 261977 -9210 13055 -868
53305 237156 262023 -9232 13052 -883
53300 237209 262071 -9248 13064 -881
53284 237211 262079 -9253 13059 -876
53266 237190 262056 -9269 13031 -884
53249 237175 262052 -9291 13038 -879
53231 237181 262049 -9316 13071 -865
53214 237177 262052 -9313 13069 -857
53200 237194 262065 -9280 13056 -846
53186 237189 262087 -9247 13061 -843
53179 237219 262080 -9223 13062 -845
53169 237219 262075 -9229 13076 -829
53157 237206 262055 -9236 13092 -816
53151 237206 262041 -9247 13085 -813
53149 237221 262033 -9270 13070 -804
53153 237236 262041 -9269 13048 -795
53160 237263 262042 -9230 13079 -838
53161 237274 262034 -9208 13045 -835
53164 237272 262002 -9218 13031 -835
53171 237284 261991 -9237 13050 -839
53178 237301 261995 -9237 13052 -848
53181 237258 261905 -9235 13032 -851
53191 237263 261891 -9247 13025 -837
53209 237303 261933 -9250 13024 -848
53217 237209 261828 -9223 12989 -889
53196 236992 261634 -9236 13005 -903
53154 236806 261485 -9297 13079 -873
53103 236696 261421 -9336 13113 -842
53053 236631 261389 -9315 13102 -864
53010 236613 261391 -9262 13062 -887
52978 236632 261410 -9230 13026 -876
52951 236637 261406 -9210 13001 -884
52930 236640 261408 -9194 12997 -909
52910 236615 261364 -9206 13032 -923
52898 236623 261352 -9228 13074 -934
52895 236658 261379 -9256 13094 -943
52893 236630 261329 -9285 13101 -941
52885 236581 261277 -9291 13087 -935
52879 236560 261250 -9293 13072 -899
52866 236527 261220 -9291 13075 -864
52855 236529 261224 -9256 13084 -865
52848 236516 261220 -9222 13089 -865
52841 236556 261259 -9214 13081 -861
52845 236600 261331 -9221 13080 -859
52858 236680 261418 -9225 13080 -848
52870 236765 261511 -9228 13080 -849
52883 236818 261565 -9241 13098 -845
52896 236867 261615 -9237 13095 -818
52912 236924 261683 -9222 13074 -789
52934 236999 261750 -9207 13067 -769
52956 237057 261824 -9188 13059 -760
52974 237092 261854 -9173 13054 -764
52991 237127 261873 -9171 13058 -767
53006 237155 261895 -9187 13082 -769
53031 237201 261944 -9213 13095 -765
53046 237220 261929 -9222 13107 -766
53061 237220 261907 -9221 13146 -789
53089 237273 261991 -9221 13152 -796
53117 237324 262029 -9215 13121 -777
53131 237213 261928 -9186 13063 -790
53124 237062 261806 -9156 13011 -828
53104 236966 261791 -9179 13028 -820
53078 236935 261809 -9220 13065 -771
53051 236918 261830 -9228 13074 -777
53035 236949 261886 -9198 13078 -813
53023 237003 261952 -9182 13085 -815
53014 237045 261990 -9171 13122 -844
53011 237071 262020 -9142 13093 -852
53007 237078 262000 -9145 13105 -835
53004 237109 262028 -9177 13118 -839
53016 237144 262052 -9206 13115 -844
53019 237121 262011 -9223 13096 -855
