Time(s)	GREEN_denoised_wiener
0.000000	-257.017899
0.010000	-345.236486
0.020000	-368.095000
0.030000	-425.574507
0.040000	-505.383940
0.050000	-592.264937
0.060000	-675.379103
0.070000	-744.317483
0.080000	-797.091846
0.090000	-835.408139
0.100000	-864.174857
0.110000	-884.182458
0.120000	-893.946757
0.130000	-895.662178
0.140000	-893.753567
0.150000	-894.509279
0.160000	-897.905446
0.170000	-903.049871
0.180000	-907.081256
0.190000	-907.621255
0.200000	-904.960648
0.210000	-895.879361
0.220000	-879.208815
0.230000	-855.171197
0.240000	-825.491116
0.250000	-790.823528
0.260000	-751.469297
0.270000	-707.839761
0.280000	-663.820696
0.290000	-617.537254
0.300000	-571.213837
0.310000	-523.254801
0.320000	-475.647423
0.330000	-427.327961
0.340000	-377.779891
0.350000	-328.102990
0.360000	-279.276171
0.370000	-231.573603
0.380000	-183.799309
0.390000	-133.739024
0.400000	-81.025162
0.410000	-26.605740
0.420000	20.696303
0.430000	44.475629
0.440000	31.729320
0.450000	-21.449181
0.460000	-104.228382
0.470000	-201.393186
0.480000	-297.550201
0.490000	-382.716694
0.500000	-451.917115
0.510000	-507.090570
0.520000	-551.652825
0.530000	-588.494437
0.540000	-614.737483
0.550000	-632.276225
0.560000	-645.527232
0.570000	-658.087272
0.580000	-672.010934
0.590000	-685.586167
0.600000	-698.864341
0.610000	-709.777433
0.620000	-715.413617
0.630000	-714.671849
0.640000	-707.330132
0.650000	-693.598924
0.660000	-673.276966
0.670000	-646.892758
0.680000	-614.253205
0.690000	-578.226348
0.700000	-538.585585
0.710000	-498.266554
0.720000	-456.940214
0.730000	-415.006592
0.740000	-373.327219
0.750000	-331.106462
0.760000	-288.414257
0.770000	-245.571281
0.780000	-204.536657
0.790000	-162.052566
0.800000	-119.368831
0.810000	-75.892781
0.820000	-32.903399
0.830000	12.581524
0.840000	60.857542
0.850000	110.353664
0.860000	152.569150
0.870000	169.736791
0.880000	146.925054
0.890000	82.459574
0.900000	-7.366378
0.910000	-107.851968
0.920000	-207.362782
0.930000	-297.201391
0.940000	-371.396420
0.950000	-428.593171
0.960000	-472.473496
0.970000	-505.678289
0.980000	-527.571024
0.990000	-540.467558
1.000000	-550.040397
1.010000	-562.955428
1.020000	-579.187176
1.030000	-596.800411
1.040000	-613.695766
1.050000	-629.345205
1.060000	-640.559104
1.070000	-643.917986
1.080000	-639.794698
1.090000	-628.184789
1.100000	-611.398255
1.110000	-588.136497
1.120000	-561.374907
1.130000	-532.444914
1.140000	-501.375739
1.150000	-468.448309
1.160000	-432.734061
1.170000	-396.153530
1.180000	-359.449669
1.190000	-321.881712
1.200000	-283.527743
1.210000	-243.300089
1.220000	-201.970832
1.230000	-159.074816
1.240000	-116.112240
1.250000	-73.205185
1.260000	-29.610537
1.270000	15.305043
1.280000	62.867463
1.290000	109.108622
1.300000	141.630364
1.310000	144.209914
1.320000	107.052634
1.330000	35.661764
1.340000	-54.522433
1.350000	-150.250205
1.360000	-238.455649
1.370000	-314.542920
1.380000	-374.079968
1.390000	-418.208100
1.400000	-448.395512
1.410000	-465.227682
1.420000	-472.409614
1.430000	-474.940636
1.440000	-478.782667
1.450000	-486.667516
1.460000	-499.506671
1.470000	-515.743381
1.480000	-532.582851
1.490000	-544.834721
1.500000	-550.690180
1.510000	-549.283649
1.520000	-540.821918
1.530000	-526.088754
1.540000	-504.637998
1.550000	-476.917157
1.560000	-446.148995
1.570000	-412.424035
1.580000	-377.351022
1.590000	-338.941002
1.600000	-297.579314
1.610000	-254.814014
1.620000	-210.488881
1.630000	-167.380805
1.640000	-125.075172
1.650000	-83.299911
1.660000	-41.345283
1.670000	1.429341
1.680000	45.031653
1.690000	90.142798
1.700000	138.728040
1.710000	189.162556
1.720000	237.400843
1.730000	267.800428
1.740000	263.721105
1.750000	219.452084
1.760000	140.389203
1.770000	42.784449
1.780000	-61.637347
1.790000	-159.226550
1.800000	-240.356704
1.810000	-303.274036
1.820000	-348.430086
1.830000	-381.015609
1.840000	-399.499178
1.850000	-407.117552
1.860000	-410.591542
1.870000	-415.563329
1.880000	-426.694435
1.890000	-442.003841
1.900000	-458.808133
1.910000	-472.785671
1.920000	-481.271947
1.930000	-486.258935
1.940000	-484.399484
1.950000	-476.087266
1.960000	-459.866470
1.970000	-437.936566
1.980000	-411.675193
1.990000	-379.788917
2.000000	-344.837945
2.010000	-305.640826
2.020000	-264.352751
2.030000	-221.497528
2.040000	-177.543058
2.050000	-132.695547
2.060000	-86.072125
2.070000	-37.236255
2.080000	13.722859
2.090000	64.877103
2.100000	117.853680
2.110000	171.308663
2.120000	227.320552
2.130000	285.727676
2.140000	346.113953
2.150000	410.146591
2.160000	471.546659
2.170000	518.545173
2.180000	529.614253
2.190000	495.974069
2.200000	423.384021
2.210000	328.094291
2.220000	223.809578
2.230000	122.539569
2.240000	34.894598
2.250000	-35.036163
2.260000	-87.368100
2.270000	-124.955327
2.280000	-148.961807
2.290000	-161.880197
2.300000	-169.900797
2.310000	-179.139727
2.320000	-193.835899
2.330000	-212.718461
2.340000	-232.766933
2.350000	-250.630091
2.360000	-265.037217
2.370000	-273.204163
2.380000	-273.644059
2.390000	-267.117129
2.400000	-253.915395
2.410000	-235.030854
2.420000	-210.516043
2.430000	-183.284050
2.440000	-153.106062
2.450000	-119.534362
2.460000	-80.689582
2.470000	-38.124583
2.480000	7.398873
2.490000	53.617826
2.500000	101.165656
2.510000	149.360616
2.520000	198.606365
2.530000	248.104667
2.540000	296.049150
2.550000	342.859962
2.560000	389.498833
2.570000	438.625609
2.580000	487.940859
2.590000	538.406454
2.600000	588.382251
2.610000	630.177461
2.620000	644.799648
2.630000	618.302969
2.640000	552.267254
2.650000	457.795788
2.660000	352.093020
2.670000	247.951472
2.680000	158.260948
2.690000	86.423235
2.700000	34.434059
2.710000	-2.113303
2.720000	-26.045634
2.730000	-38.970064
2.740000	-45.523650
2.750000	-49.480883
2.760000	-58.668986
2.770000	-72.624884
2.780000	-91.471643
2.790000	-112.082094
2.800000	-131.262682
2.810000	-146.195326
2.820000	-153.707495
2.830000	-152.969499
2.840000	-143.808375
2.850000	-126.732896
2.860000	-104.569394
2.870000	-78.478580
2.880000	-49.650441
2.890000	-17.204944
2.900000	18.612635
2.910000	57.415765
2.920000	98.890288
2.930000	142.383504
2.940000	185.845643
2.950000	229.038003
2.960000	272.819379
2.970000	318.041428
2.980000	362.467153
2.990000	408.741023
3.000000	455.453462
3.010000	504.466178
3.020000	554.447811
3.030000	603.540260
3.040000	643.775983
3.050000	656.602767
3.060000	630.474450
3.070000	566.384318
3.080000	478.560752
3.090000	381.518349
3.100000	289.665330
3.110000	210.652593
3.120000	152.122189
3.130000	110.775961
3.140000	85.938959
3.150000	73.242085
3.160000	72.787774
3.170000	78.043280
3.180000	81.988742
3.190000	79.871051
3.200000	72.559031
3.210000	61.721761
3.220000	49.150588
3.230000	38.933238
3.240000	32.756872
3.250000	34.505594
3.260000	41.366465
3.270000	57.117949
3.280000	76.640373
3.290000	101.771692
3.300000	130.927350
3.310000	164.453398
3.320000	202.570164
3.330000	242.483195
3.340000	285.581028
3.350000	328.857670
3.360000	373.293105
3.370000	417.248734
3.380000	462.037250
3.390000	507.326088
3.400000	553.808532
3.410000	601.091617
3.420000	648.603986
3.430000	695.882271
3.440000	744.429834
3.450000	795.363682
3.460000	845.937042
3.470000	882.841541
3.480000	888.123760
3.490000	852.368593
3.500000	779.706891
3.510000	684.950986
3.520000	581.980256
3.530000	483.890809
3.540000	398.933342
3.550000	332.850218
3.560000	284.560939
3.570000	250.830397
3.580000	228.883257
3.590000	216.171428
3.600000	209.898553
3.610000	203.195030
3.620000	191.948613
3.630000	175.588981
3.640000	156.032885
3.650000	136.681148
3.660000	121.145302
3.670000	112.131821
3.680000	111.616796
3.690000	117.265159
3.700000	130.125511
3.710000	148.418746
3.720000	171.665901
3.730000	198.598356
3.740000	227.566855
3.750000	260.482773
3.760000	295.820147
3.770000	334.736421
3.780000	375.761496
3.790000	418.020389
3.800000	461.400368
3.810000	506.000442
3.820000	550.731551
3.830000	595.679364
3.840000	639.086715
3.850000	684.067436
3.860000	731.130555
3.870000	780.483898
3.880000	831.869047
3.890000	878.912878
3.900000	906.278940
3.910000	895.696521
3.920000	842.756324
3.930000	757.549434
3.940000	657.282715
3.950000	555.421546
3.960000	462.831450
3.970000	387.648989
3.980000	331.725751
3.990000	291.892132
4.000000	263.645880
4.010000	244.503637
4.020000	234.268430
4.030000	224.789429
4.040000	211.597213
4.050000	192.444099
4.060000	167.629087
4.070000	142.809567
4.080000	118.342467
4.090000	100.554144
4.100000	88.064042
4.110000	83.004379
4.120000	86.478783
4.130000	95.472608
4.140000	112.939198
4.150000	134.951199
4.160000	162.442204
4.170000	192.782555
4.180000	224.978899
4.190000	258.310496
4.200000	291.877579
4.210000	326.873302
4.220000	361.463699
4.230000	395.135459
4.240000	428.749285
4.250000	465.098581
4.260000	505.058555
4.270000	545.746962
4.280000	588.073776
4.290000	633.425476
4.300000	680.443566
4.310000	716.100661
4.320000	719.821289
4.330000	683.171128
4.340000	610.262007
4.350000	517.637541
4.360000	420.728061
4.370000	330.787465
4.380000	257.885764
4.390000	203.943156
4.400000	169.066552
4.410000	146.441147
4.420000	134.623314
4.430000	130.629373
4.440000	130.872796
4.450000	129.171421
4.460000	121.489028
4.470000	108.086033
4.480000	91.472109
4.490000	76.701542
4.500000	65.807370
4.510000	60.342784
4.520000	60.164927
4.530000	65.344802
4.540000	61.175319
4.550000	89.863132
4.560000	150.092738
4.570000	242.747299
4.580000	320.570970
4.590000	378.774366
4.600000	424.441308
4.610000	463.825212
4.620000	499.327017
4.630000	538.248694
4.640000	572.863848
4.650000	543.889523
4.660000	535.486824
4.670000	588.436581
4.680000	752.566693
4.690000	901.558823
4.700000	999.037283
4.710000	1039.491216
4.720000	1035.321908
4.730000	978.391761
4.740000	847.292039
4.750000	733.968907
4.760000	668.037919
4.770000	681.584428
4.780000	683.834302
4.790000	664.444407
4.800000	626.691455
4.810000	590.038683
4.820000	548.835944
4.830000	488.631565
4.840000	453.162833
4.850000	444.131367
4.860000	477.216947
4.870000	490.105575
4.880000	479.454771
4.890000	450.458086
4.900000	418.742556
4.910000	397.157382
4.920000	383.677009
4.930000	378.884470
4.940000	379.955836
4.950000	386.973038
4.960000	398.249734
4.970000	398.376939
4.980000	398.302139
4.990000	411.807834
5.000000	446.356148
5.010000	487.196435
5.020000	520.430963
5.030000	550.988287
5.040000	586.531243
5.050000	621.093736
5.060000	611.212633
5.070000	588.088085
5.080000	587.590412
5.090000	638.746926
5.100000	667.033455
5.110000	626.166061
5.120000	530.993514
5.130000	421.335934
5.140000	318.584817
5.150000	230.148967
5.160000	163.858543
5.170000	117.949947
5.180000	88.473593
5.190000	69.425643
5.200000	59.782374
5.210000	52.230478
5.220000	43.782480
5.230000	28.372663
5.240000	9.153400
5.250000	-13.815122
5.260000	-34.781831
5.270000	-51.668417
5.280000	-61.704224
5.290000	-67.191681
5.300000	-65.603026
5.310000	-58.048251
5.320000	-42.817704
5.330000	-25.248099
5.340000	-4.004954
5.350000	20.221958
5.360000	48.153498
5.370000	77.023964
5.380000	106.326039
5.390000	137.839834
5.400000	171.500791
5.410000	205.992570
5.420000	241.018339
5.430000	276.485557
5.440000	312.542596
5.450000	340.627021
5.460000	344.049957
5.470000	311.120656
5.480000	242.596301
5.490000	153.658383
5.500000	58.811607
5.510000	-29.138054
5.520000	-103.319208
5.530000	-161.276767
5.540000	-204.123623
5.550000	-233.414148
5.560000	-250.592179
5.570000	-256.882357
5.580000	-258.740185
5.590000	-259.340288
5.600000	-264.561332
5.610000	-272.442717
5.620000	-283.388648
5.630000	-294.201905
5.640000	-302.551972
5.650000	-305.961290
5.660000	-301.715551
5.670000	-288.726350
5.680000	-269.223087
5.690000	-246.496134
5.700000	-219.387179
5.710000	-189.609544
5.720000	-153.873562
5.730000	-116.413277
5.740000	-75.346432
5.750000	-33.232786
5.760000	9.850317
5.770000	53.275371
5.780000	93.367584
5.790000	129.453702
5.800000	163.888139
5.810000	197.957115
5.820000	229.059074
5.830000	242.086945
5.840000	222.893116
5.850000	168.240251
5.860000	88.089956
5.870000	-0.928548
5.880000	-86.733077
5.890000	-160.447168
5.900000	-218.244630
5.910000	-258.981436
5.920000	-287.781978
5.930000	-310.860907
5.940000	-331.319946
5.950000	-350.745680
5.960000	-371.536566
5.970000	-396.976262
5.980000	-425.082386
5.990000	-451.544398
6.000000	-473.977727
6.010000	-491.126812
6.020000	-500.882177
6.030000	-503.059575
6.040000	-499.805026
6.050000	-491.666884
6.060000	-478.070655
6.070000	-456.615301
6.080000	-428.358836
6.090000	-396.248882
6.100000	-359.650737
6.110000	-317.896180
6.120000	-274.969474
6.130000	-237.230973
6.140000	-210.969226
6.150000	-192.553309
6.160000	-177.982991
6.170000	-163.224152
6.180000	-148.356893
6.190000	-131.572213
6.200000	-116.093928
6.210000	-115.297701
6.220000	-143.850955
6.230000	-208.351035
6.240000	-295.904692
6.250000	-392.083959
6.260000	-481.305960
6.270000	-556.858847
6.280000	-617.740733
6.290000	-665.659221
6.300000	-704.533177
6.310000	-735.136102
6.320000	-755.336333
6.330000	-767.644630
6.340000	-779.505471
6.350000	-798.840433
6.360000	-822.664142
6.370000	-843.376571
6.380000	-857.854971
6.390000	-868.949151
6.400000	-875.053773
6.410000	-871.533787
6.420000	-854.943046
6.430000	-827.822228
6.440000	-796.196068
6.450000	-762.120762
6.460000	-727.469720
6.470000	-688.759183
6.480000	-645.773748
6.490000	-597.750960
6.500000	-548.110911
6.510000	-500.431603
6.520000	-455.462185
6.530000	-412.797733
6.540000	-369.829503
6.550000	-324.855223
6.560000	-277.556261
6.570000	-228.270255
6.580000	-176.971191
6.590000	-128.053361
6.600000	-93.763717
6.610000	-89.534671
6.620000	-122.556487
6.630000	-182.657937
6.640000	-254.691989
6.650000	-323.136663
6.660000	-380.873818
6.670000	-426.654843
6.680000	-461.418407
6.690000	-490.542050
6.700000	-511.297650
6.710000	-524.128296
6.720000	-526.860108
6.730000	-526.095789
6.740000	-526.106707
6.750000	-530.084258
6.760000	-535.026968
6.770000	-539.768498
6.780000	-538.959860
6.790000	-533.494052
6.800000	-521.910508
6.810000	-505.584996
6.820000	-483.211431
6.830000	-460.720162
6.840000	-441.864090
6.850000	-395.784681
6.860000	-329.311373
6.870000	-243.190297
6.880000	-171.875736
6.890000	-113.854981
6.900000	-64.455964
6.910000	-26.899239
6.920000	11.315739
6.930000	48.660036
6.940000	92.086117
6.950000	137.497660
6.960000	183.171689
6.970000	228.313154
6.980000	266.550580
6.990000	286.089031
7.000000	271.227331
7.010000	220.211782
7.020000	143.579712
7.030000	54.984935
7.040000	-45.129042
7.050000	-132.869055
7.060000	-197.565696
7.070000	-234.430807
7.080000	-266.436902
7.090000	-299.303507
7.100000	-324.293430
7.110000	-338.884998
7.120000	-351.872781
7.130000	-391.210877
7.140000	-411.275162
7.150000	-363.219707
7.160000	-244.830769
7.170000	-123.444723
7.180000	-67.414340
7.190000	-47.760924
7.200000	-45.049312
7.210000	-31.078244
7.220000	-18.822579
7.230000	-24.095235
7.240000	17.933763
7.250000	111.028162
7.260000	253.316065
7.270000	376.945104
7.280000	456.790479
7.290000	512.292529
7.300000	537.837483
7.310000	564.716038
7.320000	580.405523
7.330000	559.411938
7.340000	519.400097
7.350000	509.167983
7.360000	571.018101
7.370000	635.257660
7.380000	644.310583
7.390000	577.422963
7.400000	482.432570
7.410000	375.141341
7.420000	245.123532
7.430000	118.601332
7.440000	39.504027
7.450000	6.243815
7.460000	-16.901783
7.470000	-63.132720
7.480000	-109.847001
7.490000	-147.237129
7.500000	-197.907366
7.510000	-246.262805
7.520000	-279.334520
7.530000	-271.947923
7.540000	-257.615884
7.550000	-253.614855
7.560000	-265.558343
7.570000	-276.245638
7.580000	-280.226301
7.590000	-280.593159
7.600000	-277.913976
7.610000	-273.970711
7.620000	-266.951853
7.630000	-256.044450
7.640000	-242.689405
7.650000	-225.804782
7.660000	-206.459754
7.670000	-182.583412
7.680000	-154.931489
7.690000	-125.057888
7.700000	-94.430003
7.710000	-63.891029
7.720000	-30.946424
7.730000	5.244184
7.740000	42.167480
7.750000	66.990564
7.760000	64.246967
7.770000	24.058414
7.780000	-49.662908
7.790000	-141.536170
7.800000	-237.603988
7.810000	-324.827266
7.820000	-400.601076
7.830000	-463.816511
7.840000	-519.977055
7.850000	-568.148828
7.860000	-607.380424
7.870000	-636.508012
7.880000	-658.154989
7.890000	-677.902791
7.900000	-694.939469
7.910000	-714.006963
7.920000	-732.397622
7.930000	-749.477624
7.940000	-760.538696
7.950000	-764.652761
7.960000	-762.043672
7.970000	-751.183798
7.980000	-735.255597
7.990000	-715.068960
8.000000	-691.160705
8.010000	-663.646854
8.020000	-633.762723
8.030000	-602.919011
8.040000	-572.725678
8.050000	-542.879573
8.060000	-515.722825
8.070000	-489.522465
8.080000	-463.081560
8.090000	-433.855026
8.100000	-398.464632
8.110000	-360.901037
8.120000	-319.191115
8.130000	-274.649112
8.140000	-225.268088
8.150000	-174.438198
8.160000	-133.058445
8.170000	-115.596416
8.180000	-135.872927
8.190000	-193.742078
8.200000	-275.676362
8.210000	-367.578449
8.220000	-454.837224
8.230000	-529.458396
8.240000	-589.707246
8.250000	-637.373215
8.260000	-680.954106
8.270000	-717.615209
8.280000	-744.893503
8.290000	-762.220466
8.300000	-773.870802
8.310000	-785.520707
8.320000	-798.527237
8.330000	-811.838524
8.340000	-824.875683
8.350000	-835.843560
8.360000	-841.577439
8.370000	-840.877571
8.380000	-831.633438
8.390000	-816.614892
8.400000	-797.710079
8.410000	-774.702648
8.420000	-746.807853
8.430000	-713.814482
8.440000	-677.600337
8.450000	-640.282411
8.460000	-601.407661
8.470000	-560.772714
8.480000	-516.899626
8.490000	-471.292466
8.500000	-424.744007
8.510000	-379.503696
8.520000	-335.602881
8.530000	-291.397346
8.540000	-245.148283
8.550000	-195.311419
8.560000	-142.385616
8.570000	-87.580190
8.580000	-32.643605
8.590000	15.451088
8.600000	41.390136
8.610000	29.797072
8.620000	-21.892481
8.630000	-100.498341
8.640000	-185.840271
8.650000	-267.170485
8.660000	-337.816504
8.670000	-395.872731
8.680000	-441.816046
8.690000	-476.258532
8.700000	-502.171669
8.710000	-517.981199
8.720000	-528.226515
8.730000	-536.383116
8.740000	-546.297625
8.750000	-558.123204
8.760000	-570.044710
8.770000	-579.876718
8.780000	-587.478247
8.790000	-589.969937
8.800000	-585.595145
8.810000	-573.412054
8.820000	-556.068272
8.830000	-535.865966
8.840000	-510.875559
8.850000	-482.674997
8.860000	-451.357283
8.870000	-418.165394
8.880000	-381.509125
8.890000	-343.343117
8.900000	-302.663450
8.910000	-261.205322
8.920000	-218.488330
8.930000	-175.748561
8.940000	-133.988565
8.950000	-89.955787
8.960000	-45.177278
8.970000	1.836916
8.980000	48.280844
8.990000	96.302185
9.000000	146.059457
9.010000	198.094787
9.020000	249.488500
9.030000	287.520734
9.040000	296.235908
9.050000	264.621165
9.060000	197.688557
9.070000	110.410497
9.080000	18.471691
9.090000	-66.148169
9.100000	-137.432394
9.110000	-193.722665
9.120000	-238.019486
9.130000	-271.294818
9.140000	-293.941231
9.150000	-306.536739
9.160000	-313.876831
9.170000	-322.786184
9.180000	-336.136535
9.190000	-354.029321
9.200000	-373.388484
9.210000	-391.607724
9.220000	-405.973783
9.230000	-413.518738
9.240000	-412.896509
9.250000	-404.767896
9.260000	-392.158020
9.270000	-375.341447
9.280000	-354.083065
9.290000	-327.243765
9.300000	-296.680571
9.310000	-263.808748
9.320000	-229.272814
9.330000	-193.369272
9.340000	-154.188470
9.350000	-113.936879
9.360000	-72.092046
9.370000	-30.506060
9.380000	12.686567
9.390000	56.255265
9.400000	100.475356
9.410000	146.358349
9.420000	195.271891
9.430000	246.796991
9.440000	298.737706
9.450000	342.893663
9.460000	363.524360
9.470000	347.673220
9.480000	293.684313
9.490000	214.836411
9.500000	126.526383
9.510000	41.669436
9.520000	-30.631686
9.530000	-87.169719
9.540000	-127.787105
9.550000	-157.344615
9.560000	-176.920411
9.570000	-185.835949
9.580000	-187.719793
9.590000	-189.323086
9.600000	-196.503597
9.610000	-207.108077
9.620000	-219.274368
9.630000	-230.209658
9.640000	-239.370107
9.650000	-241.282799
9.660000	-236.801292
9.670000	-225.670605
9.680000	-211.560606
9.690000	-192.025264
9.700000	-166.976347
9.710000	-137.365698
9.720000	-105.043773
9.730000	-70.016582
9.740000	-32.426720
9.750000	7.684706
9.760000	49.540575
9.770000	93.073911
9.780000	138.528394
9.790000	184.812825
9.800000	232.207058
9.810000	278.900111
9.820000	325.914653
9.830000	373.005430
9.840000	421.314607
9.850000	471.799151
9.860000	524.401043
9.870000	577.611849
9.880000	626.835649
9.890000	654.746586
9.900000	648.306047
9.910000	598.249381
9.920000	518.531587
9.930000	422.442053
9.940000	326.457919
9.950000	240.977060
9.960000	171.396542
9.970000	118.525819
9.980000	77.680084
9.990000	47.109637
10.000000	25.993495
10.010000	14.724429
10.020000	7.317350
10.030000	-2.299403
10.040000	-16.988045
10.050000	-33.276917
10.060000	-48.600020
10.070000	-62.564170
10.080000	-72.843470
10.090000	-77.488921
10.100000	-74.389284
10.110000	-64.725200
10.120000	-50.238803
10.130000	-30.590938
10.140000	-7.729457
10.150000	19.249962
10.160000	48.471381
10.170000	81.466339
10.180000	117.031148
10.190000	155.720977
10.200000	196.954880
10.210000	239.006544
10.220000	281.583614
10.230000	323.658140
10.240000	367.255768
10.250000	411.336666
10.260000	455.966623
10.270000	502.387732
10.280000	549.707901
10.290000	599.147860
10.300000	651.150605
10.310000	703.939085
10.320000	747.608477
10.330000	763.076220
10.340000	740.128780
10.350000	679.949679
10.360000	596.054922
10.370000	503.198780
10.380000	413.345913
10.390000	336.481890
10.400000	276.660319
10.410000	234.796348
10.420000	205.999005
10.430000	188.158929
10.440000	179.044761
10.450000	175.225876
10.460000	171.125869
10.470000	162.671782
10.480000	151.263756
10.490000	139.162046
10.500000	128.109133
10.510000	119.360131
10.520000	115.333777
10.530000	116.930363
10.540000	125.268919
10.550000	139.538768
10.560000	159.248654
10.570000	184.191915
10.580000	214.607147
10.590000	249.552930
10.600000	287.675857
10.610000	327.959790
10.620000	369.122325
10.630000	412.753264
10.640000	457.940880
10.650000	504.594848
10.660000	551.134758
10.670000	595.815622
10.680000	641.053260
10.690000	686.074383
10.700000	732.023993
10.710000	779.044230
10.720000	827.041458
10.730000	877.064798
10.740000	927.432534
10.750000	975.129673
10.760000	1007.511986
10.770000	1007.564214
10.780000	967.665754
10.790000	894.419836
10.800000	804.897114
10.810000	714.653630
10.820000	633.495164
10.830000	569.264663
10.840000	521.453046
10.850000	488.923548
10.860000	468.789163
10.870000	459.302067
10.880000	458.508013
10.890000	459.383421
10.900000	457.283611
10.910000	448.517727
10.920000	434.122641
10.930000	417.375413
10.940000	401.679355
10.950000	390.283453
10.960000	384.281031
10.970000	385.578044
10.980000	393.593630
10.990000	407.924306
11.000000	427.956931
11.010000	452.988357
11.020000	481.703345
11.030000	514.107585
11.040000	548.830946
11.050000	587.620421
11.060000	627.998737
11.070000	670.192552
11.080000	714.217888
11.090000	759.147430
11.100000	804.824557
11.110000	848.814846
11.120000	894.165129
11.130000	939.856658
11.140000	986.896873
11.150000	1034.278582
11.160000	1083.688359
11.170000	1130.736185
11.180000	1161.506069
11.190000	1159.906883
11.200000	1118.399677
11.210000	1044.838932
11.220000	954.365695
11.230000	861.822544
11.240000	778.373971
11.250000	712.183580
11.260000	664.749574
11.270000	633.585936
11.280000	615.843066
11.290000	610.378487
11.300000	613.983003
11.310000	620.882728
11.320000	622.500584
11.330000	616.790187
11.340000	605.413565
11.350000	591.754186
11.360000	580.047289
11.370000	571.762248
11.380000	568.733595
11.390000	572.153372
11.400000	582.469262
11.410000	597.923084
11.420000	617.926025
11.430000	642.412017
11.440000	671.768382
11.450000	702.942410
11.460000	735.000690
11.470000	769.196157
11.480000	807.284944
11.490000	847.824892
11.500000	890.622937
11.510000	934.166846
11.520000	977.345403
11.530000	1021.231357
11.540000	1065.446958
11.550000	1111.015968
11.560000	1155.588670
11.570000	1200.860942
11.580000	1248.780147
11.590000	1295.071049
11.600000	1324.323072
11.610000	1318.656208
11.620000	1271.946580
11.630000	1192.328606
11.640000	1094.970595
11.650000	994.714398
11.660000	903.701245
11.670000	829.468016
11.680000	773.127806
11.690000	731.924306
11.700000	703.267860
11.710000	685.094808
11.720000	675.454053
11.730000	669.970873
11.740000	663.015405
11.750000	650.563001
11.760000	631.964058
11.770000	610.209534
11.780000	587.287398
11.790000	567.238846
11.800000	554.321501
11.810000	549.970266
11.820000	552.389613
11.830000	559.409890
11.840000	573.512746
11.850000	594.885135
11.860000	622.006119
11.870000	652.064772
11.880000	684.546734
11.890000	718.617459
11.900000	755.132246
11.910000	793.539526
11.920000	832.755857
11.930000	871.166004
11.940000	909.424547
11.950000	948.164235
11.960000	987.797407
11.970000	1027.864470
11.980000	1068.542701
11.990000	1111.271802
12.000000	1153.981590
12.010000	1191.038849
12.020000	1203.085207
12.030000	1175.855226
12.040000	1106.922928
12.050000	1009.415478
12.060000	900.806641
12.070000	796.002287
12.080000	706.046239
12.090000	634.935778
12.100000	581.971847
12.110000	541.554252
12.120000	512.942109
12.130000	494.200280
12.140000	484.278492
12.150000	475.858971
12.160000	461.644327
12.170000	440.563674
12.180000	414.713950
12.190000	387.967850
12.200000	363.809941
12.210000	344.395311
12.220000	331.264014
12.230000	325.179911
12.240000	326.408818
12.250000	334.988811
12.260000	348.905738
12.270000	367.491984
12.280000	388.755750
12.290000	413.024409
12.300000	438.622626
12.310000	466.251875
12.320000	494.170784
12.330000	523.173771
12.340000	553.069840
12.350000	583.782390
12.360000	615.321676
12.370000	648.077388
12.380000	682.926313
12.390000	718.717736
12.400000	755.551421
12.410000	781.341097
12.420000	780.181967
12.430000	738.319060
12.440000	661.213421
12.450000	564.338748
12.460000	464.595777
12.470000	373.690572
12.480000	299.312921
12.490000	244.040253
12.500000	204.692228
12.510000	178.067262
12.520000	162.084741
12.530000	157.444775
12.540000	157.465918
12.550000	155.497382
12.560000	144.854747
12.570000	129.252363
12.580000	110.244192
12.590000	92.689036
12.600000	79.968260
12.610000	73.124032
12.620000	75.369101
12.630000	84.213574
12.640000	100.782812
12.650000	121.291966
12.660000	145.875687
12.670000	174.036416
12.680000	206.973745
12.690000	242.772226
12.700000	282.746651
12.710000	324.830783
12.720000	366.850684
12.730000	408.224524
12.740000	449.621683
12.750000	492.951251
12.760000	536.712279
12.770000	580.676480
12.780000	626.134763
12.790000	668.378986
12.800000	689.848401
12.810000	673.074231
12.820000	611.918340
12.830000	519.814435
12.840000	414.657755
12.850000	311.202583
12.860000	219.707405
12.870000	145.231709
12.880000	87.396717
12.890000	44.243768
12.900000	12.402094
12.910000	-7.747922
12.920000	-19.617658
12.930000	-28.760873
12.940000	-43.327246
12.950000	-63.769387
12.960000	-87.713102
12.970000	-110.456201
12.980000	-131.128171
12.990000	-146.489190
13.000000	-154.232481
13.010000	-155.552466
13.020000	-149.686076
13.030000	-137.308346
13.040000	-117.825497
13.050000	-93.428508
13.060000	-65.987993
13.070000	-36.571073
13.080000	-4.504306
13.090000	30.592975
13.100000	68.283899
13.110000	105.723183
13.120000	142.049675
13.130000	177.828778
13.140000	214.120959
13.150000	251.570055
13.160000	291.496938
13.170000	333.943328
13.180000	377.503793
13.190000	408.583981
13.200000	408.129177
13.210000	361.536387
13.220000	272.102584
13.230000	158.161616
13.240000	38.040155
13.250000	-74.595780
13.260000	-174.415669
13.270000	-258.397358
13.280000	-328.256354
13.290000	-386.573838
13.300000	-435.134715
13.310000	-474.788280
13.320000	-506.721872
13.330000	-537.058144
13.340000	-568.675981
13.350000	-602.699711
13.360000	-635.995573
13.370000	-667.391160
13.380000	-695.025084
13.390000	-717.797157
13.400000	-732.094122
13.410000	-738.595342
13.420000	-737.542991
13.430000	-730.779582
13.440000	-718.703508
13.450000	-699.674454
13.460000	-676.259092
13.470000	-648.613494
13.480000	-619.874255
13.490000	-588.591932
13.500000	-555.882388
13.510000	-522.622897
13.520000	-488.607986
13.530000	-454.376932
13.540000	-418.048541
13.550000	-379.858968
13.560000	-338.541063
13.570000	-294.067745
13.580000	-248.095450
13.590000	-205.676994
13.600000	-185.077837
13.610000	-204.344586
13.620000	-269.419821
13.630000	-369.024949
13.640000	-484.468745
13.650000	-598.771205
13.660000	-700.929168
13.670000	-785.595301
13.680000	-855.808815
13.690000	-914.816703
13.700000	-964.415089
13.710000	-1004.764761
13.720000	-1034.415281
13.730000	-1058.797255
13.740000	-1082.144910
13.750000	-1108.896877
13.760000	-1138.260576
13.770000	-1165.386261
13.780000	-1188.118373
13.790000	-1203.608958
13.800000	-1211.719303
13.810000	-1211.231521
13.820000	-1202.059969
13.830000	-1188.269229
13.840000	-1170.796239
13.850000	-1150.043439
13.860000	-1125.267764
13.870000	-1095.890259
13.880000	-1064.152950
13.890000	-1030.805972
13.900000	-996.778689
13.910000	-960.455154
13.920000	-921.816332
13.930000	-884.856595
13.940000	-849.918896
13.950000	-817.333323
13.960000	-783.085216
13.970000	-746.227865
13.980000	-705.326608
13.990000	-660.202620
14.000000	-613.987538
14.010000	-577.943829
14.020000	-571.415126
14.030000	-605.406936
14.040000	-674.542850
14.050000	-762.919922
14.060000	-854.081502
14.070000	-935.523200
14.080000	-999.045062
14.090000	-1042.890905
14.100000	-1073.444680
14.110000	-1095.000199
14.120000	-1105.574680
14.130000	-1106.867516
14.140000	-1106.469047
14.150000	-1115.492966
14.160000	-1130.739489
14.170000	-1142.850482
14.180000	-1147.439484
14.190000	-1144.302292
14.200000	-1146.592543
14.210000	-1150.123081
14.220000	-1150.495184
14.230000	-1141.689796
14.240000	-1125.503208
14.250000	-1112.698593
14.260000	-1104.235285
14.270000	-1099.788361
14.280000	-1090.027307
14.290000	-1067.300927
14.300000	-1038.277008
14.310000	-1011.236434
14.320000	-986.924676
14.330000	-962.581121
14.340000	-937.329803
14.350000	-912.684788
14.360000	-886.477358
14.370000	-856.206876
14.380000	-824.057229
14.390000	-796.159364
14.400000	-774.044129
14.410000	-755.521397
14.420000	-742.796295
14.430000	-749.000056
14.440000	-794.321212
14.450000	-885.194389
14.460000	-1011.220086
14.470000	-1150.109664
14.480000	-1284.218712
14.490000	-1410.485379
14.500000	-1524.968694
14.510000	-1630.299626
14.520000	-1729.807780
14.530000	-1827.870628
14.540000	-1920.043193
14.550000	-1999.856635
14.560000	-2068.720802
14.570000	-2126.592521
14.580000	-2166.466462
14.590000	-2182.752758
14.600000	-2176.985426
14.610000	-2153.006334
14.620000	-2111.917116
14.630000	-2051.671418
14.640000	-1977.288252
14.650000	-1893.087834
14.660000	-1805.083822
14.670000	-1714.911858
14.680000	-1621.959355
14.690000	-1529.164935
14.700000	-1437.582162
14.710000	-1349.841268
14.720000	-1262.941558
14.730000	-1176.276019
14.740000	-1090.723326
14.750000	-1008.131496
14.760000	-925.910734
14.770000	-843.744136
14.780000	-762.184536
14.790000	-681.105328
14.800000	-599.873773
14.810000	-520.557165
14.820000	-461.356952
14.830000	-437.416625
14.840000	-458.908892
14.850000	-511.958838
14.860000	-579.534014
14.870000	-646.588077
14.880000	-703.588897
14.890000	-748.986899
14.900000	-781.391581
14.910000	-804.480037
14.920000	-818.598544
14.930000	-821.713089
14.940000	-816.230508
14.950000	-806.363587
14.960000	-797.611500
14.970000	-790.412016
14.980000	-783.733288
14.990000	-776.204006
15.000000	-766.599628
15.010000	-752.737164
15.020000	-733.211552
15.030000	-707.683003
15.040000	-677.236782
15.050000	-644.040841
15.060000	-608.332028
15.070000	-569.136964
15.080000	-525.501890
15.090000	-480.986330
15.100000	-434.399163
15.110000	-387.584098
15.120000	-338.024133
15.130000	-288.936894
15.140000	-239.710798
15.150000	-190.697480
15.160000	-141.132471
15.170000	-89.861333
15.180000	-35.958706
15.190000	20.568729
15.200000	78.475203
15.210000	128.908522
15.220000	155.151874
15.230000	144.189916
15.240000	94.124253
15.250000	20.451332
15.260000	-60.969721
15.270000	-135.691409
15.280000	-198.488903
15.290000	-246.907897
15.300000	-283.420682
15.310000	-310.857362
15.320000	-329.410136
15.330000	-337.867483
15.340000	-338.807431
15.350000	-338.284171
15.360000	-340.262258
15.370000	-343.750100
15.380000	-347.445332
15.390000	-350.278682
15.400000	-348.683136
15.410000	-341.876075
15.420000	-328.647167
15.430000	-309.538587
15.440000	-284.335659
15.450000	-254.598746
15.460000	-222.752192
15.470000	-188.376325
15.480000	-151.227334
15.490000	-110.877750
15.500000	-68.096337
15.510000	-23.101128
15.520000	22.975795
15.530000	69.621282
15.540000	115.657300
15.550000	161.626730
15.560000	207.282055
15.570000	253.581352
15.580000	300.517130
15.590000	348.818076
15.600000	398.363725
15.610000	449.670840
15.620000	501.152600
15.630000	542.782245
15.640000	557.872099
15.650000	532.851558
15.660000	470.252261
15.670000	385.239092
15.680000	296.258709
15.690000	214.557872
15.700000	144.865354
15.710000	88.820007
15.720000	46.753995
15.730000	15.358132
15.740000	-5.395288
15.750000	-16.486220
15.760000	-20.595363
15.770000	-24.052979
15.780000	-32.171286
15.790000	-43.980721
15.800000	-58.123973
15.810000	-71.280493
15.820000	-79.451814
15.830000	-81.966010
15.840000	-76.818862
15.850000	-65.704142
15.860000	-49.224964
15.870000	-28.151038
15.880000	-4.676208
15.890000	21.701985
15.900000	51.164589
15.910000	83.513968
15.920000	118.966935
15.930000	155.948517
15.940000	194.067095
15.950000	234.348597
15.960000	275.456143
15.970000	317.715696
15.980000	357.463757
15.990000	397.062605
16.000000	437.765318
16.010000	480.038079
16.020000	523.027712
16.030000	566.647173
16.040000	611.590826
16.050000	654.209967
16.060000	681.761640
16.070000	678.063038
16.080000	635.923920
16.090000	561.252558
16.100000	472.421275
16.110000	381.726596
16.120000	300.551019
16.130000	232.481145
16.140000	178.642949
16.150000	137.865350
16.160000	108.369528
16.170000	88.887627
16.180000	76.060715
16.190000	66.547319
16.200000	54.048159
16.210000	36.523439
16.220000	14.681563
16.230000	-6.182418
16.240000	-24.723444
16.250000	-39.916369
16.260000	-49.485216
16.270000	-51.009777
16.280000	-45.616235
16.290000	-34.462431
16.300000	-17.770161
16.310000	5.730549
16.320000	35.044911
16.330000	68.564077
16.340000	106.173336
16.350000	146.370057
16.360000	189.617104
16.370000	234.146868
16.380000	279.040508
16.390000	322.565762
16.400000	365.782908
16.410000	410.297822
16.420000	456.834894
16.430000	506.008591
16.440000	555.524906
16.450000	605.706225
16.460000	641.485990
16.470000	656.407840
16.480000	637.075334
16.490000	575.438445
16.500000	475.345310
16.510000	344.795380
16.520000	219.339527
16.530000	109.398834
16.540000	22.976276
16.550000	-49.396223
16.560000	-111.053689
16.570000	-162.533522
16.580000	-206.773206
16.590000	-245.349746
16.600000	-280.844509
16.610000	-313.174041
16.620000	-339.590246
16.630000	-360.020466
16.640000	-381.035370
16.650000	-403.197887
16.660000	-424.152998
16.670000	-434.703387
16.680000	-440.324147
16.690000	-445.218295
16.700000	-450.833641
16.710000	-455.737547
16.720000	-457.686168
16.730000	-463.626974
16.740000	-472.193792
16.750000	-478.851960
16.760000	-481.385039
16.770000	-475.748839
16.780000	-468.281371
16.790000	-461.310927
16.800000	-458.189718
16.810000	-461.212294
16.820000	-473.442004
16.830000	-494.445524
16.840000	-515.011286
16.850000	-535.044534
16.860000	-566.955283
16.870000	-621.646069
16.880000	-696.535203
16.890000	-780.563567
16.900000	-864.124642
16.910000	-934.143347
16.920000	-983.067335
16.930000	-1010.747815
16.940000	-1020.690682
16.950000	-1017.024202
16.960000	-1000.641604
16.970000	-973.974184
16.980000	-942.603455
16.990000	-911.591248
17.000000	-884.562764
17.010000	-859.861430
17.020000	-835.855981
17.030000	-811.466507
17.040000	-784.144751
17.050000	-751.404206
17.060000	-713.105280
17.070000	-670.343465
17.080000	-622.391821
17.090000	-570.953263
17.100000	-514.666655
17.110000	-456.237110
17.120000	-394.593499
17.130000	-334.532285
17.140000	-274.497605
17.150000	-213.155607
17.160000	-150.064522
17.170000	-86.443339
17.180000	-25.964181
17.190000	34.963383
17.200000	97.471095
17.210000	158.032848
17.220000	202.553390
17.230000	213.770174
17.240000	184.005752
17.250000	121.562307
17.260000	42.156571
17.270000	-39.302511
17.280000	-113.696070
17.290000	-173.492070
17.300000	-215.881559
17.310000	-242.680365
17.320000	-258.393291
17.330000	-262.172304
17.340000	-256.231266
17.350000	-244.987617
17.360000	-237.398516
17.370000	-234.764855
17.380000	-237.211639
17.390000	-239.509304
17.400000	-241.687268
17.410000	-240.893377
17.420000	-233.140127
17.430000	-217.933534
17.440000	-195.908714
17.450000	-171.295664
17.460000	-142.639925
17.470000	-110.641416
17.480000	-75.680764
17.490000	-39.300330
17.500000	0.980007
17.510000	43.386837
17.520000	88.004177
17.530000	133.428750
17.540000	180.727833
17.550000	229.493178
17.560000	279.479035
17.570000	330.919890
17.580000	377.239693
17.590000	400.677906
17.600000	386.705110
17.610000	333.500570
17.620000	254.910487
17.630000	168.363857
17.640000	87.470008
17.650000	22.249104
17.660000	-23.622228
17.670000	-51.847579
17.680000	-68.693636
17.690000	-75.229443
17.700000	-71.728468
17.710000	-62.921980
17.720000	-55.399650
17.730000	-52.569841
17.740000	-53.021140
17.750000	-54.511785
17.760000	-56.610115
17.770000	-54.403417
17.780000	-47.506336
17.790000	-34.586743
17.800000	-15.700144
17.810000	7.599226
17.820000	35.150472
17.830000	67.160654
17.840000	104.043287
17.850000	144.760246
17.860000	187.977962
17.870000	233.071639
17.880000	279.623576
17.890000	325.756577
17.900000	372.321416
17.910000	418.482127
17.920000	465.738093
17.930000	514.250265
17.940000	565.538604
17.950000	620.397013
17.960000	665.347687
17.970000	681.243121
17.980000	654.554292
17.990000	587.515101
18.000000	498.521683
18.010000	402.828661
18.020000	316.876349
18.030000	246.831829
18.040000	195.941287
18.050000	160.869016
18.060000	137.723930
18.070000	127.305449
18.080000	125.880952
18.090000	125.450785
18.100000	115.418596
18.110000	96.014072
18.120000	71.689848
18.130000	44.626923
18.140000	17.685897
18.150000	-5.367684
18.160000	-20.927977
18.170000	-28.646930
18.180000	-29.821601
18.190000	-24.530936
18.200000	-14.326918
18.210000	1.316911
18.220000	21.223023
18.230000	44.225188
18.240000	69.835686
18.250000	99.199267
18.260000	131.504754
18.270000	167.239147
18.280000	203.560707
18.290000	244.026419
18.300000	288.670593
18.310000	335.204708
18.320000	374.158603
18.330000	387.424241
18.340000	365.067815
18.350000	306.735952
18.360000	229.090070
18.370000	146.775545
18.380000	73.844556
18.390000	16.862209
18.400000	-21.343147
18.410000	-42.996496
18.420000	-51.799290
18.430000	-48.444215
18.440000	-39.200925
18.450000	-27.480485
18.460000	-21.545179
18.470000	-22.425750
18.480000	-28.477169
18.490000	-37.296913
18.500000	-43.996537
18.510000	-47.438811
18.520000	-43.434179
18.530000	-33.522664
18.540000	-18.796369
18.550000	-0.198110
18.560000	23.589420
18.570000	51.528856
18.580000	81.715480
18.590000	113.669496
18.600000	147.252680
18.610000	184.894497
18.620000	223.184922
18.630000	262.875782
18.640000	303.860096
18.650000	348.609877
18.660000	391.592779
18.670000	415.391254
18.680000	403.073821
18.690000	348.616707
18.700000	265.690163
18.710000	170.597693
18.720000	79.053607
18.730000	-0.358433
18.740000	-61.506791
18.750000	-105.250450
18.760000	-134.321942
18.770000	-149.385976
18.780000	-152.723635
18.790000	-150.112789
18.800000	-148.710379
18.810000	-151.742982
18.820000	-159.937343
18.830000	-170.944725
18.840000	-183.079032
18.850000	-192.051800
18.860000	-195.805571
18.870000	-194.075427
18.880000	-186.777138
18.890000	-175.013082
18.900000	-156.650157
18.910000	-132.201243
18.920000	-103.436101
18.930000	-70.961918
18.940000	-38.138210
18.950000	-1.946578
18.960000	35.905636
18.970000	77.170968
18.980000	119.030063
18.990000	161.723827
19.000000	206.919083
19.010000	255.034369
19.020000	297.879337
19.030000	317.413166
19.040000	298.610280
19.050000	237.919650
19.060000	150.823430
19.070000	53.525138
19.080000	-37.197730
19.090000	-112.459847
19.100000	-168.802166
19.110000	-207.692982
19.120000	-234.317672
19.130000	-249.815440
19.140000	-255.065808
19.150000	-255.516694
19.160000	-254.707855
19.170000	-257.453504
19.180000	-263.902046
19.190000	-272.617153
19.200000	-280.321937
19.210000	-283.009115
19.220000	-279.980798
19.230000	-270.965020
19.240000	-255.534899
19.250000	-234.486171
19.260000	-208.650540
19.270000	-177.230509
19.280000	-141.666208
19.290000	-102.198316
19.300000	-60.579007
19.310000	-18.057270
19.320000	23.948987
19.330000	66.532381
19.340000	110.251009
19.350000	155.564376
19.360000	201.325017
19.370000	250.049954
19.380000	301.167846
19.390000	353.979600
19.400000	402.775110
19.410000	429.654411
19.420000	418.165440
19.430000	362.471240
19.440000	279.063733
19.450000	186.072973
19.460000	97.732162
19.470000	21.771449
19.480000	-36.825250
19.490000	-76.423809
19.500000	-100.948698
19.510000	-113.500477
19.520000	-116.286269
19.530000	-112.128312
19.540000	-108.184793
19.550000	-110.301153
19.560000	-117.613066
19.570000	-126.681333
19.580000	-135.592841
19.590000	-140.937608
19.600000	-140.455545
19.610000	-132.742234
19.620000	-119.204865
19.630000	-99.420289
19.640000	-75.171596
19.650000	-48.309438
19.660000	-19.010864
19.670000	14.597016
19.680000	53.604802
19.690000	95.283838
19.700000	138.683316
19.710000	182.762153
19.720000	228.893978
19.730000	275.023672
19.740000	320.902662
19.750000	367.080882
19.760000	413.704170
19.770000	461.601002
19.780000	509.962646
19.790000	561.258687
19.800000	615.677177
19.810000	666.359761
19.820000	696.494198
19.830000	690.260472
19.840000	644.810837
19.850000	570.328036
19.860000	482.607693
19.870000	396.524937
19.880000	325.532904
19.890000	274.163322
19.900000	239.236646
19.910000	215.262124
19.920000	201.420371
19.930000	198.833797
19.940000	203.056722
19.950000	206.866143
19.960000	206.170356
19.970000	200.377163
19.980000	192.429808
19.990000	183.018478
20.000000	175.834362
20.010000	173.794903
20.020000	178.706805
20.030000	193.378726
20.040000	215.035597
20.050000	241.436069
20.060000	269.835430
20.070000	300.641528
20.080000	336.113503
20.090000	373.306214
20.100000	412.875349
20.110000	454.108050
20.120000	498.116809
20.130000	543.377601
20.140000	587.832110
20.150000	632.464499
20.160000	676.351509
20.170000	721.368763
20.180000	765.336453
20.190000	812.099927
20.200000	861.120036
20.210000	913.647012
20.220000	962.358065
20.230000	990.646906
20.240000	983.412175
20.250000	936.489089
20.260000	862.658711
20.270000	779.490596
20.280000	702.713314
20.290000	641.955420
20.300000	599.895841
20.310000	571.880719
20.320000	555.565593
20.330000	550.960296
20.340000	558.718517
20.350000	571.165323
20.360000	581.689607
20.370000	585.189989
20.380000	583.495469
20.390000	578.363771
20.400000	571.116349
20.410000	568.368543
20.420000	571.205386
20.430000	582.194294
20.440000	597.427102
20.450000	617.850731
20.460000	643.129528
20.470000	672.657536
20.480000	706.317951
20.490000	741.943568
20.500000	781.669917
20.510000	823.369813
20.520000	868.851469
20.530000	915.937408
20.540000	963.187526
20.550000	1008.990520
20.560000	1052.678999
20.570000	1097.875069
20.580000	1143.644437
20.590000	1192.255043
20.600000	1241.751717
20.610000	1292.795782
20.620000	1335.650813
20.630000	1353.470823
20.640000	1334.384181
20.650000	1277.998107
20.660000	1199.313978
20.670000	1114.349085
20.680000	1037.393347
20.690000	976.838253
20.700000	933.940912
20.710000	905.469610
20.720000	889.647045
20.730000	884.588627
20.740000	888.842363
20.750000	895.514064
20.760000	899.530748
20.770000	897.264896
20.780000	888.048708
20.790000	876.852674
20.800000	865.379160
20.810000	859.607003
20.820000	858.511849
20.830000	864.859874
20.840000	878.792112
20.850000	898.595754
20.860000	925.234469
20.870000	955.140568
20.880000	988.508506
20.890000	1021.829852
20.900000	1057.620349
20.910000	1094.329174
20.920000	1132.559256
20.930000	1171.311847
20.940000	1211.992444
20.950000	1254.110243
20.960000	1296.578172
20.970000	1339.399049
20.980000	1381.648670
20.990000	1424.848445
21.000000	1469.536888
21.010000	1518.123273
21.020000	1567.563619
21.030000	1603.854678
21.040000	1608.397585
21.050000	1570.761545
21.060000	1494.756851
21.070000	1396.855857
21.080000	1290.259607
21.090000	1191.444771
21.100000	1109.895217
21.110000	1047.163742
21.120000	1000.671092
21.130000	962.686611
21.140000	936.294477
21.150000	919.011748
21.160000	907.064956
21.170000	893.812722
21.180000	873.655077
21.190000	850.456202
21.200000	824.384617
21.210000	801.933006
21.220000	783.914225
21.230000	774.902183
21.240000	775.247313
21.250000	785.352950
21.260000	802.720234
21.270000	824.282985
21.280000	849.346846
21.290000	876.357514
21.300000	906.794988
21.310000	939.236935
21.320000	975.063354
21.330000	1012.586782
21.340000	1051.814877
21.350000	1092.413837
21.360000	1133.041415
21.370000	1173.387812
21.380000	1212.743899
21.390000	1251.508157
21.400000	1292.261983
21.410000	1336.768797
21.420000	1384.582805
21.430000	1435.505174
21.440000	1483.361853
21.450000	1513.358750
21.460000	1503.260900
21.470000	1444.055298
21.480000	1345.684877
21.490000	1228.920652
21.500000	1110.235641
21.510000	1001.578354
21.520000	910.913080
21.530000	840.022866
21.540000	786.047716
21.550000	742.928029
21.560000	711.002182
21.570000	689.966500
21.580000	676.750262
21.590000	662.456320
21.600000	644.315322
21.610000	622.754531
21.620000	602.023284
21.630000	585.181334
21.640000	575.195633
21.650000	574.738080
21.660000	581.484457
21.670000	595.096586
21.680000	614.567183
21.690000	639.585508
21.700000	669.109165
21.710000	700.530823
21.720000	734.453408
21.730000	770.599913
21.740000	809.926642
21.750000	853.126626
21.760000	898.852019
21.770000	947.448468
21.780000	996.559846
21.790000	1045.564330
21.800000	1094.391155
21.810000	1143.469576
21.820000	1195.349000
21.830000	1247.815144
21.840000	1303.439416
21.850000	1362.606813
21.860000	1420.634022
21.870000	1463.490250
21.880000	1469.257060
21.890000	1429.861123
21.900000	1352.036148
21.910000	1253.042250
21.920000	1151.599875
21.930000	1059.317082
21.940000	984.600653
21.950000	929.352487
21.960000	889.696590
21.970000	861.831711
21.980000	844.241661
21.990000	835.419723
22.000000	831.220815
22.010000	825.108391
22.020000	813.314018
22.030000	796.581782
22.040000	777.517209
22.050000	760.831709
22.060000	750.154047
22.070000	747.847309
22.080000	754.888754
22.090000	769.288959
22.100000	787.051330
22.110000	806.168632
22.120000	826.985432
22.130000	852.152208
22.140000	882.344176
22.150000	916.894656
22.160000	954.128527
22.170000	991.395285
22.180000	1030.351377
22.190000	1071.318051
22.200000	1113.328957
22.210000	1156.334059
22.220000	1199.059684
22.230000	1244.784855
22.240000	1294.204702
22.250000	1347.320895
22.260000	1400.760020
22.270000	1439.577136
22.280000	1446.393039
22.290000	1411.604852
22.300000	1341.819749
22.310000	1254.744600
22.320000	1166.990700
22.330000	1090.283874
22.340000	1031.560460
22.350000	990.881909
22.360000	967.203832
22.370000	958.887293
22.380000	962.583816
22.390000	972.960854
22.400000	982.697615
22.410000	988.116004
22.420000	989.893929
22.430000	988.005402
22.440000	985.834748
22.450000	987.297012
22.460000	995.840650
22.470000	1010.642192
22.480000	1029.908123
22.490000	1054.725110
22.500000	1085.034530
22.510000	1119.532266
22.520000	1155.550423
22.530000	1194.743425
22.540000	1235.782480
22.550000	1278.013011
22.560000	1319.733781
22.570000	1360.674183
22.580000	1402.075755
22.590000	1443.716708
22.600000	1487.808629
22.610000	1530.458855
22.620000	1573.940320
22.630000	1618.242096
22.640000	1667.462807
22.650000	1720.723306
22.660000	1774.688979
22.670000	1822.570904
22.680000	1842.916185
22.690000	1822.481115
22.700000	1755.536175
22.710000	1657.152669
22.720000	1546.537124
22.730000	1441.187845
22.740000	1352.555144
22.750000	1286.239329
22.760000	1239.915789
22.770000	1209.649455
22.780000	1188.964521
22.790000	1178.773599
22.800000	1179.370596
22.810000	1183.902466
22.820000	1185.131938
22.830000	1176.722089
22.840000	1160.937144
22.850000	1141.564751
22.860000	1129.111597
22.870000	1128.407882
22.880000	1139.286978
22.890000	1150.567330
22.900000	1160.500084
22.910000	1169.075276
22.920000	1184.076880
22.930000	1200.555757
22.940000	1219.008024
22.950000	1232.019111
22.960000	1242.303457
22.970000	1254.823635
22.980000	1268.582701
22.990000	1289.980500
23.000000	1314.495814
23.010000	1335.794747
23.020000	1334.701168
23.030000	1310.652777
23.040000	1275.264432
23.050000	1235.487593
23.060000	1190.126702
23.070000	1122.265728
23.080000	1003.943573
23.090000	821.106008
23.100000	533.832045
23.110000	141.244717
23.120000	-222.849212
23.130000	-567.839836
23.140000	-909.944279
23.150000	-1208.288427
23.160000	-1471.471335
23.170000	-1708.611441
23.180000	-1930.942567
23.190000	-2097.431925
23.200000	-2221.145870
23.210000	-2315.143414
23.220000	-2401.198906
23.230000	-2485.851624
23.240000	-2572.282783
23.250000	-2654.242144
23.260000	-2721.398468
23.270000	-2770.697118
23.280000	-2804.240890
23.290000	-2828.879120
23.300000	-2841.772092
23.310000	-2844.790838
23.320000	-2838.016523
23.330000	-2821.087499
23.340000	-2795.653971
23.350000	-2759.094568
23.360000	-2713.026496
23.370000	-2657.154431
23.380000	-2594.467351
23.390000	-2525.935972
23.400000	-2451.968444
23.410000	-2375.453989
23.420000	-2296.860412
23.430000	-2215.032923
23.440000	-2132.161439
23.450000	-2059.705007
23.460000	-2015.214695
23.470000	-2010.431087
23.480000	-2044.972390
23.490000	-2105.861406
23.500000	-2178.799709
23.510000	-2248.362960
23.520000	-2307.726035
23.530000	-2353.283124
23.540000	-2387.412931
23.550000	-2413.618196
23.560000	-2429.496433
23.570000	-2434.706074
23.580000	-2431.000475
23.590000	-2423.552423
23.600000	-2415.582513
23.610000	-2408.143772
23.620000	-2401.581139
23.630000	-2394.483061
23.640000	-2382.993366
23.650000	-2366.586014
23.660000	-2345.496389
23.670000	-2319.443760
23.680000	-2287.755370
23.690000	-2251.397185
23.700000	-2210.102939
23.710000	-2165.448422
23.720000	-2117.539993
23.730000	-2070.271001
23.740000	-2022.725518
23.750000	-1975.526881
23.760000	-1928.003941
23.770000	-1880.215254
23.780000	-1830.709394
23.790000	-1778.002055
23.800000	-1723.187780
23.810000	-1668.558651
23.820000	-1619.775902
23.830000	-1591.240364
23.840000	-1595.460560
23.850000	-1633.994345
23.860000	-1695.211943
23.870000	-1764.510363
23.880000	-1831.077857
23.890000	-1885.468152
23.900000	-1925.402035
23.910000	-1953.211066
23.920000	-1974.508223
23.930000	-1986.036473
23.940000	-1986.727789
23.950000	-1977.976508
23.960000	-1967.071900
23.970000	-1957.013590
23.980000	-1947.182027
23.990000	-1938.163725
24.000000	-1927.393678
24.010000	-1914.764549
24.020000	-1897.709594
24.030000	-1875.481792
24.040000	-1847.805281
24.050000	-1815.982226
24.060000	-1781.681197
24.070000	-1744.255879
24.080000	-1703.672049
24.090000	-1658.973922
24.100000	-1613.120897
24.110000	-1564.460184
24.120000	-1517.367491
24.130000	-1469.710049
24.140000	-1422.069968
24.150000	-1374.072651
24.160000	-1325.555321
24.170000	-1278.222930
24.180000	-1229.144065
24.190000	-1179.835121
24.200000	-1128.841239
24.210000	-1076.903490
24.220000	-1024.989395
24.230000	-987.124957
24.240000	-981.265777
24.250000	-1012.094261
24.260000	-1070.622425
24.270000	-1140.494658
24.280000	-1210.444554
24.290000	-1271.686872
24.300000	-1317.724799
24.310000	-1351.356601
24.320000	-1374.120380
24.330000	-1387.478388
24.340000	-1389.626049
24.350000	-1384.735773
24.360000	-1378.923017
24.370000	-1377.777780
24.380000	-1379.987183
24.390000	-1382.935785
24.400000	-1385.174206
24.410000	-1383.207897
24.420000	-1377.157609
24.430000	-1364.927088
24.440000	-1348.271467
24.450000	-1327.094437
24.460000	-1300.837325
24.470000	-1271.054211
24.480000	-1238.855262
24.490000	-1204.799101
24.500000	-1168.991912
24.510000	-1130.995773
24.520000	-1090.916644
24.530000	-1050.316335
24.540000	-1008.622035
24.550000	-967.095079
24.560000	-924.440165
24.570000	-880.998022
24.580000	-838.047181
24.590000	-793.344201
24.600000	-748.785069
24.610000	-703.803039
24.620000	-658.310279
24.630000	-610.376067
24.640000	-562.299599
24.650000	-530.440108
24.660000	-529.737315
24.670000	-566.265324
24.680000	-630.250255
24.690000	-705.859204
24.700000	-781.894450
24.710000	-847.906880
24.720000	-900.008281
24.730000	-937.080319
24.740000	-963.923057
24.750000	-981.026470
24.760000	-987.953024
24.770000	-986.095236
24.780000	-982.449147
24.790000	-983.947765
24.800000	-990.376072
24.810000	-998.910055
24.820000	-1005.750396
24.830000	-1009.328362
24.840000	-1006.904536
24.850000	-997.200178
24.860000	-980.512296
24.870000	-959.527639
24.880000	-934.896657
24.890000	-906.635327
24.900000	-874.060840
24.910000	-837.861618
24.920000	-799.007056
24.930000	-758.870031
24.940000	-717.731033
24.950000	-675.324115
24.960000	-632.237599
24.970000	-588.222542
24.980000	-545.196487
24.990000	-503.897158
25.000000	-462.260163
25.010000	-421.025011
25.020000	-376.757628
25.030000	-330.276173
25.040000	-278.689576
25.050000	-224.653616
25.060000	-171.734778
25.070000	-129.825555
25.080000	-115.575361
25.090000	-138.755126
25.100000	-197.827777
25.110000	-275.417116
25.120000	-357.197525
25.130000	-428.854455
25.140000	-486.036317
25.150000	-527.073866
25.160000	-555.329992
25.170000	-573.064329
25.180000	-580.057290
25.190000	-579.504286
25.200000	-575.894600
25.210000	-575.722547
25.220000	-580.490666
25.230000	-588.704710
25.240000	-596.518736
25.250000	-601.127854
25.260000	-600.653795
25.270000	-593.990548
25.280000	-582.231972
25.290000	-564.618204
25.300000	-543.254379
25.310000	-517.340546
25.320000	-487.716922
25.330000	-455.498905
25.340000	-421.948088
25.350000	-386.754125
25.360000	-351.284662
25.370000	-315.439063
25.380000	-280.391437
25.390000	-244.549383
25.400000	-207.600989
25.410000	-169.425765
25.420000	-130.911788
25.430000	-92.398726
25.440000	-51.980777
25.450000	-9.139459
25.460000	37.188161
25.470000	82.675165
25.480000	122.593221
25.490000	139.358767
25.500000	123.257908
25.510000	68.625229
25.520000	-15.464784
25.530000	-116.860662
25.540000	-221.275358
25.550000	-314.439957
25.560000	-388.864176
25.570000	-437.446217
25.580000	-462.236968
25.590000	-468.218965
25.600000	-465.047294
25.610000	-462.416117
25.620000	-464.934208
25.630000	-472.691002
25.640000	-477.889193
25.650000	-476.064357
25.660000	-469.284350
25.670000	-458.188931
25.680000	-443.768520
25.690000	-424.393933
25.700000	-399.008121
25.710000	-369.360067
25.720000	-335.663159
25.730000	-300.084116
25.740000	-261.394316
25.750000	-218.560369
25.760000	-173.551608
25.770000	-126.114627
25.780000	-76.794756
25.790000	-24.414031
25.800000	29.538674
25.810000	83.871735
25.820000	136.788580
25.830000	189.751705
25.840000	242.285531
25.850000	296.224170
25.860000	351.363483
25.870000	408.620091
25.880000	464.349731
25.890000	506.915322
25.900000	519.242747
25.910000	491.151628
25.920000	426.764287
25.930000	341.675780
25.940000	252.545514
25.950000	170.441765
25.960000	105.247764
25.970000	57.439946
25.980000	27.541930
25.990000	9.010924
26.000000	3.451097
26.010000	7.494623
26.020000	16.282964
26.030000	21.562878
26.040000	19.721876
26.050000	15.248099
26.060000	10.416511
26.070000	7.528947
26.080000	7.369616
26.090000	12.076568
26.100000	22.248633
26.110000	37.552187
26.120000	58.728244
26.130000	85.289158
26.140000	116.137993
26.150000	150.626255
26.160000	188.147166
26.170000	227.895867
26.180000	268.755624
26.190000	312.106224
26.200000	355.955788
26.210000	400.925133
26.220000	444.415560
26.230000	488.024425
26.240000	530.135769
26.250000	573.070860
26.260000	617.454712
26.270000	664.054808
26.280000	712.708613
26.290000	758.630625
26.300000	784.198874
26.310000	771.477574
26.320000	714.327236
26.330000	627.320816
26.340000	531.078644
26.350000	440.421592
26.360000	365.089916
26.370000	306.440181
26.380000	267.045719
26.390000	242.046556
26.400000	229.618410
26.410000	227.259966
26.420000	232.466995
26.430000	238.404392
26.440000	238.593142
26.450000	231.840258
26.460000	222.344691
26.470000	212.214643
26.480000	204.042163
26.490000	200.534270
26.500000	204.017181
26.510000	214.459677
26.520000	230.935657
26.530000	253.333566
26.540000	279.795909
26.550000	309.824750
26.560000	342.268248
26.570000	377.935525
26.580000	415.683082
26.590000	455.664704
26.600000	497.712188
26.610000	541.007566
26.620000	586.361543
26.630000	635.301814
26.640000	686.285518
26.650000	734.202951
26.660000	764.132858
26.670000	761.054417
26.680000	717.953078
26.690000	643.901240
26.700000	559.422866
26.710000	479.016570
26.720000	413.501205
26.730000	365.394689
26.740000	333.521919
26.750000	315.054379
26.760000	308.165086
26.770000	313.340379
26.780000	325.412935
26.790000	336.907167
26.800000	342.621072
26.810000	340.436717
26.820000	332.462018
26.830000	323.929627
26.840000	319.255741
26.850000	322.042227
26.860000	330.657252
26.870000	346.452082
26.880000	367.672862
26.890000	390.813317
26.900000	417.325179
26.910000	446.458486
26.920000	479.941172
26.930000	515.717021
26.940000	553.185140
26.950000	592.936354
26.960000	634.717861
26.970000	680.118692
26.980000	728.870298
26.990000	772.570375
27.000000	791.282939
27.010000	770.662821
27.020000	708.019852
27.030000	620.769599
27.040000	524.043112
27.050000	434.506723
27.060000	359.667515
27.070000	302.524598
27.080000	258.564579
27.090000	225.508734
27.100000	202.425628
27.110000	192.798771
27.120000	188.214598
27.130000	185.062753
27.140000	173.948589
27.150000	161.331339
27.160000	144.284678
27.170000	131.593452
27.180000	120.216465
27.190000	118.515210
27.200000	120.069460
27.210000	134.442823
27.220000	153.836870
27.230000	184.705160
27.240000	212.843264
27.250000	242.313535
27.260000	260.767262
27.270000	281.622164
27.280000	295.926109
27.290000	212.000007
27.300000	77.222295
27.310000	-41.773437
27.320000	-94.478247
27.330000	-127.016195
27.340000	-154.002974
27.350000	-162.218601
27.360000	-166.306864
27.370000	-160.400501
27.380000	-161.709832
27.390000	-161.546827
27.400000	-166.857827
27.410000	-167.681996
27.420000	-167.076716
27.430000	-161.500706
27.440000	-152.678257
27.450000	-138.343168
27.460000	-119.657114
27.470000	-95.212997
27.480000	-66.344443
27.490000	-32.110710
27.500000	4.924622
27.510000	44.631092
27.520000	86.826524
27.530000	131.339384
27.540000	175.354440
27.550000	220.025333
27.560000	264.176194
27.570000	311.357979
27.580000	358.948183
27.590000	405.327380
27.600000	436.988328
27.610000	437.589942
27.620000	396.344807
27.630000	319.868181
27.640000	225.365048
27.650000	130.783266
27.660000	46.332299
27.670000	-21.008799
27.680000	-72.086763
27.690000	-107.832459
27.700000	-132.546320
27.710000	-145.005397
27.720000	-149.719280
27.730000	-150.874981
27.740000	-155.931968
27.750000	-165.088568
27.760000	-177.505623
27.770000	-190.326971
27.780000	-200.776390
27.790000	-205.928390
27.800000	-204.748980
27.810000	-197.229119
27.820000	-183.418090
27.830000	-165.231197
27.840000	-142.109824
27.850000	-116.938679
27.860000	-88.820312
27.870000	-57.677415
27.880000	-23.225758
27.890000	13.217398
27.900000	49.337481
27.910000	87.764024
27.920000	128.197717
27.930000	169.948091
27.940000	210.023623
27.950000	250.451407
27.960000	292.820596
27.970000	338.593449
27.980000	384.577329
27.990000	415.675474
28.000000	414.634283
28.010000	370.414176
28.020000	292.052784
28.030000	195.812582
28.040000	101.119959
28.050000	19.830300
28.060000	-42.189087
28.070000	-85.863627
28.080000	-115.199462
28.090000	-132.244925
28.100000	-140.239071
28.110000	-142.318451
28.120000	-144.980297
28.130000	-152.411228
28.140000	-165.738595
28.150000	-180.514042
28.160000	-195.531024
28.170000	-205.965354
28.180000	-212.028924
28.190000	-211.100395
28.200000	-203.225531
28.210000	-191.936263
28.220000	-177.437452
28.230000	-163.472834
28.240000	-149.327979
28.250000	-137.375266
28.260000	-127.903361
28.270000	-118.293485
28.280000	-106.838214
28.290000	-92.570567
28.300000	-70.786157
28.310000	-39.210872
28.320000	-0.102956
28.330000	41.451458
28.340000	81.894988
28.350000	125.111578
28.360000	172.864601
28.370000	226.748869
28.380000	282.796712
28.390000	327.003173
28.400000	341.696804
28.410000	316.923529
28.420000	256.279100
28.430000	172.179899
28.440000	77.507928
28.450000	-15.921279
28.460000	-99.626896
28.470000	-168.720021
28.480000	-221.123679
28.490000	-250.862163
28.500000	-256.988253
28.510000	-245.042641
28.520000	-223.213817
28.530000	-205.927166
28.540000	-198.434301
28.550000	-204.828491
28.560000	-218.645631
28.570000	-230.407908
28.580000	-235.222451
28.590000	-229.343232
28.600000	-213.163252
28.610000	-187.966805
28.620000	-155.123277
28.630000	-118.282151
28.640000	-78.428011
28.650000	-37.284739
28.660000	2.914127
28.670000	38.022507
28.680000	66.578875
28.690000	92.660354
28.700000	120.225503
28.710000	152.612184
28.720000	186.837274
28.730000	225.562170
28.740000	268.757790
28.750000	318.500887
28.760000	372.649810
28.770000	430.092333
28.780000	479.831391
28.790000	501.641948
28.800000	481.680818
28.810000	420.214100
28.820000	334.895249
28.830000	244.439879
28.840000	164.752794
28.850000	104.630425
28.860000	63.234956
28.870000	36.128949
28.880000	19.369797
28.890000	13.624907
28.900000	19.823580
28.910000	31.752924
28.920000	43.596914
28.930000	49.198583
28.940000	52.048777
28.950000	52.621438
28.960000	54.829017
28.970000	60.691479
28.980000	71.593346
28.990000	88.078495
29.000000	109.005781
29.010000	134.455048
29.020000	163.401479
29.030000	196.489264
29.040000	233.782110
29.050000	274.842074
29.060000	317.812260
29.070000	363.856708
29.080000	410.820262
29.090000	459.199032
29.100000	506.473827
29.110000	553.872260
29.120000	601.110619
29.130000	648.868942
29.140000	697.400472
29.150000	746.852987
29.160000	798.347402
29.170000	851.153099
29.180000	895.256728
29.190000	913.421332
29.200000	894.169903
29.210000	840.383756
29.220000	767.438868
29.230000	689.664828
29.240000	620.025649
29.250000	564.581876
29.260000	524.921785
29.270000	497.473086
29.280000	474.795659
29.290000	395.467037
