2025-07-21 16:16:08    绿光---红外光---红光---X轴---Y轴---Z轴
17535 67269 81106 -5278 15601 -1014
17396 66710 80444 -5220 15600 -904
17313 66414 80093 -5425 15516 -899
17332 66533 80221 -5555 15396 -899
17516 67328 81135 -5556 15386 -853
17542 67385 81206 -5383 15456 -853
17736 68199 82173 -5280 15461 -848
17883 68777 82834 -5387 15406 -846
18005 69254 83368 -5515 15402 -852
17971 69101 83161 -5455 15474 -813
17882 68723 82719 -5391 15520 -739
17799 68364 82283 -5493 15512 -741
17717 68027 81870 -5525 15442 -799
17623 67632 81375 -5477 15399 -784
17456 66948 80535 -5444 15420 -745
17326 66416 79908 -5471 15419 -772
17232 66012 79422 -5559 15338 -846
17131 65587 78923 -5499 15427 -820
17091 65423 78721 -5432 15504 -762
17060 65276 78539 -5413 15509 -731
16990 64991 78176 -5435 15478 -710
16891 64576 77677 -5449 15449 -674
16817 64263 77304 -5424 15454 -666
16793 64149 77152 -5368 15469 -663
16746 63943 76890 -5343 15464 -621
16693 63714 76606 -5347 15418 -576
16639 63484 76324 -5368 15432 -553
16604 63334 76133 -5378 15465 -520
16601 63337 76103 -5346 15501 -483
16568 63192 75905 -5292 15525 -473
16652 63563 76326 -5273 15517 -472
16742 63914 76701 -5315 15508 -440
16722 63816 76598 -5375 15510 -383
16950 64742 77649 -5374 15531 -376
17024 65103 78051 -5310 15563 -369
17092 65474 78463 -5347 15486 -297
17125 65719 78742 -5491 15438 -332
17229 66230 79317 -5408 15472 -424
17302 66596 79714 -5198 15524 -401
17291 66596 79697 -5233 15545 -355
17217 66353 79385 -5431 15475 -362
17144 66089 79059 -5569 15419 -394
17067 65800 78706 -5520 15425 -409
17047 65739 78618 -5386 15470 -405
16919 65203 77998 -5366 15454 -408
16954 65361 78170 -5406 15389 -436
16951 65344 78118 -5425 15393 -467
16931 65279 78033 -5393 15446 -443
16919 65251 77996 -5401 15513 -403
16895 65168 77884 -5513 15507 -405
16888 65171 77868 -5488 15458 -399
16924 65346 78043 -5360 15471 -379
16901 65265 77923 -5340 15486 -357
16830 64972 77580 -5422 15478 -336
16835 64988 77609 -5487 15458 -347
16842 65006 77600 -5361 15471 -340
16794 64796 77354 -5383 15502 -306
16800 64782 77363 -5428 15506 -320
16800 64753 77349 -5423 15499 -308
16791 64672 77280 -5384 15494 -275
16818 64756 77403 -5371 15493 -289
16873 64960 77639 -5415 15473 -310
16935 65203 77915 -5464 15434 -320
16996 65434 78163 -5460 15429 -354
17051 65668 78404 -5374 15391 -397
17114 65935 78677 -5370 15390 -363
17155 66115 78854 -5329 15393 -354
17332 66889 79732 -5338 15396 -350
17555 67797 80703 -5365 15395 -314
17557 67792 80683 -5374 15410 -309
17732 68488 81531 -5343 15462 -281
17859 68926 81966 -5307 15470 -156
17688 68217 81251 -5442 15459 -114
17648 68037 81139 -5334 15577 -188
17594 67812 80941 -5245 15649 -243
17627 67969 81144 -5452 15646 -343
17569 67723 80881 -5653 15555 -433
17469 67310 80449 -5646 15515 -500
17410 67067 80174 -5479 15511 -521
17304 66602 79626 -5404 15469 -553
17194 66160 79128 -5435 15394 -561
17122 65839 78724 -5447 15355 -531
16910 64935 77714 -5409 15369 -521
16882 64800 77526 -5355 15387 -481
16802 64464 77104 -5391 15442 -468
16737 64203 76805 -5406 15479 -470
16783 64398 77026 -5367 15448 -387
16804 64481 77107 -5341 15467 -324
16854 64685 77358 -5322 15509 -283
16964 65153 77892 -5363 15499 -219
17048 65488 78293 -5358 15494 -188
17147 65869 78734 -5322 15521 -183
17177 65957 78853 -5361 15527 -181
17241 66202 79155 -5396 15504 -195
17289 66351 79337 -5390 15472 -192
17302 66360 79371 -5385 15474 -199
17347 66513 79562 -5376 15473 -205
17372 66577 79647 -5364 15456 -200
17430 66782 79885 -5378 15454 -222
17470 66912 80027 -5432 15459 -254
17492 66981 80114 -5451 15479 -287
17503 66989 80116 -5413 15499 -321
17451 66743 79821 -5366 15493 -366
17387 66463 79498 -5324 15424 -384
17324 66192 79170 -5349 15445 -367
17204 65683 78574 -5390 15457 -354
17215 65731 78641 -5419 15477 -334
17228 65758 78638 -5374 15512 -357
17123 65285 78106 -5335 15531 -310
17255 65801 78687 -5452 15526 -211
17217 65664 78500 -5508 15541 -253
17202 65658 78506 -5270 15558 -306
17129 65420 78251 -5255 15492 -290
17189 65747 78629 -5472 15442 -287
17260 66078 79006 -5497 15453 -294
17278 66192 79160 -5345 15502 -284
17312 66359 79374 -5320 15515 -275
17399 66743 79815 -5415 15471 -298
17473 67047 80170 -5450 15457 -329
17555 67406 80604 -5404 15474 -368
17601 67557 80765 -5349 15467 -374
17658 67802 81100 -5473 15431 -402
17674 67813 81067 -5431 15429 -409
17622 67592 80831 -5386 15467 -397
17616 67558 80801 -5464 15459 -381
17598 67468 80695 -5523 15451 -363
17545 67242 80434 -5500 15447 -368
17562 67331 80540 -5412 15483 -374
17569 67356 80556 -5389 15516 -344
17507 67096 80257 -5425 15505 -339
17471 66933 80070 -5414 15467 -384
17433 66778 79886 -5386 15438 -401
17382 66550 79617 -5402 15451 -377
17321 66282 79302 -5390 15481 -341
17276 66070 79058 -5341 15494 -313
17226 65852 78796 -5323 15504 -298
17180 65648 78564 -5342 15519 -286
17176 65606 78520 -5370 15528 -289
17184 65620 78532 -5371 15534 -297
17214 65722 78659 -5348 15537 -296
17237 65798 78748 -5339 15510 -304
17292 66007 78994 -5342 15480 -336
17339 66167 79180 -5339 15483 -345
17403 66409 79476 -5361 15491 -325
17495 66762 79879 -5407 15482 -311
17544 66946 80086 -5413 15464 -302
17576 67052 80236 -5389 15472 -361
17759 67801 81077 -5374 15510 -368
17763 67778 81046 -5439 15456 -285
17856 68124 81484 -5584 15459 -330
17945 68441 81786 -5479 15482 -420
17935 68482 81851 -5217 15457 -464
17855 68199 81507 -5246 15445 -445
17792 68033 81329 -5490 15394 -386
17797 68107 81396 -5604 15376 -384
17752 67968 81243 -5480 15415 -387
17682 67722 80969 -5384 15461 -385
17638 67574 80788 -5493 15436 -380
17625 67537 80735 -5550 15410 -380
17576 67346 80515 -5463 15440 -399
17580 67396 80589 -5384 15489 -406
17535 67177 80346 -5487 15432 -393
17599 67438 80638 -5480 15433 -403
17559 67251 80425 -5389 15451 -387
17550 67204 80385 -5381 15481 -384
17566 67277 80481 -5463 15482 -364
17593 67375 80586 -5549 15450 -339
17594 67384 80611 -5494 15442 -366
17685 67757 81046 -5401 15492 -372
17717 67878 81178 -5403 15503 -348
17717 67874 81182 -5398 15421 -404
17747 67987 81314 -5378 15427 -383
17756 67997 81326 -5381 15446 -359
17715 67811 81108 -5414 15457 -363
17659 67558 80816 -5436 15461 -367
17621 67389 80615 -5423 15469 -365
17565 67135 80310 -5407 15489 -373
17487 66787 79909 -5404 15509 -381
17425 66514 79596 -5399 15497 -388
17341 66149 79167 -5401 15456 -404
17256 65779 78743 -5392 15425 -412
17236 65694 78646 -5376 15438 -388
17211 65563 78482 -5360 15482 -361
17191 65465 78378 -5365 15511 -352
17192 65440 78361 -5374 15513 -343
17190 65399 78316 -5368 15503 -341
17186 65370 78282 -5371 15505 -334
17184 65361 78269 -5417 15516 -327
17182 65324 78214 -5415 15520 -379
17189 65354 78281 -5382 15486 -385
17317 65862 78847 -5452 15439 -331
17324 65850 78831 -5476 15442 -400
17469 66422 79512 -5265 15492 -463
17487 66488 79548 -5185 15540 -427
17513 66651 79762 -5383 15488 -391
17441 66409 79477 -5536 15430 -383
17470 66602 79710 -5490 15468 -395
17513 66835 79969 -5342 15509 -389
17468 66687 79801 -5364 15493 -365
17360 66285 79344 -5452 15445 -369
17291 66052 79057 -5427 15438 -391
17225 65780 78739 -5382 15489 -399
17154 65508 78441 -5369 15503 -372
17128 65413 78323 -5432 15516 -351
17055 65101 78004 -5524 15502 -362
17084 65198 78076 -5442 15477 -354
17014 64896 77730 -5291 15515 -333
16980 64768 77597 -5312 15507 -324
16985 64801 77631 -5432 15460 -292
16960 64709 77514 -5437 15447 -287
16985 64831 77655 -5356 15453 -321
17024 64997 77837 -5343 15454 -324
17012 64952 77790 -5400 15464 -315
17046 65098 77957 -5416 15448 -294
17069 65188 78046 -5393 15439 -275
17075 65204 78057 -5375 15462 -277
17047 65088 77913 -5371 15481 -286
17020 64975 77782 -5402 15466 -299
17018 64970 77759 -5427 15445 -309
17010 64926 77688 -5406 15448 -317
16994 64861 77601 -5356 15453 -321
16975 64775 77482 -5343 15454 -324
16970 64761 77442 -5400 15464 -315
16934 64599 77214 -5416 15448 -294
16869 64342 76901 -5393 15439 -275
16831 64197 76709 -5375 15462 -277
16797 64051 76523 -5371 15481 -286
16779 63962 76406 -5402 15466 -299
16716 63685 76078 -5427 15445 -309
16691 63581 75967 -5406 15448 -317
16701 63603 75985 -5376 15425 -357
16692 63528 75890 -5378 15431 -314
16764 63820 76242 -5366 15444 -256
16859 64188 76659 -5387 15464 -235
16910 64338 76845 -5423 15479 -244
17100 65088 77701 -5429 15486 -254
17091 65062 77646 -5383 15497 -244
17173 65471 78132 -5346 15502 -243
17208 65675 78336 -5376 15494 -270
17338 66302 79037 -5345 15445 -278
17421 66683 79450 -5281 15491 -282
17438 66824 79618 -5350 15458 -223
17520 67213 80019 -5481 15480 -211
17511 67213 79990 -5416 15521 -271
17509 67213 79994 -5225 15517 -321
17488 67136 79919 -5256 15500 -332
17456 66973 79726 -5467 15422 -311
17482 67064 79851 -5504 15408 -309
17458 66909 79678 -5375 15440 -311
17392 66600 79348 -5313 15453 -317
17362 66448 79207 -5382 15414 -299
17336 66334 79077 -5402 15411 -258
17254 65982 78682 -5395 15494 -274
17233 65893 78601 -5415 15560 -297
17197 65733 78413 -5480 15553 -290
17115 65375 78005 -5561 15535 -334
17052 65120 77702 -5509 15533 -373
16974 64779 77301 -5445 15523 -371
16896 64454 76929 -5457 15500 -407
16887 64393 76875 -5443 15451 -441
16900 64428 76925 -5436 15394 -424
16927 64510 77028 -5421 15406 -399
16952 64577 77121 -5402 15447 -373
16979 64673 77245 -5411 15460 -349
17012 64767 77364 -5393 15474 -349
17035 64829 77443 -5351 15486 -338
17039 64816 77422 -5337 15486 -313
17037 64784 77387 -5381 15493 -311
17055 64838 77448 -5432 15489 -311
17096 64998 77623 -5344 15455 -319
17147 65172 77833 -5332 15469 -307
17214 65429 78121 -5349 15480 -310
17269 65638 78366 -5357 15492 -310
17321 65838 78588 -5356 15494 -312
17375 66040 78810 -5389 15493 -319
17379 66025 78805 -5412 15482 -320
17449 66305 79121 -5404 15462 -326
17420 66143 78927 -5388 15459 -312
17479 66353 79200 -5338 15456 -325
17553 66615 79435 -5387 15472 -295
17556 66702 79551 -5435 15463 -277
17482 66449 79241 -5453 15455 -274
17458 66422 79229 -5399 15479 -291
17502 66653 79479 -5399 15467 -256
17500 66687 79536 -5557 15457 -226
17502 66746 79606 -5595 15459 -321
17478 66676 79527 -5345 15479 -395
17481 66716 79569 -5363 15435 -350
17459 66624 79473 -5549 15375 -359
17532 66962 79886 -5539 15391 -366
17582 67125 80075 -5403 15433 -368
17658 67434 80453 -5428 15444 -346
17659 67395 80398 -5501 15423 -334
17653 67361 80374 -5490 15428 -331
17655 67367 80384 -5467 15455 -345
17613 67174 80164 -5462 15446 -381
17548 66912 79875 -5490 15443 -372
17568 66991 79973 -5552 15410 -371
17554 66908 79876 -5498 15411 -364
17531 66812 79767 -5412 15463 -322
17531 66800 79760 -5431 15462 -319
17545 66850 79809 -5483 15474 -318
17519 66724 79657 -5489 15462 -338
17501 66642 79563 -5439 15456 -365
17502 66627 79532 -5446 15479 -356
17438 66342 79199 -5465 15480 -341
17386 66110 78939 -5443 15475 -339
17366 66011 78815 -5412 15449 -356
17330 65835 78603 -5398 15436 -352
17291 65659 78396 -5399 15446 -339
17274 65586 78316 -5394 15446 -338
17264 65520 78240 -5391 15426 -322
17275 65553 78286 -5399 15417 -317
17328 65741 78509 -5415 15445 -333
17376 65912 78715 -5436 15455 -337
17422 66074 78898 -5443 15452 -337
17422 66046 78876 -5433 15452 -330
17454 66163 79021 -5421 15430 -339
17486 66252 79109 -5441 15407 -346
17447 66071 78911 -5470 15424 -313
17549 66493 79386 -5463 15451 -304
17566 66543 79420 -5452 15470 -308
17615 66720 79633 -5443 15466 -309
17708 67073 79959 -5463 15455 -318
17661 66939 79808 -5488 15453 -317
17606 66765 79578 -5503 15450 -319
17546 66596 79386 -5468 15445 -370
17547 66658 79439 -5557 15399 -272
17486 66446 79201 -5613 15423 -301
17439 66302 79044 -5384 15471 -325
17384 66114 78814 -5299 15536 -307
17329 65910 78567 -5512 15497 -309
17276 65714 78345 -5664 15421 -317
17295 65828 78487 -5619 15436 -314
17298 65837 78475 -5519 15468 -324
17331 65969 78649 -5545 15433 -345
17309 65847 78489 -5527 15378 -342
17308 65842 78501 -5490 15406 -346
17326 65927 78597 -5474 15432 -316
17335 65954 78628 -5538 15449 -254
17332 65947 78617 -5665 15429 -249
17376 66145 78852 -5600 15443 -260
17402 66243 78963 -5490 15480 -241
17408 66250 78976 -5509 15453 -237
17414 66260 78986 -5564 15440 -241
17380 66117 78821 -5573 15410 -262
17336 65929 78607 -5515 15395 -298
17277 65676 78306 -5501 15425 -296
17190 65306 77878 -5529 15449 -273
17109 64964 77481 -5501 15455 -273
17029 64622 77075 -5461 15447 -288
16964 64357 76759 -5479 15436 -300
16899 64078 76427 -5505 15449 -287
16829 63791 76087 -5494 15453 -283
16789 63615 75876 -5476 15452 -299
16727 63353 75566 -5461 15455 -306
16700 63242 75433 -5435 15431 -317
16672 63121 75278 -5432 15439 -306
16646 63001 75129 -5460 15463 -272
16623 62900 75006 -5477 15467 -251
16619 62859 74963 -5454 15467 -244
16613 62843 74939 -5436 15464 -249
16642 62945 75048 -5450 15475 -227
16638 62925 75005 -5446 15486 -206
16639 62929 75026 -5416 15489 -209
16773 63488 75647 -5408 15487 -212
16846 63759 75951 -5389 15444 -248
16951 64149 76421 -5405 15446 -212
17038 64478 76745 -5415 15465 -213
17028 64510 76787 -5410 15501 -245
16990 64417 76662 -5443 15460 -199
17024 64631 76904 -5571 15458 -150
17062 64829 77097 -5498 15471 -228
16977 64547 76776 -5264 15496 -281
16891 64255 76437 -5301 15519 -257
16830 64055 76185 -5543 15396 -292
16777 63864 75949 -5439 15409 -271
16700 63569 75615 -5376 15424 -264
16669 63479 75517 -5477 15406 -265
16649 63388 75402 -5533 15423 -261
16670 63466 75471 -5500 15485 -268
16623 63263 75230 -5478 15532 -272
16591 63127 75088 -5482 15505 -267
16602 63193 75164 -5520 15497 -269
16592 63161 75113 -5424 15433 -276
16568 63097 75023 -5376 15456 -264
16573 63129 75054 -5408 15474 -238
16565 63121 75029 -5480 15466 -207
16546 63052 74935 -5482 15464 -202
16537 63032 74887 -5443 15471 -199
16507 62923 74737 -5419 15467 -179
16468 62769 74554 -5385 15479 -168
16457 62722 74487 -5358 15497 -189
16460 62736 74483 -5359 15496 -208
16456 62705 74433 -5367 15484 -220
16453 62688 74404 -5387 15482 -221
16437 62600 74300 -5408 15478 -196
16433 62572 74259 -5409 15477 -175
16423 62514 74182 -5377 15492 -175
16393 62371 74011 -5375 15507 -186
16350 62177 73794 -5392 15507 -183
16334 62087 73735 -5382 15491 -174
16306 61949 73596 -5382 15488 -175
16306 61928 73577 -5398 15480 -188
16324 61979 73641 -5405 15448 -207
16341 62022 73692 -5398 15431 -200
16355 62056 73730 -5398 15436 -183
16414 62292 74014 -5410 15444 -181
16490 62574 74342 -5430 15452 -163
16607 63002 74855 -5434 15461 -156
16786 63666 75628 -5379 15479 -188
16804 63715 75664 -5375 15473 -166
16884 64082 76106 -5499 15401 -118
16887 64119 76148 -5554 15460 -142
16986 64570 76685 -5308 15503 -258
17035 64792 76915 -5449 15468 -231
16959 64514 76625 -5616 15402 -198
16971 64587 76717 -5600 15401 -209
16933 64440 76539 -5505 15401 -193
16886 64250 76332 -5494 15411 -184
16854 64131 76208 -5525 15411 -185
16860 64131 76212 -5499 15438 -184
16870 64148 76255 -5507 15483 -210
16866 64079 76174 -5506 15426 -226
16858 64022 76124 -5551 15423 -207
16854 63986 76116 -5539 15431 -203
16867 64023 76158 -5475 15477 -184
16830 63858 75970 -5483 15487 -180
16836 63878 76005 -5533 15457 -167
16845 63903 76048 -5518 15438 -155
16847 63881 76039 -5472 15461 -172
16862 63944 76117 -5471 15456 -174
16867 63949 76124 -5457 15419 -210
16853 63864 76034 -5430 15430 -192
16867 63900 76091 -5415 15455 -178
16885 63948 76152 -5436 15474 -186
16892 63950 76162 -5462 15463 -191
16903 63979 76200 -5479 15458 -188
16915 63992 76210 -5489 15466 -202
16908 63943 76148 -5481 15474 -216
16916 63963 76169 -5465 15474 -228
16919 63956 76157 -5441 15472 -237
16904 63888 76071 -5412 15457 -248
16895 63826 75999 -5435 15444 -245
16906 63842 76023 -5479 15457 -220
16893 63772 75942 -5481 15475 -209
16882 63700 75873 -5464 15471 -204
16908 63790 75966 -5441 15467 -217
16901 63739 75892 -5445 15478 -225
16878 63635 75789 -5452 15464 -207
16968 64004 76204 -5422 15466 -237
17022 64192 76412 -5389 15490 -261
17147 64659 76970 -5432 15426 -223
17277 65156 77483 -5562 15429 -219
17294 65263 77627 -5459 15474 -251
17250 65139 77486 -5198 15513 -248
17298 65378 77785 -5275 15520 -218
17399 65836 78296 -5553 15427 -224
17416 65948 78436 -5638 15395 -245
17413 65975 78484 -5501 15439 -236
17399 65943 78437 -5429 15463 -234
17370 65846 78320 -5511 15419 -234
17315 65635 78085 -5526 15381 -267
17315 65665 78135 -5468 15403 -311
17323 65672 78132 -5450 15453 -311
17344 65758 78239 -5454 15422 -293
17304 65560 77999 -5538 15443 -273
17292 65505 77955 -5631 15463 -267
17283 65462 77919 -5568 15462 -251
17264 65389 77846 -5467 15489 -234
17234 65276 77725 -5490 15463 -231
17271 65423 77906 -5579 15424 -238
17297 65519 78010 -5484 15398 -279
17307 65560 78071 -5516 15409 -250
17336 65663 78195 -5527 15425 -243
17325 65597 78122 -5482 15457 -249
17284 65412 77918 -5477 15472 -242
17279 65368 77878 -5516 15467 -243
17276 65331 77842 -5531 15448 -253
17253 65214 77713 -5511 15430 -262
17238 65129 77637 -5475 15428 -273
17286 65294 77836 -5438 15423 -330
17324 65398 77960 -5434 15473 -276
17332 65394 77973 -5431 15496 -223
17351 65444 78041 -5399 15482 -211
17341 65377 77973 -5409 15444 -193
17345 65362 77977 -5509 15431 -205
17372 65435 78064 -5535 15461 -238
17424 65619 78285 -5428 15500 -254
17445 65667 78352 -5324 15510 -252
17400 65448 78122 -5384 15461 -258
17373 65287 77979 -5525 15392 -315
17498 65765 78577 -5479 15450 -403
17695 66515 79446 -5295 15577 -361
17704 66483 79448 -5333 15501 -223
17772 66734 79803 -5612 15399 -264
17974 67538 80651 -5609 15426 -383
18030 67814 80969 -5328 15533 -368
18061 67990 81186 -5312 15592 -328
18180 68543 81838 -5551 15475 -353
18343 69256 82657 -5683 15381 -406
18519 70008 83505 -5605 15404 -440
18522 70058 83595 -5506 15429 -422
18598 70366 83958 -5565 15418 -436
18686 70753 84412 -5634 15397 -464
18648 70560 84166 -5647 15368 -434
18814 71294 85063 -5657 15397 -423
19014 72052 85887 -5626 15417 -379
19178 72684 86644 -5650 15450 -290
19084 72207 86080 -5673 15420 -235
19128 72424 86399 -5575 15414 -219
19358 73388 87501 -5501 15415 -262
19336 73288 87388 -5671 15331 -182
19181 72644 86657 -5713 15268 -208
19202 72779 86813 -5603 15299 -277
19194 72783 86776 -5530 15370 -274
19044 72145 86061 -5573 15418 -279
18937 71663 85594 -5643 15419 -356
18911 71494 85448 -5640 15395 -388
18751 70763 84644 -5602 15398 -414
18600 70066 83868 -5575 15414 -219
18412 69283 82981 -5501 15415 -262
18243 68562 82157 -5671 15331 -182
18078 67883 81363 -5713 15268 -208
17885 67107 80458 -5603 15299 -277
17714 66426 79655 -5530 15370 -274
17643 66155 79347 -5573 15418 -279
17689 66370 79564 -5643 15419 -356
17638 66178 79296 -5640 15395 -388
17660 66306 79436 -5602 15398 -414
17763 66734 79885 -5524 15347 -433
17829 67008 80170 -5474 15345 -407
17901 67287 80467 -5456 15391 -372
17923 67368 80552 -5491 15407 -335
17993 67646 80853 -5551 15397 -326
18034 67800 81018 -5575 15397 -353
18200 68455 81771 -5553 15438 -334
18308 68878 82260 -5510 15458 -299
18443 69389 82874 -5543 15421 -322
18756 70645 84261 -5564 15392 -274
18856 71086 84763 -5507 15440 -246
18908 71365 85068 -5520 15433 -234
18914 71471 85194 -5591 15422 -225
18922 71571 85286 -5583 15440 -234
18948 71730 85474 -5495 15514 -215
18947 71783 85520 -5545 15462 -168
18848 71404 85052 -5708 15404 -204
18612 70459 83960 -5667 15426 -292
18370 69483 82860 -5415 15447 -325
18315 69297 82656 -5387 15462 -330
18268 69075 82339 -5634 15402 -333
17998 67983 81128 -5838 15322 -354
17818 67253 80276 -5838 15305 -413
17756 67023 80001 -5674 15389 -449
17700 66797 79718 -5559 15491 -381
17532 66118 78951 -5566 15470 -299
17372 65497 78261 -5705 15320 -310
17425 65742 78515 -5788 15300 -370
17391 65599 78318 -5632 15399 -336
17335 65412 78147 -5475 15464 -239
17450 65905 78734 -5572 15367 -237
17479 65998 78813 -5692 15319 -247
17355 65471 78166 -5554 15448 -207
17244 65043 77670 -5369 15513 -130
17276 65178 77806 -5470 15399 -94
17183 64787 77347 -5694 15302 -153
17109 64489 77015 -5611 15439 -152
17128 64562 77084 -5395 15531 -101
17092 64412 76899 -5428 15443 -124
17078 64359 76837 -5620 15371 -146
17136 64596 77126 -5500 15452 -124
17261 65098 77705 -5366 15481 -143
17333 65366 77992 -5375 15489 -137
17336 65363 77980 -5465 15494 -103
17329 65315 77909 -5539 15481 -127
17162 64619 77094 -5518 15460 -151
17149 64600 77078 -5441 15475 -152
17075 64272 76664 -5442 15481 -160
16969 63848 76185 -5522 15449 -178
17118 64470 76893 -5557 15399 -201
17132 64489 76888 -5515 15395 -193
17085 64283 76666 -5460 15446 -174
17280 65032 77505 -5435 15477 -161
17209 64733 77129 -5470 15462 -160
17167 64624 77030 -5552 15453 -162
17111 64465 76837 -5638 15427 -148
17111 64525 76899 -5663 15410 -212
17136 64672 77049 -5554 15479 -265
17092 64545 76913 -5529 15440 -182
17065 64461 76825 -5597 15401 -260
17123 64727 77104 -5310 15459 -228
17110 64684 77039 -5269 15538 -182
17073 64558 76905 -5531 15466 -162
17094 64650 76998 -5690 15372 -158
17081 64598 76959 -5619 15378 -142
17093 64617 76940 -5486 15432 -123
17015 64308 76579 -5504 15410 -128
16968 64134 76382 -5542 15388 -143
16924 63971 76178 -5486 15399 -152
16891 63862 76042 -5448 15415 -148
16895 63895 76060 -5478 15425 -129
16851 63708 75842 -5555 15461 -124
16801 63518 75626 -5549 15485 -129
16793 63501 75585 -5451 15477 -114
16757 63358 75389 -5405 15484 -104
16684 63086 75059 -5455 15480 -117
16656 62994 74928 -5507 15460 -143
16654 63012 74916 -5427 15451 -149
16637 62956 74826 -5332 15439 -142
16648 63006 74870 -5317 15433 -160
16705 63229 75108 -5283 15468 -141
16706 63239 75091 -5261 15508 -117
16709 63249 75087 -5284 15542 -109
16706 63235 75058 -5299 15547 -96
16712 63261 75078 -5297 15528 -72
16721 63275 75090 -5302 15505 -49
16721 63244 75048 -5316 15495 -46
16721 63232 75037 -5312 15479 -54
16740 63297 75108 -5300 15469 -52
16756 63333 75144 -5320 15486 -50
16847 63676 75546 -5357 15491 -46
16902 63891 75784 -5365 15486 -35
17011 64271 76236 -5325 15498 -26
17148 64765 76795 -5288 15510 -29
17126 64681 76692 -5298 15499 -27
17198 65013 77091 -5340 15478 -24
17188 65012 77083 -5320 15491 -51
17239 65247 77354 -5255 15515 -37
17224 65209 77290 -5309 15445 25
17173 65034 77100 -5373 15474 17
17148 64954 77005 -5260 15541 -47
17091 64731 76755 -5108 15557 -85
17035 64508 76506 -5199 15530 -64
17029 64495 76507 -5401 15446 -39
17042 64530 76544 -5441 15451 -36
17060 64582 76635 -5358 15492 -24
17064 64559 76594 -5291 15506 -35
17019 64345 76361 -5292 15485 -47
16993 64228 76254 -5299 15454 -54
16990 64210 76239 -5305 15467 -82
16957 64070 76068 -5296 15508 -94
16967 64107 76112 -5308 15520 -68
16948 64024 76025 -5364 15513 -66
16974 64128 76153 -5318 15515 -87
16999 64210 76245 -5241 15519 -77
17002 64216 76258 -5237 15525 -77
17023 64282 76340 -5269 15528 -75
17031 64298 76367 -5297 15506 -60
17068 64423 76512 -5197 15478 -80
17070 64411 76495 -5236 15508 -70
17056 64328 76401 -5260 15531 -57
17052 64292 76355 -5241 15541 -51
17022 64161 76200 -5220 15534 -62
17034 64194 76245 -5218 15513 -68
17043 64203 76241 -5263 15495 -64
17014 64075 76088 -5285 15494 -60
16993 63968 75966 -5258 15485 -65
16983 63914 75909 -5250 15452 -84
17016 64034 76035 -5248 15438 -95
17005 63961 75957 -5253 15469 -93
17127 64458 76530 -5246 15502 -79
17163 64578 76657 -5227 15519 -55
17249 64869 77020 -5218 15523 -54
17409 65489 77706 -5240 15520 -59
17473 65783 78052 -5280 15523 -56
17527 66024 78316 -5288 15529 -52
17517 66041 78357 -5243 15547 -72
17623 66509 78879 -5367 15475 0
17623 66540 78918 -5383 15499 -47
17623 66570 78971 -5165 15569 -92
17628 66616 79035 -5061 15593 -74
17651 66716 79156 -5239 15517 -59
17614 66541 78979 -5424 15455 -84
17603 66512 78996 -5386 15491 -98
17694 66863 79397 -5249 15518 -101
17722 66966 79553 -5251 15500 -115
17707 66849 79398 -5311 15453 -135
17668 66692 79239 -5307 15445 -154
17653 66636 79177 -5274 15489 -154
17607 66458 78963 -5250 15521 -152
17544 66188 78653 -5312 15547 -140
17534 66152 78619 -5431 15530 -135
17509 66055 78499 -5358 15524 -136
17485 65961 78406 -5254 15558 -128
17547 66209 78690 -5262 15527 -133
17572 66287 78783 -5330 15477 -127
17587 66325 78838 -5345 15446 -118
17584 66293 78813 -5263 15456 -126
17616 66409 78966 -5243 15492 -117
17662 66567 79146 -5268 15513 -107
17712 66757 79369 -5251 15505 -107
17772 66975 79604 -5209 15495 -90
17789 67037 79677 -5184 15505 -82
17840 67217 79892 -5187 15518 -87
17930 67563 80297 -5225 15522 -102
18036 67945 80740 -5260 15529 -115
18148 68360 81245 -5241 15535 -118
18330 69059 82055 -5219 15459 -90
18487 69652 82735 -5239 15477 -84
18647 70258 83426 -5266 15492 -106
18776 70748 83999 -5274 15496 -116
19009 71679 85037 -5230 15505 -122
19090 71998 85387 -5198 15546 -126
19224 72514 85985 -5242 15548 -102
19414 73275 86785 -5307 15499 -90
19449 73484 87032 -5311 15472 -125
19451 73554 87112 -5342 15433 -103
19492 73789 87400 -5526 15433 -108
19572 74143 87782 -5519 15463 -147
19570 74182 87844 -5234 15495 -160
19520 74021 87674 -5202 15535 -142
19459 73804 87413 -5456 15471 -146
19408 73610 87163 -5595 15424 -157
19279 73096 86570 -5477 15457 -166
19241 72995 86486 -5333 15489 -172
19240 72982 86449 -5461 15387 -165
19255 73059 86552 -5426 15424 -156
19188 72761 86172 -5363 15483 -163
19120 72502 85890 -5354 15468 -168
19110 72472 85862 -5475 15480 -132
19090 72402 85765 -5586 15471 -117
19059 72275 85618 -5488 15455 -113
19078 72367 85723 -5359 15486 -126
19054 72260 85595 -5378 15471 -130
19045 72231 85560 -5455 15432 -124
19056 72270 85606 -5426 15411 -138
19055 72252 85590 -5351 15447 -128
19027 72112 85436 -5343 15462 -114
18993 71968 85279 -5351 15457 -121
19032 72107 85423 -5324 15477 -132
18982 71877 85150 -5324 15490 -131
18916 71588 84837 -5353 15473 -126
18858 71324 84540 -5365 15458 -150
18788 71022 84192 -5364 15471 -173
18747 70854 83996 -5328 15481 -164
18727 70761 83873 -5281 15453 -183
18695 70612 83699 -5282 15433 -205
18666 70456 83519 -5304 15447 -191
18619 70251 83287 -5313 15467 -178
18610 70195 83225 -5321 15493 -147
18582 70061 83076 -5319 15502 -117
18554 69934 82936 -5312 15499 -110
18572 69992 82993 -5313 15500 -120
18529 69802 82789 -5299 15500 -141
18621 70167 83193 -5276 15506 -142
18636 70212 83237 -5269 15475 -159
18725 70519 83616 -5304 15446 -161
18806 70806 83894 -5312 15471 -161
18812 70887 84025 -5295 15516 -143
18805 70885 84022 -5359 15470 -90
18816 70988 84164 -5468 15479 -105
18840 71118 84295 -5364 15538 -143
18783 70891 84063 -5117 15569 -159
18720 70652 83831 -5149 15546 -157
18660 70409 83574 -5385 15454 -145
18601 70157 83299 -5335 15443 -180
18494 69696 82809 -5292 15478 -204
18482 69654 82827 -5392 15469 -234
18495 69630 82832 -5425 15471 -229
18568 69871 83176 -5350 15505 -213
18647 70108 83487 -5299 15531 -220
18879 71046 84592 -5338 15505 -219
19182 72283 85953 -5459 15487 -228
19346 72980 86694 -5470 15452 -270
19649 74306 88173 -5262 15418 -220
20011 75851 89807 -5282 15408 -119
20242 76859 90857 -5377 15454 -94
20548 78149 92286 -5421 15538 -108
20796 79164 93445 -5410 15579 -77
21094 80411 94834 -5441 15538 -64
21282 81245 95702 -5467 15502 -83
21447 82041 96505 -5471 15473 -140
21596 82803 97236 -5456 15456 -178
21644 83166 97522 -5438 15440 -162
21750 83806 98123 -5427 15389 -177
21763 83980 98191 -5429 15380 -160
21480 82813 96802 -5482 15380 -132
20955 80584 94277 -5511 15375 -143
20267 77654 90989 -5534 15397 -135
19599 74849 87816 -5609 15406 -184
19137 72877 85572 -5674 15413 -269
18728 71081 83614 -5715 15424 -287
18523 70160 82621 -5821 15353 -254
18291 69154 81515 -5830 15301 -171
18361 69414 81917 -5634 15360 -78
18833 71324 84113 -5389 15475 39
19019 72035 84866 -5325 15520 139
19029 72116 84898 -5521 15497 46
18786 71181 83779 -5672 15503 -90
18722 70993 83532 -5647 15509 -146
18612 70507 82986 -5467 15506 -188
18628 70605 83092 -5426 15365 -147
18843 71567 84148 -5577 15224 -65
18882 71825 84414 -5626 15272 -55
19167 73093 85831 -5432 15529 -232
19327 73731 86565 -5588 15515 -141
19308 73577 86479 -5705 15452 -106
19226 73161 86127 -5603 15417 -82
19219 73042 86080 -5517 15410 -63
19163 72722 85768 -5555 15381 -118
19036 72153 85192 -5589 15359 -174
19056 72195 85317 -5556 15403 -198
18981 71786 84937 -5528 15474 -221
18996 71742 84915 -5553 15367 -272
18830 70993 84098 -5656 15371 -254
18711 70485 83606 -5539 15436 -222
18696 70402 83563 -5374 15490 -205
18646 70184 83342 -5410 15458 -213
18626 70089 83260 -5538 15415 -212
18627 70086 83290 -5561 15420 -214
18648 70154 83407 -5447 15465 -244
18652 70136 83416 -5357 15485 -246
18648 70089 83396 -5365 15462 -242
18626 69966 83280 -5413 15459 -272
18553 69639 82928 -5407 15477 -285
18526 69508 82804 -5391 15463 -281
18525 69471 82749 -5392 15459 -289
18434 69086 82316 -5368 15473 -300
18431 69071 82306 -5361 15471 -275
18432 69062 82251 -5383 15461 -268
18343 68709 81826 -5371 15462 -296
18306 68582 81645 -5340 15469 -267
18269 68453 81463 -5332 15462 -243
18260 68423 81393 -5338 15426 -257
18244 68350 81283 -5350 15440 -234
18228 68279 81183 -5359 15490 -202
18198 68165 81030 -5301 15521 -195
18195 68140 80990 -5244 15523 -197
18164 67987 80801 -5276 15492 -184
18163 67980 80811 -5292 15478 -162
18203 68142 80975 -5276 15486 -172
18205 68114 80936 -5255 15521 -181
18377 68773 81700 -5290 15494 -135
18438 68988 81895 -5381 15448 -112
18481 69211 82200 -5355 15468 -132
18460 69168 82155 -5142 15541 -142
18510 69420 82453 -5085 15583 -145
18571 69703 82755 -5286 15518 -142
18564 69713 82790 -5427 15465 -152
18527 69591 82662 -5373 15459 -158
18438 69256 82282 -5244 15471 -147
18377 69041 82035 -5247 15468 -143
18311 68795 81761 -5310 15460 -148
18362 69027 82038 -5275 15471 -218
18296 68728 81718 -5240 15494 -187
18355 68956 81968 -5317 15532 -151
18297 68706 81686 -5429 15528 -159
18266 68575 81561 -5349 15510 -159
18271 68599 81608 -5205 15543 -157
18223 68404 81395 -5194 15536 -162
18199 68317 81299 -5280 15505 -153
18193 68296 81279 -5325 15477 -143
18175 68227 81207 -5254 15454 -144
18184 68260 81264 -5289 15489 -154
18207 68345 81355 -5277 15522 -159
18205 68334 81339 -5225 15525 -157
18194 68290 81289 -5221 15510 -156
18205 68334 81344 -5236 15498 -160
18217 68358 81373 -5234 15485 -173
18186 68214 81210 -5234 15479 -179
18160 68107 81090 -5245 15494 -170
18135 67984 80940 -5249 15476 -178
18095 67812 80750 -5238 15505 -188
18093 67781 80720 -5233 15523 -191
18107 67826 80768 -5252 15500 -185
18085 67728 80653 -5268 15470 -179
18075 67684 80603 -5273 15466 -171
18061 67607 80515 -5264 15485 -158
18061 67591 80504 -5254 15496 -170
18058 67578 80481 -5271 15494 -177
18041 67507 80384 -5293 15470 -164
17996 67300 80162 -5258 15465 -200
18102 67720 80629 -5216 15479 -175
18075 67583 80479 -5318 15468 -119
18173 67955 80935 -5410 15494 -156
18326 68543 81543 -5233 15536 -165
18341 68649 81684 -5093 15552 -142
18370 68805 81851 -5225 15514 -146
18382 68929 82011 -5394 15459 -171
18440 69202 82299 -5375 15450 -186
18408 69134 82229 -5257 15455 -186
18402 69151 82256 -5247 15429 -195
18345 68963 82027 -5311 15414 -187
18288 68780 81812 -5327 15473 -177
18249 68646 81655 -5272 15510 -188
18219 68572 81586 -5248 15510 -195
18289 68890 81933 -5282 15476 -179
18257 68764 81822 -5383 15483 -158
18267 68777 81790 -5389 15487 -157
18209 68556 81566 -5272 15496 -176
18190 68504 81509 -5216 15523 -181
18150 68354 81339 -5328 15444 -158
18092 68125 81075 -5271 15471 -148
18085 68109 81068 -5199 15528 -135
18113 68226 81201 -5246 15526 -113
18110 68237 81218 -5292 15514 -97
18128 68302 81300 -5270 15519 -115
18153 68399 81415 -5233 15523 -128
18137 68333 81333 -5224 15515 -152
18106 68199 81192 -5234 15506 -176
18115 68231 81228 -5216 15523 -181
18075 68052 81017 -5328 15444 -158
18026 67845 80780 -5271 15471 -148
17998 67727 80645 -5199 15528 -135
17943 67503 80394 -5246 15526 -113
17919 67403 80277 -5292 15514 -97
17887 67247 80092 -5270 15519 -115
17867 67171 79999 -5233 15523 -128
17840 67045 79845 -5224 15515 -152
17774 66778 79531 -5234 15506 -176
17720 66551 79266 -5257 15443 -196
17682 66379 79067 -5246 15459 -196
17612 66080 78724 -5257 15493 -197
17556 65846 78457 -5290 15524 -198
17516 65682 78242 -5306 15516 -189
17416 65279 77772 -5301 15503 -191
17505 65652 78211 -5277 15520 -200
17525 65710 78256 -5274 15517 -192
17556 65785 78362 -5309 15509 -180
17675 66229 78847 -5311 15484 -178
17635 66108 78705 -5258 15470 -167
17651 66209 78818 -5226 15494 -156
17650 66277 78909 -5234 15501 -150
17684 66469 79111 -5249 15502 -132
17660 66429 79076 -5208 15516 -154
17642 66405 79056 -5232 15504 -125
17599 66277 78906 -5362 15483 -58
17552 66119 78718 -5337 15515 -113
17460 65774 78328 -5112 15555 -159
17422 65656 78218 -5018 15562 -155
17475 65879 78472 -5147 15499 -178
17386 65522 78087 -5284 15466 -181
17396 65529 78071 -5291 15496 -176
17340 65299 77832 -5222 15505 -177
17279 65068 77572 -5239 15494 -164
17203 64771 77232 -5273 15491 -152
17163 64632 77069 -5253 15518 -135
17146 64568 76997 -5230 15546 -144
17088 64345 76737 -5223 15553 -181
17027 64108 76471 -5255 15526 -159
17013 64073 76434 -5338 15475 -153
17015 64079 76444 -5313 15472 -168
17015 64075 76442 -5197 15518 -156
17001 64010 76369 -5203 15524 -143
17001 63999 76351 -5311 15495 -109
16981 63915 76247 -5335 15482 -95
16963 63837 76153 -5236 15514 -103
16952 63796 76097 -5197 15537 -111
16927 63682 75954 -5227 15514 -116
16877 63480 75717 -5212 15506 -108
16864 63421 75637 -5183 15483 -110
16851 63377 75560 -5178 15456 -116
16847 63376 75535 -5188 15454 -112
16819 63270 75377 -5221 15468 -102
16761 63051 75102 -5228 15506 -95
16727 62938 74943 -5205 15535 -98
16716 62901 74871 -5201 15542 -104
16675 62741 74659 -5206 15540 -106
16652 62655 74538 -5215 15534 -116
16629 62575 74430 -5210 15521 -142
16680 62785 74663 -5194 15460 -127
16735 62985 74881 -5156 15492 -96
16818 63263 75213 -5155 15508 -72
16894 63537 75518 -5159 15523 -64
16909 63622 75613 -5133 15545 -58
16961 63870 75905 -5136 15545 -38
17032 64219 76309 -5184 15533 -7
17132 64645 76772 -5193 15544 0
17059 64394 76500 -5121 15580 -5
17073 64496 76650 -5137 15524 38
17140 64794 76974 -5211 15482 67
17151 64855 77044 -5167 15563 8
17152 64863 77057 -5061 15627 -41
17159 64915 77128 -5051 15591 -37
17153 64861 77067 -5210 15495 -24
17156 64866 77099 -5294 15465 -1
17198 65016 77278 -5190 15485 21
17201 64994 77252 -5150 15483 1
17159 64822 77079 -5232 15471 -37
17130 64712 76945 -5259 15480 -43
17122 64678 76909 -5235 15515 -65
17147 64777 77031 -5186 15481 -62
17153 64787 77052 -5243 15487 -43
17133 64699 76956 -5337 15510 -46
17099 64550 76788 -5321 15502 -48
17073 64451 76667 -5226 15532 -30
17050 64339 76552 -5213 15534 -25
17074 64419 76653 -5306 15515 -25
17057 64326 76540 -5342 15500 -35
17041 64242 76445 -5292 15481 -51
17023 64141 76334 -5211 15476 -40
17004 64061 76246 -5154 15512 -25
16988 63983 76152 -5140 15532 -33
16988 63999 76169 -5170 15526 -35
17030 64169 76355 -5218 15518 -35
17042 64203 76380 -5231 15511 -33
17100 64435 76643 -5206 15520 -7
17177 64720 76962 -5190 15536 -2
17183 64720 76963 -5211 15530 -14
17221 64864 77139 -5234 15498 -16
17273 65054 77346 -5212 15481 -7
17280 65055 77343 -5166 15506 6
17337 65273 77618 -5194 15518 20
17437 65660 78044 -5258 15521 31
17522 65956 78398 -5255 15539 9
17677 66537 79091 -5191 15544 4
17746 66775 79311 -5147 15539 14
17755 66847 79422 -5163 15523 0
17745 66839 79410 -5159 15519 6
17803 67125 79748 -5131 15527 -47
17812 67188 79803 -5129 15550 -13
17719 66847 79424 -5258 15496 58
17675 66696 79254 -5332 15525 21
17616 66490 79004 -5156 15586 -30
17543 66211 78687 -4982 15600 -32
17479 65962 78416 -5090 15559 -37
17484 66000 78472 -5286 15488 -61
17484 65979 78456 -5290 15500 -57
17554 66243 78750 -5173 15484 -40
17573 66311 78824 -5153 15466 -35
17594 66389 78918 -5110 15506 -26
17613 66463 79008 -5115 15532 -23
17596 66391 78923 -5156 15526 -29
17619 66482 79034 -5195 15523 -16
17644 66587 79149 -5245 15552 -12
17653 66624 79197 -5210 15573 -29
17675 66711 79301 -5132 15569 -22
17682 66722 79322 -5158 15508 -33
17682 66708 79309 -5199 15501 -33
17663 66616 79207 -5167 15536 -30
17668 66614 79224 -5127 15577 -3
17659 66547 79145 -5115 15575 18
17608 66320 78888 -5098 15567 25
17591 66239 78805 -5097 15575 24
17570 66144 78695 -5107 15579 16
17561 66081 78622 -5114 15575 9
17574 66121 78658 -5122 15546 -4
17554 66023 78544 -5122 15504 -5
17567 66055 78588 -5118 15501 8
17579 66083 78614 -5121 15527 -2
17574 66042 78566 -5116 15544 -2
17574 66025 78541 -5094 15553 5
17568 65981 78495 -5078 15547 6
17567 65955 78471 -5079 15532 3
17606 66093 78625 -5093 15527 -7
17619 66117 78661 -5104 15535 -9
17714 66499 79089 -5088 15526 -5
17750 66623 79244 -5091 15509 -5
17865 67038 79738 -5124 15510 -2
17960 67376 80084 -5131 15518 -2
17989 67536 80287 -5113 15523 -7
17978 67505 80240 -5066 15542 -33
17969 67543 80307 -5038 15584 -34
18017 67770 80561 -5098 15544 -2
17980 67671 80455 -5212 15546 -15
17945 67561 80337 -5137 15565 -61
17867 67276 80002 -4952 15592 -81
17856 67253 79978 -5195 15491 -82
17810 67088 79785 -5225 15467 -87
17772 66942 79643 -5103 15504 -71
17807 67076 79780 -5092 15537 -60
17790 67013 79734 -5170 15500 -49
17755 66844 79518 -5179 15500 -56
17790 66988 79705 -5154 15527 -65
17796 67003 79716 -5132 15549 -76
17779 66941 79651 -5123 15542 -86
17750 66819 79512 -5175 15547 -92
17779 66941 79665 -5215 15514 -113
17800 67018 79748 -5134 15525 -116
17796 67014 79753 -5049 15564 -90
17847 67211 79972 -5105 15539 -54
17854 67243 80008 -5189 15509 -41
17852 67217 79977 -5154 15497 -57
17864 67253 80020 -5103 15529 -70
17856 67193 79937 -5105 15552 -60
17766 66812 79506 -5108 15545 -55
17728 66640 79311 -5119 15489 -50
17676 66415 79045 -5116 15501 -44
17616 66163 78769 -5099 15521 -46
17613 66135 78734 -5088 15523 -47
17579 65969 78542 -5095 15514 -65
17534 65775 78319 -5117 15522 -88
17522 65721 78248 -5109 15541 -85
17546 65797 78334 -5110 15529 -96
17546 65768 78293 -5116 15513 -93
17488 65520 78011 -5111 15510 -68
17451 65361 77826 -5137 15502 -72
17451 65371 77826 -5138 15517 -68
17454 65363 77813 -5103 15545 -57
17532 65678 78178 -5080 15576 -46
17532 65673 78164 -5080 15605 -43
17608 65930 78467 -5090 15591 -63
17724 66375 78960 -5090 15555 -71
17733 66423 78991 -5094 15546 -75
17750 66519 79104 -5085 15569 -58
17665 66237 78798 -5128 15514 -10
17698 66423 78998 -5244 15484 -12
17647 66251 78796 -5186 15507 -64
17615 66173 78720 -4974 15557 -78
17558 65962 78475 -4969 15572 -50
17482 65690 78162 -5182 15502 -47
17438 65528 77962 -5299 15485 -73
17373 65295 77710 -5210 15533 -88
17395 65407 77832 -5136 15570 -89
17359 65252 77685 -5161 15535 -77
17355 65193 77584 -5148 15519 -75
17295 64953 77326 -5102 15487 -100
17281 64907 77282 -5114 15490 -99
17278 64897 77268 -5190 15551 -71
17245 64752 77101 -5242 15566 -62
17258 64813 77176 -5152 15556 -62
17269 64859 77230 -5044 15586 -59
17270 64871 77252 -5059 15588 -44
17307 65022 77431 -5129 15564 -23
17320 65063 77478 -5109 15559 -27
17305 64998 77404 -5047 15513 -36
17289 64926 77315 -5053 15532 -43
17255 64772 77123 -5057 15560 -40
17205 64560 76881 -5070 15566 -45
17166 64394 76692 -5082 15574 -57
17128 64237 76509 -5080 15557 -63
17085 64055 76283 -5081 15524 -59
17037 63868 76061 -5089 15509 -73
17010 63752 75926 -5095 15514 -91
16984 63645 75795 -5102 15511 -78
16963 63552 75684 -5115 15486 -63
16961 63527 75655 -5120 15484 -57
16945 63444 75549 -5118 15520 -48
16905 63277 75351 -5116 15542 -35
16895 63230 75292 -5121 15530 -31
16911 63303 75366 -5127 15525 -26
16925 63349 75405 -5105 15536 -25
16964 63496 75577 -5076 15537 -39
17018 63715 75821 -5077 15534 -49
17145 64186 76359 -5110 15518 -51
17276 64670 76916 -5131 15511 -52
17328 64872 77117 -5094 15553 -34
17374 65115 77392 -5128 15521 15
17330 64976 77224 -5202 15518 34
17422 65411 77723 -5125 15581 -13
17481 65684 77989 -4984 15640 -48
17404 65424 77689 -5025 15652 -27
17377 65346 77594 -5223 15568 -37
17327 65181 77395 -5289 15527 -82
17326 65183 77390 -5165 15531 -73
17267 64955 77123 -5099 15500 -80
17245 64874 77043 -5142 15460 -101
17266 64952 77153 -5153 15464 -77
17318 65122 77332 -5126 15517 -68
17339 65183 77413 -5079 15574 -60
17303 65027 77260 -5092 15560 -31
17302 65016 77254 -5173 15551 -41
17295 64995 77223 -5158 15552 -69
17321 65100 77345 -5084 15551 -34
17347 65208 77479 -5060 15565 -1
17362 65267 77558 -5110 15520 -11
17368 65285 77584 -5175 15479 -2
17389 65363 77671 -5119 15504 15
17412 65450 77772 -5045 15551 27
17423 65477 77809 -5050 15572 50
17423 65454 77786 -5066 15562 54
17416 65424 77741 -5067 15546 34
17410 65383 77687 -5066 15532 13
17409 65367 77667 -5063 15527 0
17378 65230 77507 -5064 15534 5
17345 65084 77334 -5075 15488 -4
17311 64926 77152 -5062 15492 4
17308 64911 77134 -5060 15512 15
17302 64864 77081 -5069 15543 7
17303 64855 77073 -5076 15563 -7
17293 64775 76980 -5085 15568 -3
17269 64667 76867 -5097 15566 2
17258 64607 76799 -5112 15575 -16
17252 64561 76751 -5108 15586 -28
17292 64711 76943 -5118 15528 -67
17332 64854 77092 -5117 15520 -52
17393 65074 77367 -5099 15551 -41
17580 65785 78200 -5055 15600 -27
17654 66042 78462 -5096 15565 15
17721 66348 78845 -5210 15559 12
17697 66263 78747 -5153 15607 -37
17755 66560 79109 -4964 15623 -81
17816 66822 79383 -4964 15600 -88
17740 66555 79108 -5145 15502 -96
17757 66656 79232 -5249 15453 -117
17700 66431 78959 -5174 15479 -84
17619 66134 78622 -5103 15496 -54
17582 66004 78489 -5128 15496 -56
17644 66292 78824 -5105 15536 -48
17645 66267 78809 -5065 15588 -61
17682 66395 78936 -5039 15609 -81
17682 66384 78928 -5056 15560 -71
17650 66252 78790 -5150 15553 -49
17671 66327 78881 -5189 15549 -48
17647 66227 78761 -5130 15516 -47
17625 66146 78673 -5054 15545 -33
17591 66011 78525 -5063 15561 -26
17585 65987 78500 -5111 15537 -32
17611 66089 78624 -5081 15522 -51
17614 66097 78635 -5055 15546 -55
17600 66028 78553 -5059 15560 -52
17594 65989 78515 -5060 15563 -64
17603 66011 78533 -5067 15574 -67
17572 65863 78367 -5060 15578 -56
17541 65719 78201 -5063 15508 -79
17509 65574 78041 -5065 15516 -73
17484 65456 77893 -5057 15536 -81
17432 65241 77646 -5050 15554 -96
17434 65239 77648 -5055 15565 -86
17425 65186 77579 -5053 15570 -70
17417 65131 77519 -5051 15566 -81
17423 65160 77548 -5065 15555 -80
17439 65196 77584 -5078 15551 -65
17437 65166 77554 -5096 15521 -82
17434 65144 77535 -5104 15509 -87
17430 65119 77503 -5080 15554 -64
17411 65014 77380 -5045 15576 -69
17489 65317 77741 -5025 15564 -73
17521 65440 77861 -5058 15546 -57
17594 65703 78184 -5086 15545 -64
17721 66173 78722 -5052 15574 -35
17749 66285 78809 -5122 15519 6
17802 66538 79103 -5252 15510 -22
17736 66324 78863 -4962 15518 -118
17809 66669 79254 -5025 15530 -74
17788 66619 79181 -5221 15509 -56
17767 66583 79140 -5240 15514 -77
17700 66350 78865 -5124 15556 -76
17647 66166 78654 -5082 15578 -69
17615 66068 78527 -5105 15547 -67
17558 65862 78292 -5111 15551 -80
17618 66127 78598 -5097 15579 -87
17578 65953 78409 -5095 15567 -100
17638 66175 78641 -5117 15500 -97
17585 65954 78391 -5202 15532 -80
17571 65909 78344 -5217 15570 -85
17571 65913 78348 -5095 15569 -87
17524 65717 78126 -5023 15576 -89
17527 65746 78162 -5118 15542 -72
17538 65791 78215 -5210 15532 -69
17545 65824 78251 -5159 15554 -104
17573 65944 78387 -5119 15569 -109
17582 65971 78417 -5145 15549 -85
17560 65870 78307 -5131 15524 -88
17548 65814 78246 -5097 15517 -82
17522 65701 78102 -5098 15516 -59
17474 65491 77858 -5100 15519 -58
17421 65272 77604 -5101 15504 -58
17357 64999 77293 -5123 15492 -57
17323 64866 77137 -5126 15511 -55
17282 64689 76920 -5127 15536 -69
17251 64563 76773 -5140 15547 -85
17231 64467 76662 -5129 15533 -74
17191 64298 76472 -5114 15489 -72
17195 64299 76469 -5118 15466 -63
17168 64174 76320 -5125 15487 -44
17139 64050 76175 -5120 15515 -57
17090 63843 75941 -5105 15525 -64
17066 63740 75817 -5088 15532 -55
17024 63557 75598 -5081 15550 -46
17065 63730 75812 -5104 15535 -66
17094 63827 75894 -5139 15516 -73
17136 63972 76080 -5104 15529 -85
17248 64377 76556 -5176 15476 16
17287 64535 76691 -5238 15530 -35
17343 64802 77003 -5096 15601 -69
17312 64723 76903 -4946 15626 -56
17380 65045 77283 -5043 15582 -25
17401 65160 77396 -5228 15504 -24
17347 64981 77212 -5239 15503 -46
17324 64933 77158 -5144 15513 -56
17273 64753 76936 -5140 15505 -77
17241 64649 76823 -5158 15456 -102
17238 64661 76843 -5169 15494 -120
17293 64906 77119 -5201 15499 -114
17233 64643 76824 -5213 15481 -58
17273 64795 76989 -5267 15494 -40
17271 64788 76973 -5260 15533 -60
17236 64634 76803 -5156 15563 -43
17180 64415 76568 -5116 15570 -32
17124 64195 76311 -5183 15554 -32
17071 63977 76067 -5230 15513 -47
17044 63871 75953 -5201 15492 -62
17034 63837 75922 -5172 15514 -53
17057 63927 76035 -5152 15523 -57
17041 63851 75947 -5111 15532 -54
16981 63615 75670 -5083 15530 -31
16934 63430 75454 -5103 15514 -16
16914 63345 75352 -5135 15510 -18
16894 63248 75246 -5168 15514 -39
16886 63206 75204 -5167 15523 -55
16904 63264 75257 -5123 15528 -69
16878 63150 75127 -5095 15523 -70
16893 63208 75185 -5093 15524 -45
16913 63279 75259 -5086 15538 -28
16927 63328 75305 -5077 15542 -14
16924 63317 75281 -5084 15556 -2
16925 63315 75265 -5103 15565 1
16909 63241 75171 -5107 15549 -4
16871 63074 74974 -5096 15541 -10
16860 63019 74905 -5093 15552 -14
16830 62890 74742 -5115 15558 -29
16815 62816 74662 -5152 15508 -42
16881 63089 74974 -5134 15491 -56
16913 63210 75102 -5065 15544 -53
17007 63532 75474 -5113 15514 -2
17082 63800 75778 -5187 15507 35
17097 63867 75847 -5113 15582 -4
17142 64073 76077 -5002 15638 -52
17127 64058 76061 -5024 15640 -44
17209 64417 76465 -5175 15578 -37
17145 64182 76191 -5221 15538 -42
17123 64149 76169 -5141 15468 -73
17110 64113 76113 -5146 15504 -69
17078 64011 76005 -5138 15551 -38
17062 63949 75936 -5134 15598 -39
17059 63960 75952 -5133 15614 -45
17081 64025 76026 -5129 15570 -17
17096 64075 76119 -5186 15557 -5
17153 64281 76354 -5206 15547 -40
17165 64296 76368 -5127 15541 -34
17147 64218 76309 -5075 15542 -34
17160 64265 76369 -5119 15519 -51
17160 64262 76381 -5198 15525 -37
17204 64450 76599 -5190 15551 -24
17202 64427 76576 -5146 15563 5
17206 64441 76602 -5131 15534 13
17176 64295 76444 -5109 15543 -3
17150 64192 76331 -5091 15598 -15
17166 64253 76401 -5091 15626 -44
17183 64306 76459 -5080 15605 -53
17161 64202 76345 -5095 15501 -41
17147 64125 76266 -5113 15502 -44
17117 63996 76111 -5097 15507 -19
17104 63927 76034 -5071 15521 -5
17070 63766 75843 -5053 15535 5
17006 63496 75526 -5049 15554 0
16986 63410 75419 -5055 15585 -17
16979 63381 75383 -5061 15589 -16
16993 63428 75441 -5065 15575 10
17001 63436 75460 -5077 15550 30
17025 63511 75543 -5100 15518 19
17060 63645 75693 -5119 15507 16
17116 63862 75942 -5126 15521 24
17175 64066 76180 -5095 15546 14
17239 64308 76464 -5053 15591 13
17250 64347 76501 -5141 15561 51
17356 64745 76967 -5273 15519 61
17489 65222 77515 -5198 15551 10
17496 65247 77546 -5014 15626 -49
17582 65631 77983 -5023 15652 -71
17538 65491 77807 -5186 15551 -64
17632 65921 78293 -5225 15491 -65
17644 65994 78368 -5130 15501 -47
17598 65845 78217 -5091 15467 -44
17551 65677 78011 -5160 15436 -50
17447 65291 77560 -5207 15464 -31
17392 65089 77322 -5167 15512 -34
17318 64807 77014 -5136 15543 -59
17366 65024 77273 -5141 15528 -51
17360 64984 77243 -5208 15556 -12
17396 65094 77349 -5134 15476 -37
17416 65171 77446 -5039 15528 -9
17409 65147 77444 -5122 15529 11
17448 65296 77624 -5230 15511 17
17448 65293 77624 -5196 15532 9
17483 65428 77787 -5136 15569 9
17489 65451 77819 -5132 15563 16
17513 65542 77945 -5132 15550 6
17565 65743 78179 -5096 15537 2
17586 65814 78260 -5208 15556 -12
17595 65836 78296 -5134 15476 -37
17602 65838 78305 -5039 15528 -9
17604 65830 78307 -5122 15529 11
17586 65737 78201 -5230 15511 17
17585 65714 78186 -5196 15532 9
17582 65685 78139 -5136 15569 9
17524 65435 77859 -5132 15563 16
17481 65254 77659 -5132 15550 6
17473 65206 77595 -5096 15537 2
17460 65145 77509 -5115 15475 -2
17426 64987 77335 -5114 15501 -10
17412 64912 77257 -5126 15516 -20
17407 64885 77215 -5136 15516 -22
17376 64755 77059 -5109 15522 -18
17353 64641 76936 -5086 15529 -8
17341 64577 76873 -5096 15543 -2
17343 64551 76865 -5111 15547 -10
17412 64819 77192 -5123 15533 -7
17473 65044 77439 -5126 15511 4
17562 65364 77814 -5116 15507 -3
17675 65754 78285 -5098 15548 -11
17726 65943 78487 -5070 15594 -9
17814 66339 78951 -5052 15605 -14
17815 66380 79002 -5071 15583 -16
17907 66792 79469 -5100 15562 -9
17903 66807 79482 -5099 15550 -43
17880 66743 79426 -5064 15579 -59
17861 66705 79373 -5089 15543 -3
17821 66564 79210 -5183 15506 18
17785 66436 79057 -5161 15519 -49
17709 66140 78741 -5002 15560 -99
17717 66205 78836 -4980 15581 -73
17693 66067 78685 -5142 15513 -48
17750 66249 78933 -5192 15482 -51
17714 66055 78731 -5106 15508 -47
17691 65928 78642 -5058 15537 -61
17726 66037 78813 -5109 15542 -71
17726 65986 78797 -5122 15542 -62
17758 66069 78940 -5069 15547 -64
17795 66178 79115 -5072 15539 -76
17841 66344 79344 -5104 15539 -80
17907 66572 79629 -5164 15572 -57
17961 66766 79874 -5211 15571 -48
18003 66887 80040 -5122 15574 -43
17984 66792 79940 -5035 15604 -40
17982 66757 79919 -5101 15600 -50
17993 66770 79935 -5192 15562 -44
17936 66511 79659 -5188 15543 -58
17895 66313 79469 -5119 15546 -75
17926 66417 79595 -5170 15473 -120
17889 66233 79376 -5122 15511 -91
17857 66095 79236 -5090 15553 -81
17866 66116 79257 -5121 15555 -83
17852 66047 79184 -5156 15543 -98
17879 66124 79256 -5160 15530 -118
17833 65914 79018 -5137 15522 -126
17850 65958 79083 -5151 15527 -154
17839 65895 79013 -5154 15542 -182
17873 66025 79147 -5113 15526 -172
17884 66040 79151 -5081 15501 -159
17910 66125 79277 -5087 15499 -165
17962 66293 79464 -5097 15511 -152
18054 66631 79874 -5084 15556 -130
18131 66872 80189 -5058 15584 -119
18251 67299 80693 -5041 15591 -127
18301 67492 80974 -5042 15569 -144
18316 67528 81122 -5050 15554 -141
18432 67922 81716 -5064 15575 -112
18452 67875 81884 -5065 15552 -112
18461 67747 82052 -5116 15530 -79
18386 67356 81807 -5188 15550 -77
17802 65092 79170 -5141 15619 -136
16676 60781 74005 -4962 15662 -183
15408 56095 68296 -4951 15650 -198
14385 52316 63523 -5120 15625 -234
12880 46541 56414 -5219 15594 -314
10555 37338 45873 -5138 15648 -436
10246 36208 45043 -5064 15687 -594
11542 41448 50858 -5063 15512 -708
10968 39210 47902 -4955 15492 -658
9716 34603 42861 -4797 15712 -570
10033 36128 44791 -4854 15854 -551
10366 37533 46050 -4697 15669 -447
9835 35411 43524 -4217 15236 -342
9835 35287 43847 -3888 14853 -737
10198 36634 45310 -4987 15297 -405
9973 35652 44180 -5635 15902 737
9909 35172 43966 -4096 15965 1163
10146 35930 44948 -3762 16195 952
10147 35957 44793 -5064 15958 166
9909 35048 43731 -5274 15257 -526
9995 35248 44208 -4384 15210 -567
10308 36232 45466 -4353 15640 -410
10278 36086 45245 -4732 15739 -237
10251 36034 45083 -4460 15567 -300
10180 35687 44759 -4219 15554 -423
10179 35703 44743 -4382 15720 -31
10101 35668 44318 -4390 15791 481
9857 34930 43223 -4202 15853 7
9749 34495 42817 -4441 15848 -108
9801 34776 43048 -4437 15708 25
9784 34868 42950 -4208 15660 120
9769 34850 42952 -4067 15766 62
9865 35162 43405 -4265 15811 118
10153 36245 44780 -4574 15626 313
10466 37442 46125 -4366 15556 294
10648 38163 46971 -4097 15716 92
11004 39420 48653 -4490 15599 244
11352 40632 50202 -4205 15721 212
11398 40760 50383 -4104 15812 63
11435 40857 50589 -4305 15829 105
11595 41454 51383 -4576 15789 246
11926 42571 52845 -4663 15704 178
11906 42387 52646 -4442 15759 -44
11846 42148 52453 -4306 15791 -87
12265 43654 54430 -4443 15660 119
12584 44735 55750 -4530 15652 208
12602 44761 55851 -4582 15692 39
12908 45871 57360 -4633 15699 -18
13195 46876 58580 -4509 15629 223
13192 46845 58560 -4331 15630 361
13369 47524 59450 -4530 15804 210
13533 48096 60144 -4889 15727 152
13445 47764 59745 -4751 15589 331
13542 48153 60263 -4539 15681 381
13656 48560 60751 -4678 15720 265
13633 48473 60653 -4709 15618 305
13714 48777 61042 -4637 15548 357
13757 48923 61211 -4657 15617 306
13800 49090 61424 -4666 15676 358
13856 49284 61667 -4728 15642 387
13911 49484 61918 -4761 15657 298
14024 49891 62426 -4718 15662 309
14050 49974 62514 -4687 15639 358
14041 49942 62472 -4705 15612 352
14037 49918 62433 -4721 15604 348
14042 49929 62439 -4732 15618 331
14015 49829 62306 -4762 15575 337
13998 49767 62216 -4762 15548 346
14010 49802 62253 -4759 15585 352
13951 49565 61941 -4776 15605 383
13997 49743 62181 -4789 15605 388
14071 50003 62503 -4792 15606 371
14184 50404 62995 -4774 15601 370
14332 50937 63678 -4741 15595 399
14503 51578 64448 -4738 15607 417
14663 52199 65217 -4772 15619 437
14754 52575 65678 -4797 15588 493
14893 53132 66376 -4781 15602 501
15008 53575 66922 -4788 15618 502
15019 53637 67007 -4854 15588 567
15018 53652 67026 -4859 15622 563
14952 53422 66722 -4711 15655 477
14888 53194 66443 -4571 15678 447
14888 53221 66485 -4691 15655 492
14854 53087 66292 -4875 15596 500
14853 53104 66344 -4876 15597 489
14840 53033 66212 -4829 15571 518
14761 52747 65874 -4847 15591 516
14776 52818 65961 -4825 15625 505
14776 52821 65958 -4791 15654 468
14759 52761 65879 -4757 15641 475
14741 52703 65803 -4818 15647 509
14712 52606 65673 -4944 15599 528
14675 52464 65504 -4893 15570 548
14676 52479 65529 -4786 15628 540
14717 52626 65711 -4877 15567 611
14702 52551 65617 -4837 15572 616
14714 52592 65680 -4796 15611 601
14736 52651 65743 -4814 15627 602
14737 52656 65766 -4832 15629 602
14782 52804 65960 -4831 15621 598
14822 52942 66134 -4813 15612 604
14847 53013 66223 -4788 15604 607
14864 53069 66290 -4791 15602 595
14860 53028 66238 -4812 15583 602
14854 53004 66220 -4818 15560 620
14860 52995 66204 -4824 15572 618
14777 52672 65806 -4831 15606 601
14808 52779 65948 -4839 15624 570
14737 52489 65574 -4848 15629 556
14693 52308 65353 -4846 15626 554
14758 52544 65638 -4837 15620 548
14717 52396 65426 -4841 15611 560
14716 52421 65458 -4842 15602 530
14625 52123 65074 -4835 15639 515
14683 52375 65392 -4870 15572 591
14712 52502 65540 -4916 15541 610
14672 52368 65405 -4868 15626 545
14706 52528 65606 -4657 15652 503
14714 52547 65614 -4620 15636 518
14676 52426 65472 -4830 15580 553
14750 52719 65846 -4914 15566 529
14722 52587 65674 -4836 15591 530
14809 52925 66111 -4763 15606 561
14788 52817 65954 -4811 15587 526
14765 52734 65864 -4851 15552 541
14789 52835 65979 -4817 15584 555
14766 52747 65855 -4782 15646 501
14740 52646 65727 -4781 15628 508
14702 52521 65559 -4861 15616 511
14667 52393 65394 -4865 15621 499
14626 52231 65194 -4784 15623 518
14629 52246 65211 -4766 15641 520
14626 52230 65182 -4815 15626 546
14619 52190 65134 -4869 15610 564
14609 52146 65062 -4821 15594 555
14583 52037 64927 -4819 15623 562
14545 51896 64744 -4829 15636 569
14475 51597 64377 -4821 15642 553
14428 51425 64172 -4788 15635 545
14411 51347 64069 -4786 15618 556
14386 51235 63937 -4801 15614 582
14397 51262 63969 -4815 15609 597
14406 51279 63991 -4820 15610 611
14433 51374 64115 -4843 15571 588
14476 51530 64306 -4823 15577 601
14497 51581 64358 -4816 15606 609
14515 51650 64453 -4829 15635 611
14574 51839 64658 -4839 15645 613
14559 51762 64569 -4845 15629 599
14629 51995 64880 -4845 15597 598
14699 52245 65145 -4851 15577 592
14714 52326 65254 -4844 15612 564
14726 52397 65316 -4944 15565 667
14761 52574 65537 -4946 15590 616
14825 52838 65839 -4749 15625 552
14803 52780 65768 -4655 15637 541
14798 52774 65775 -4813 15605 557
14775 52696 65661 -4948 15576 549
14704 52438 65338 -4920 15593 520
14672 52337 65229 -4842 15616 519
14692 52399 65283 -4853 15616 520
14658 52275 65171 -4892 15587 535
14725 52500 65418 -4888 15556 551
14673 52302 65177 -4855 15570 524
14704 52426 65344 -4832 15581 533
14708 52430 65333 -4891 15619 540
14666 52277 65156 -4944 15621 514
14717 52467 65397 -4886 15607 518
14735 52527 65459 -4823 15655 510
14748 52567 65516 -4836 15645 541
14748 52553 65504 -4896 15603 546
14759 52585 65553 -4899 15588 505
14764 52579 65548 -4864 15585 517
14706 52355 65268 -4858 15601 526
14693 52297 65200 -4851 15623 517
14672 52195 65063 -4843 15631 499
14621 51995 64819 -4812 15648 473
14614 51954 64777 -4779 15638 462
14584 51827 64613 -4792 15616 448
14572 51775 64540 -4805 15598 449
14557 51703 64445 -4797 15611 472
14537 51623 64348 -4783 15659 458
14574 51745 64502 -4785 15629 461
14595 51802 64566 -4813 15646 458
14599 51804 64570 -4814 15648 454
14615 51850 64610 -4787 15654 411
14609 51825 64583 -4755 15646 392
14679 52057 64867 -4761 15640 419
14714 52164 64990 -4772 15633 421
14727 52185 65029 -4747 15656 404
14773 52343 65195 -4719 15688 406
14767 52349 65203 -4777 15611 484
14780 52423 65273 -4866 15541 549
14827 52640 65547 -4820 15596 472
14893 52908 65857 -4640 15678 374
14853 52776 65702 -4602 15687 368
14840 52758 65686 -4791 15613 412
14826 52717 65624 -4906 15578 448
14794 52610 65488 -4833 15579 465
14770 52532 65402 -4768 15575 466
14769 52525 65379 -4793 15583 458
14681 52197 64986 -4807 15591 477
14649 52066 64792 -4790 15613 483
14513 51568 64172 -4798 15595 520
14414 51217 63743 -4864 15586 537
14382 51102 63590 -4865 15596 532
14285 50751 63150 -4801 15610 557
14233 50571 62933 -4795 15642 549
14183 50387 62710 -4818 15642 553
14143 50232 62524 -4824 15635 584
14117 50134 62416 -4801 15634 600
14113 50111 62398 -4791 15608 630
14110 50099 62392 -4807 15577 646
14107 50083 62378 -4790 15588 633
14126 50135 62446 -4752 15623 613
14119 50098 62400 -4731 15646 591
14144 50170 62501 -4724 15662 573
14156 50199 62539 -4737 15647 567
14149 50166 62498 -4739 15624 580
14148 50160 62495 -4734 15626 581
14155 50175 62509 -4704 15633 575
14174 50226 62581 -4709 15620 599
14206 50320 62708 -4747 15604 619
14228 50387 62789 -4745 15616 616
14239 50410 62812 -4742 15623 599
14276 50552 62999 -4745 15637 582
14355 50817 63321 -4755 15632 600
14397 50963 63488 -4756 15629 621
14505 51332 63962 -4716 15645 587
14493 51273 63857 -4716 15638 602
14514 51381 64016 -4813 15569 664
14522 51438 64060 -4847 15584 676
14553 51603 64273 -4727 15635 648
14585 51732 64418 -4613 15659 571
14523 51536 64202 -4688 15654 553
14564 51703 64416 -4829 15615 578
14560 51702 64390 -4838 15631 572
14495 51478 64117 -4770 15631 581
14501 51519 64186 -4771 15611 572
14537 51652 64334 -4797 15605 559
14556 51715 64438 -4760 15641 570
14575 51761 64473 -4798 15572 571
14564 51721 64427 -4824 15597 598
14525 51575 64259 -4886 15603 593
14539 51629 64326 -4846 15610 577
14500 51485 64143 -4759 15640 585
14489 51445 64102 -4767 15637 572
14478 51389 64039 -4827 15633 583
14469 51360 64010 -4839 15614 595
14482 51411 64084 -4815 15631 583
14513 51514 64213 -4837 15587 633
14496 51443 64133 -4816 15596 599
14523 51537 64255 -4785 15636 585
14541 51586 64308 -4766 15641 567
14538 51566 64287 -4766 15642 527
14544 51580 64300 -4764 15630 523
14536 51539 64255 -4785 15604 529
14519 51455 64139 -4815 15598 523
14472 51280 63924 -4811 15619 516
14479 51291 63939 -4801 15627 525
14474 51260 63896 -4803 15605 547
14475 51249 63890 -4792 15612 538
14468 51213 63842 -4760 15635 513
14471 51210 63831 -4752 15647 502
14437 51074 63653 -4771 15636 504
14509 51347 64003 -4781 15615 526
14535 51407 64066 -4792 15602 531
14552 51441 64119 -4783 15638 517
14633 51733 64475 -4802 15621 572
14618 51692 64415 -4903 15594 635
14681 51962 64742 -4870 15595 606
14656 51916 64685 -4643 15611 550
14730 52234 65076 -4602 15642 534
14761 52378 65257 -4796 15589 545
14726 52271 65137 -4899 15554 522
14706 52238 65097 -4843 15578 493
14714 52287 65150 -4788 15600 503
14690 52204 65045 -4819 15579 511
14661 52117 64956 -4837 15567 516
14699 52259 65110 -4798 15590 519
14693 52243 65121 -4807 15573 516
14711 52291 65153 -4824 15527 510
14657 52082 64908 -4858 15561 508
14657 52098 64935 -4905 15569 509
14647 52062 64882 -4831 15570 512
14590 51866 64644 -4751 15611 501
14576 51822 64590 -4801 15596 497
14588 51872 64661 -4880 15564 519
14590 51888 64679 -4863 15569 514
14611 51956 64772 -4823 15610 503
14636 52054 64891 -4829 15596 555
14651 52095 64940 -4817 15600 526
14652 52089 64933 -4815 15604 516
14638 52029 64860 -4824 15609 525
14635 52015 64844 -4823 15613 526
14625 51965 64784 -4818 15620 510
14619 51929 64732 -4816 15617 482
14584 51797 64572 -4821 15607 471
14588 51791 64574 -4826 15608 476
14616 51882 64691 -4839 15552 484
14640 51951 64782 -4816 15568 472
14669 52042 64903 -4787 15604 450
14705 52161 65057 -4771 15624 439
14765 52367 65322 -4756 15645 441
14797 52453 65422 -4746 15657 459
14783 52401 65379 -4754 15660 496
14946 52977 66080 -4746 15674 461
14959 53000 66105 -4749 15676 486
15014 53184 66354 -4843 15609 592
15076 53379 66563 -4912 15580 558
14987 53034 66191 -4736 15624 457
14845 52518 65534 -4570 15685 409
14560 51543 64268 -4665 15672 419
14498 51420 64084 -4819 15633 393
14490 51420 63999 -4831 15668 321
14330 50888 63331 -4744 15588 383
14485 51528 64076 -4752 15533 455
14434 51360 63778 -4793 15584 434
14356 51123 63490 -4757 15609 494
14600 52052 64633 -4763 15626 499
14573 51905 64390 -4785 15641 420
14531 51786 64267 -4750 15649 464
14570 51920 64391 -4821 15687 448
14491 51643 64041 -4822 15701 353
14492 51666 64063 -4722 15639 397
14475 51595 63974 -4763 15632 449
14437 51465 63842 -4823 15665 459
14531 51804 64277 -4803 15655 439
14566 51906 64424 -4805 15611 408
14623 52103 64710 -4787 15633 442
14729 52472 65200 -4787 15644 384
14821 52770 65594 -4791 15625 371
14889 52990 65906 -4765 15653 384
14914 53050 65999 -4789 15644 397
15005 53387 66452 -4812 15619 362
15141 53867 67023 -4799 15626 331
15117 53767 66899 -4810 15600 380
15179 54000 67187 -4823 15616 390
15248 54251 67466 -4833 15629 384
15289 54393 67627 -4810 15650 402
15309 54451 67689 -4801 15667 407
15342 54571 67852 -4821 15664 415
15419 54842 68163 -4834 15639 429
15421 54852 68161 -4810 15639 418
15521 55236 68627 -4802 15623 413
15604 55521 68953 -4803 15622 457
15573 55394 68792 -4791 15633 434
15632 55625 69078 -4869 15550 460
15665 55723 69203 -4869 15589 440
15705 55827 69320 -4768 15658 398
15762 56024 69585 -4680 15641 369
15687 55738 69240 -4704 15666 352
15683 55759 69298 -4802 15687 337
15693 55834 69418 -4867 15636 335
15742 56038 69698 -4898 15573 320
15714 55934 69629 -4850 15614 265
15794 56250 70099 -4718 15666 241
15856 56467 70368 -4719 15703 210
15598 55479 69173 -4823 15801 -10
15108 53645 66846 -4763 15937 -278
14268 50669 63003 -4590 15906 -248
13438 47657 59063 -4457 15660 119
12262 43350 53565 -3982 15135 175
10348 36322 44695 -4112 15012 -203
9412 32940 41184 -4981 15423 -37
10186 35747 44583 -4652 15653 665
10343 36376 45042 -3646 16077 1160
9861 34503 43083 -3761 16389 1152
9579 33404 42169 -4683 15908 670
9576 33705 42366 -4866 15213 -19
9417 33346 41726 -4406 15106 -413
9253 32678 41014 -4356 15484 -213
9214 32482 40923 -4668 15760 141
9398 33251 41750 -4561 15673 77
9364 33119 41476 -4137 15594 -249
9125 32148 40479 -4268 15726 -344
9326 32744 41466 -4632 15693 -11
9555 33600 42304 -3761 16389 1152
9304 32741 41112 -4683 15908 670
9271 32563 41118 -4866 15213 -19
9467 33167 41898 -4406 15106 -413
9374 32869 41398 -4356 15484 -213
9478 33280 41902 -4668 15760 141
9733 34060 42924 -4561 15673 77
9741 33925 42900 -4137 15594 -249
9694 33774 42705 -4268 15726 -344
9642 33696 42440 -4632 15693 -11
9649 33887 42477 -4122 15788 236
9723 34164 42769 -4229 15915 104
9600 33657 42221 -4438 15765 182
9512 33443 41881 -4523 15717 137
9615 34078 42338 -4386 15829 2
9805 34701 43166 -4114 15839 104
9914 34883 43667 -4119 15737 356
10090 35634 44529 -4320 15645 461
10472 37244 46320 -4357 15619 360
10767 38247 47651 -4228 15601 194
10951 38799 48485 -4042 15666 207
11117 39446 49225 -4154 15798 435
11382 40414 50463 -4557 15798 434
11712 41477 51881 -4431 15755 70
11701 41323 51713 -4047 15765 -183
11651 41151 51597 -4430 15673 115
12058 42586 53372 -5009 15617 521
11998 42306 52998 -4787 15707 437
12016 42372 53206 -4360 15729 131
12337 43525 54679 -4749 15660 280
12438 43852 55067 -4698 15700 242
12557 44313 55679 -4431 15685 212
12838 45322 56952 -4317 15693 245
12906 45540 57237 -4727 15741 166
13113 46295 58225 -4954 15655 205
13358 47169 59308 -4588 15639 381
13455 47491 59715 -4480 15707 352
13647 48185 60632 -4599 15691 332
13888 49029 61691 -4599 15601 492
13983 49347 62086 -4627 15589 511
14089 49728 62583 -4627 15669 484
14245 50282 63260 -4608 15680 509
14299 50443 63455 -4633 15691 451
14335 50572 63627 -4632 15694 466
14424 50889 64018 -4634 15664 518
14523 51231 64433 -4667 15650 464
14527 51228 64408 -4673 15645 433
14619 51592 64862 -4685 15631 469
14709 51884 65194 -4734 15629 469
14671 51729 64974 -4770 15609 480
14733 51969 65274 -4786 15592 525
14796 52202 65485 -4785 15599 519
14779 52179 65436 -4773 15624 502
14734 52059 65272 -4758 15630 535
14768 52241 65491 -4789 15609 591
14817 52461 65749 -4831 15626 577
14868 52671 66024 -4800 15656 591
14973 53091 66555 -4817 15593 674
15095 53549 67124 -4875 15589 657
15188 53909 67562 -4812 15607 627
15325 54437 68225 -4675 15619 663
15358 54539 68326 -4695 15646 702
15442 54870 68737 -4860 15604 726
15403 54699 68498 -4902 15576 723
15330 54441 68168 -4823 15601 721
15258 54189 67847 -4795 15621 731
15208 54010 67604 -4835 15593 745
15117 53686 67185 -4858 15589 740
15020 53333 66732 -4838 15624 695
14937 53047 66380 -4908 15585 721
14864 52772 66022 -4962 15570 690
14776 52456 65632 -4907 15555 656
14745 52346 65494 -4856 15583 615
14691 52138 65221 -4875 15582 592
14604 51810 64817 -4905 15590 590
14542 51584 64528 -4906 15605 597
14492 51396 64287 -4908 15616 609
14452 51238 64081 -4906 15610 629
14390 50989 63774 -4849 15568 695
14354 50861 63623 -4838 15592 672
14372 50904 63666 -4821 15599 658
14317 50688 63405 -4807 15586 641
14444 51146 63983 -4816 15583 641
14448 51123 63947 -4834 15588 651
14479 51217 64083 -4823 15609 648
14647 51820 64824 -4799 15616 643
14628 51731 64693 -4800 15617 634
14627 51757 64749 -4820 15612 665
14607 51721 64684 -4830 15591 643
14623 51817 64798 -4811 15632 614
14609 51784 64749 -4803 15591 664
14562 51613 64549 -4899 15555 642
14519 51467 64367 -4908 15599 581
14443 51195 64014 -4684 15630 562
14338 50808 63543 -4625 15637 552
14318 50731 63437 -4822 15591 543
14250 50467 63144 -4960 15571 538
14296 50624 63329 -4935 15572 556
14245 50412 63082 -4872 15550 599
14218 50319 62982 -4873 15539 601
14289 50571 63301 -4869 15569 580
14285 50548 63270 -4825 15615 553
14289 50553 63297 -4788 15625 546
14324 50671 63450 -4839 15633 571
14298 50560 63311 -4899 15624 547
14246 50364 63083 -4835 15609 537
14240 50334 63049 -4764 15626 554
14214 50229 62918 -4776 15625 567
14194 50140 62821 -4826 15568 627
14149 49959 62583 -4842 15543 643
14070 49664 62227 -4791 15610 580
14036 49529 62067 -4766 15643 547
14022 49460 61985 -4777 15657 551
13995 49331 61835 -4776 15661 545
13928 49073 61506 -4760 15644 548
13868 48849 61233 -4735 15633 559
13866 48844 61229 -4751 15631 572
13859 48797 61166 -4782 15633 567
13863 48786 61142 -4786 15599 524
13831 48655 60980 -4745 15643 527
13784 48481 60723 -4718 15645 553
13752 48414 60633 -4731 15632 575
13693 48215 60355 -4751 15631 556
13674 48203 60348 -4746 15653 553
13719 48382 60558 -4773 15622 640
13618 48029 60132 -4803 15599 712
13592 47975 60082 -4749 15662 676
13605 48034 60142 -4622 15702 609
13592 47992 60108 -4642 15667 637
13641 48169 60342 -4806 15584 689
13632 48124 60296 -4854 15572 660
13720 48446 60708 -4782 15593 664
13778 48625 60933 -4749 15581 697
13751 48519 60808 -4772 15588 675
13798 48692 61042 -4749 15618 667
13771 48590 60890 -4746 15650 671
13715 48389 60659 -4770 15627 683
13743 48487 60789 -4873 15599 730
13729 48422 60711 -4807 15603 701
13698 48301 60570 -4715 15641 699
13678 48220 60475 -4734 15646 686
13649 48110 60336 -4789 15614 727
13646 48092 60317 -4772 15599 726
13642 48069 60292 -4747 15631 705
13642 48050 60278 -4760 15613 741
13633 48010 60226 -4767 15594 747
13633 47999 60212 -4742 15592 733
13635 48002 60212 -4734 15576 752
13622 47938 60125 -4739 15577 760
13631 47974 60177 -4743 15587 762
13702 48206 60445 -4747 15579 761
13678 48107 60324 -4744 15594 749
13789 48493 60820 -4739 15624 740
13865 48748 61107 -4724 15639 738
13836 48667 61023 -4711 15641 755
13874 48830 61216 -4688 15638 728
13915 49025 61457 -4685 15669 728
13982 49285 61769 -4780 15597 812
13909 49036 61467 -4870 15550 812
13907 49053 61514 -4759 15625 756
13938 49175 61640 -4562 15678 730
13895 49034 61460 -4589 15662 718
13920 49120 61590 -4787 15595 726
13912 49090 61533 -4847 15592 717
13927 49146 61634 -4768 15610 733
13958 49238 61726 -4762 15587 725
13922 49088 61543 -4804 15564 696
13900 49021 61478 -4790 15577 706
13921 49085 61548 -4776 15573 692
13861 48874 61285 -4822 15605 725
13869 48906 61328 -4883 15624 707
13876 48935 61358 -4825 15603 695
13884 48959 61388 -4741 15619 701
13914 49064 61521 -4791 15603 702
13968 49246 61751 -4853 15568 730
13966 49228 61725 -4819 15567 720
13980 49270 61787 -4801 15565 716
13997 49315 61844 -4806 15583 708
13993 49285 61808 -4789 15598 706
14003 49317 61845 -4773 15593 711
14002 49294 61818 -4775 15579 720
13998 49273 61792 -4777 15572 702
14006 49286 61805 -4777 15583 682
13999 49248 61756 -4768 15596 665
13977 49159 61653 -4763 15628 653
14113 49639 62252 -4763 15640 673
14112 49603 62197 -4771 15616 713
14116 49604 62226 -4779 15621 736
14240 50042 62737 -4793 15622 743
14199 49917 62569 -4777 15626 679
14170 49836 62456 -4765 15686 661
14159 49868 62485 -4818 15631 765
14194 50031 62674 -4897 15584 761
14173 49977 62614 -4774 15632 681
14139 49882 62502 -4545 15676 664
14128 49866 62468 -4630 15650 697
14102 49773 62340 -4887 15547 727
14084 49731 62299 -4924 15534 711
14140 49931 62529 -4776 15577 692
14086 49732 62316 -4751 15588 693
14151 49958 62570 -4833 15570 707
14079 49687 62240 -4820 15594 708
14077 49690 62251 -4753 15643 677
14096 49761 62338 -4729 15633 694
14073 49675 62227 -4783 15644 717
14066 49668 62223 -4861 15624 694
14064 49662 62216 -4798 15562 709
14055 49621 62159 -4716 15566 721
14069 49673 62225 -4749 15577 718
14094 49762 62328 -4800 15574 741
14068 49665 62196 -4798 15582 735
14051 49599 62121 -4778 15614 714
14080 49693 62227 -4789 15614 713
14074 49662 62175 -4781 15605 717
14069 49639 62136 -4756 15619 710
14062 49607 62079 -4748 15638 714
14037 49514 61949 -4760 15607 726
14007 49395 61790 -4780 15579 711
13992 49335 61721 -4774 15590 694
14012 49400 61795 -4763 15598 693
14016 49402 61781 -4764 15622 697
13987 49290 61641 -4753 15647 696
14151 49882 62361 -4749 15642 706
14135 49799 62224 -4742 15634 719
14168 49910 62375 -4729 15633 711
14254 50209 62696 -4751 15609 721
14153 49851 62244 -4786 15575 741
14045 49485 61774 -4775 15554 691
13976 49289 61523 -4748 15565 730
13935 49164 61340 -4824 15554 826
13840 48852 60947 -4894 15591 743
13837 48884 60952 -4713 15653 641
13771 48681 60629 -4559 15688 636
13704 48493 60342 -4669 15687 633
13722 48601 60437 -4843 15645 651
13791 48870 60724 -4861 15592 671
13752 48725 60578 -4758 15571 648
13848 49036 60974 -4787 15535 692
13841 48976 60957 -4757 15608 644
13916 49215 61331 -4747 15652 620
14053 49682 61976 -4763 15646 672
14104 49837 62194 -4802 15698 700
14159 50049 62494 -4842 15717 692
14276 50470 63020 -4799 15658 696
14316 50616 63213 -4733 15664 673
14372 50806 63468 -4748 15682 668
14397 50879 63589 -4825 15605 687
14469 51105 63930 -4826 15548 640
14459 51009 63863 -4776 15571 602
14378 50674 63529 -4792 15607 637
14449 50894 63850 -4771 15644 651
14469 50927 63829 -4732 15652 613
14080 49517 61950 -4753 15708 583
13324 46856 58379 -4710 15740 576
12183 42813 53109 -4654 15687 529
11126 38993 48208 -4728 15608 398
9495 32885 40722 -4724 15570 227
8993 30946 39105 -4569 15814 89
10009 34658 43449 -4384 16042 -12
9828 34339 42454 -4384 15792 -29
9347 32303 40659 -4007 15058 -39
9693 33074 42274 -3969 15059 81
9855 34034 42918 -5024 15745 895
9541 33218 41713 -4930 15780 1617
9493 32787 41777 -3506 15752 1164
9536 32941 42069 -3488 15934 457
9402 32969 41632 -4645 15566 673
9700 34289 43075 -4589 15366 1071
9790 34411 43373 -3707 15739 658
9531 33291 42315 -3877 15757 372
9901 34662 44138 -4919 15334 616
10504 36864 46669 -5282 15295 402
10392 36297 46035 -4620 15595 -255
10177 35491 45222 -4031 15638 -434
10561 36988 46948 -4458 15646 -191
10715 37552 47433 -5024 15781 178
10483 36526 46373 -4520 15820 566
10443 36340 46252 -3956 15763 660
10560 36850 46676 -4442 15770 461
10336 36134 45602 -4867 15713 317
10141 35484 44834 -4511 15652 258
10249 35979 45313 -4252 15751 228
10268 36142 45351 -4475 15837 366
10238 36063 45236 -4495 15803 556
10333 36428 45660 -4190 15722 567
10478 36941 46336 -4137 15714 503
10829 38198 47935 -4306 15661 576
11175 39458 49401 -4284 15640 600
11404 40225 50398 -4127 15780 514
11656 41113 51472 -4077 15891 455
11739 41362 51789 -4179 15827 395
11879 41826 52431 -4419 15645 395
12076 42461 53256 -4414 15594 479
12071 42395 53166 -4313 15721 464
12131 42589 53453 -4383 15780 366
12267 43016 53988 -4376 15788 329
12370 43341 54431 -4586 15679 435
12580 44014 55337 -4501 15610 554
12707 44404 55807 -4406 15669 538
12912 45116 56738 -4468 15717 484
13183 46041 57901 -4503 15728 591
13291 46410 58379 -4454 15697 678
13458 47026 59200 -4555 15657 741
13658 47735 60097 -4594 15728 715
13728 47996 60458 -4395 15737 607
13873 48516 61174 -4494 15620 726
14002 48975 61756 -4623 15636 725
13990 48930 61700 -4572 15672 714
14025 49097 61951 -4546 15699 666
14240 49851 62891 -4626 15652 666
14178 49624 62644 -4639 15602 716
14359 50289 63506 -4599 15642 655
14486 50728 64037 -4598 15722 586
14451 50610 63885 -4671 15723 656
14471 50705 64016 -4826 15662 671
14493 50805 64117 -4861 15588 633
14461 50700 63972 -4763 15583 674
14438 50643 63879 -4784 15638 672
14342 50308 63422 -4878 15641 661
14224 49907 62898 -4889 15607 718
14159 49686 62607 -4810 15575 729
14085 49424 62268 -4743 15579 749
14066 49369 62208 -4740 15592 805
14105 49503 62375 -4767 15576 830
14128 49584 62484 -4770 15571 877
14214 49893 62891 -4737 15575 925
14390 50524 63696 -4724 15580 933
14562 51136 64464 -4746 15585 938
14770 51874 65401 -4784 15598 906
14950 52513 66201 -4813 15663 844
15224 53512 67458 -4826 15726 822
15419 54171 68252 -4872 15659 857
15386 54024 68049 -4927 15549 904
15473 54366 68471 -4888 15516 857
15521 54547 68607 -4858 15600 794
15469 54400 68383 -4962 15573 843
15335 53950 67810 -5148 15462 850
15225 53586 67369 -5163 15514 708
15169 53416 67180 -4946 15599 621
15210 53592 67356 -4891 15607 695
15156 53440 67139 -5089 15531 764
15416 54454 68399 -5233 15511 753
15630 55236 69300 -5169 15581 710
15696 55497 69581 -5053 15578 750
15653 55364 69376 -5019 15538 788
15650 55414 69322 -4969 15548 841
15517 54994 68706 -4977 15535 1015
15177 53789 67108 -5075 15535 1085
15029 53358 66578 -5094 15509 1055
14995 53217 66401 -5000 15521 1008
15616 55618 69631 -4983 15489 1128
15428 54662 67796 -5014 15439 1179
13391 47571 58983 -4970 15440 1204
13867 49454 61499 -5024 15444 1160
14185 50426 62579 -4934 15309 1602
13731 48906 60636 -5169 15479 1357
13882 49514 61278 -5231 15509 1262
13978 49883 61797 -4931 15358 1774
14146 50439 62486 -5000 15198 1640
14358 51211 63537 -5134 15345 1548
14619 52036 64621 -5266 15415 1626
14397 51143 63515 -5257 15379 1564
14022 49795 61812 -5326 15357 1496
13684 48495 60260 -5344 15191 1446
13266 46844 58246 -5397 15359 1182
12609 44433 55265 -5555 15601 1111
11943 42142 52217 -5660 15581 1363
11404 40409 49925 -5587 15247 1665
11542 40886 50543 -5371 15026 1750
11131 39586 48608 -5155 15145 1659
11212 40218 49327 -5067 15192 1889
12187 43661 53577 -4867 15020 2169
12644 45194 55500 -5030 15036 1934
12772 45708 56238 -5301 15412 1939
13306 47570 58588 -5119 15678 2218
13288 47501 58397 -5141 15633 2012
13286 47494 58424 -5241 15393 1798
13091 46693 57505 -5157 15286 1744
12804 45562 56279 -5182 15480 1701
12889 45747 56729 -5199 15585 1802
12856 45551 56503 -5291 15506 1735
12744 45152 56029 -5467 15398 1498
12755 45145 56072 -5371 15344 1435
12696 44917 55797 -5338 15347 1437
12473 44159 54820 -5525 15328 1493
12350 43800 54354 -5443 15325 1638
12200 43348 53622 -5156 15342 1662
11865 42316 52174 -5054 15367 1593
11824 42289 52059 -5053 15338 1632
11794 42250 51899 -5032 15283 1686
11744 42124 51687 -5025 15316 1661
11772 42261 51817 -5063 15358 1730
11919 42792 52470 -5195 15410 1839
11997 43054 52800 -5296 15379 1803
12092 43349 53219 -5318 15413 1831
12279 43948 54023 -5392 15429 1855
12312 44011 54123 -5519 15394 1856
12408 44320 54588 -5470 15322 1878
12596 44918 55381 -5379 15322 1850
12722 45269 55891 -5462 15319 1862
12632 44888 55480 -5629 15287 1915
12773 45339 56121 -5645 15230 1940
12754 45233 55961 -5219 15253 1686
12972 45979 56975 -5428 15410 1697
13038 46180 57232 -5554 15382 1755
13408 47519 59096 -5182 15233 1522
14021 49624 61801 -4870 15400 1183
14375 50869 63353 -5053 15591 1243
14549 51499 64162 -5539 15454 1478
14922 52902 65958 -5679 15108 1362
15096 53451 66530 -5183 15139 892
14908 52836 65802 -5374 15640 849
15229 54049 67276 -6044 15170 961
15451 54886 68232 -6021 14831 870
15879 56416 70263 -5548 15245 656
15651 55405 68907 -5167 15574 668
15349 54529 67799 -5513 15395 473
16205 57582 71580 -5956 15204 570
15402 54370 67643 -5526 15296 841
14697 51973 64950 -5116 15458 386
15339 54411 67845 -5346 15402 53
15670 55627 69034 -5688 15376 496
15283 54192 67244 -5833 15365 779
15123 53641 66760 -5642 15348 522
15558 55193 68743 -5263 15464 331
15678 55585 69069 -5254 15538 467
15324 54350 67417 -5556 15498 619
15040 53367 66191 -5644 15412 582
15127 53712 66682 -5423 15447 418
15357 54473 67622 -5144 15552 353
15226 53981 66973 -5074 15565 380
15206 53943 66930 -5217 15473 321
15432 54765 67916 -5481 15367 323
15736 55873 69329 -5688 15405 374
15843 56175 69502 -5610 15330 436
15236 54050 66867 -5414 15313 424
15438 54840 67916 -5421 15407 212
15610 55370 68443 -5537 15425 239
15318 54400 67189 -5529 15462 328
15648 55650 68738 -5490 15515 161
15823 56228 69422 -5512 15454 200
15694 55811 68914 -5606 15253 305
15734 56024 69143 -5614 15245 233
15773 56211 69355 -5421 15402 205
15834 56456 69645 -5345 15466 226
15680 55903 68946 -5495 15445 299
15547 55476 68423 -5618 15447 317
15607 55720 68713 -5604 15465 251
15603 55691 68638 -5500 15422 297
15508 55357 68267 -5405 15429 345
15516 55359 68217 -5379 15505 302
15332 54704 67437 -5403 15482 237
15378 54867 67672 -5442 15400 239
15425 55036 67878 -5381 15316 289
15370 54843 67592 -5347 15338 310
15239 54395 67022 -5389 15452 295
15247 54434 67104 -5513 15490 273
15354 54799 67572 -5547 15449 320
15291 54545 67256 -5444 15405 346
15211 54258 66941 -5355 15396 303
15187 54144 66811 -5389 15413 300
15119 53870 66499 -5393 15409 297
15053 53610 66211 -5389 15405 303
14979 53331 65871 -5408 15403 313
14909 53067 65561 -5386 15427 353
14863 52898 65353 -5314 15473 370
14835 52792 65207 -5257 15527 376
14911 53080 65591 -5388 15513 503
15091 53681 66349 -5594 15490 574
15110 53721 66389 -5528 15541 497
15079 53576 66242 -5243 15567 363
15022 53353 65968 -5129 15554 248
15013 53329 66003 -5298 15468 262
15017 53336 66019 -5497 15379 284
14950 53153 65795 -5489 15369 306
14974 53261 65928 -5327 15389 346
14875 52888 65522 -5251 15388 380
14869 52852 65554 -5312 15385 422
14825 52642 65341 -5410 15448 395
14758 52360 65045 -5397 15489 367
14758 52325 65050 -5346 15527 411
14648 51873 64532 -5336 15563 400
14737 52146 64943 -5206 15597 360
14645 51751 64437 -5170 15626 322
14508 51273 63898 -5231 15529 350
14622 51636 64318 -5174 15453 463
14501 51227 63816 -5115 15434 471
14577 51511 64174 -5056 15430 511
14598 51581 64228 -5013 15442 592
14574 51491 64152 -5030 15490 595
14525 51268 63917 -5346 15527 411
14353 50600 63142 -5336 15563 400
14295 50372 62925 -5206 15597 360
14303 50361 62940 -5170 15626 322
14346 50507 63164 -5231 15529 350
14455 50871 63636 -5174 15453 463
14548 51181 64054 -5115 15434 471
14648 51522 64483 -5056 15430 511
14646 51506 64450 -5013 15442 592
14731 51843 64879 -5030 15490 595
14831 52187 65242 -5192 15548 398
14760 51941 64887 -5240 15558 326
14864 52338 65407 -5209 15558 299
14907 52498 65564 -5151 15532 283
14891 52473 65554 -5112 15502 326
14936 52676 65819 -5090 15446 393
14974 52856 66041 -5079 15418 433
15043 53154 66428 -5081 15462 403
15132 53483 66853 -5119 15493 451
15101 53385 66746 -5224 15459 562
15093 53381 66758 -5334 15502 499
15045 53213 66540 -5223 15558 398
15075 53338 66715 -5050 15546 388
15011 53082 66398 -5151 15511 395
15012 53091 66417 -5362 15453 422
14990 52993 66306 -5450 15451 446
14944 52832 66099 -5376 15489 446
14903 52700 65943 -5305 15489 472
14858 52540 65747 -5359 15452 462
14832 52451 65651 -5389 15439 412
14865 52585 65830 -5334 15470 439
14845 52487 65709 -5376 15481 447
14821 52405 65631 -5401 15474 401
14871 52580 65873 -5342 15465 376
14921 52738 66088 -5358 15472 373
14948 52828 66209 -5421 15478 383
14971 52889 66295 -5423 15461 406
14959 52834 66234 -5349 15468 412
14929 52710 66102 -5311 15475 438
14928 52686 66088 -5335 15448 467
14900 52569 65955 -5364 15461 442
15018 52997 66517 -5357 15490 414
15076 53162 66700 -5317 15500 413
14985 52814 66284 -5293 15483 423
15146 53390 67031 -5282 15472 440
15118 53299 66888 -5281 15483 442
15130 53388 67008 -5298 15486 409
15075 53227 66794 -5299 15481 380
15004 53034 66553 -5278 15472 344
15021 53133 66682 -5268 15482 365
14955 52911 66413 -5278 15439 470
14896 52716 66196 -5408 15440 475
14877 52660 66129 -5414 15493 385
14891 52726 66237 -5168 15538 342
14961 52963 66503 -5140 15559 357
14882 52678 66221 -5339 15472 399
14991 53047 66665 -5427 15401 397
14924 52789 66354 -5322 15444 359
14906 52729 66287 -5220 15501 383
14872 52599 66114 -5268 15467 413
14802 52357 65821 -5313 15429 396
14871 52621 66171 -5276 15468 359
14928 52810 66400 -5224 15487 379
14925 52793 66389 -5280 15523 395
14933 52814 66428 -5373 15503 353
14926 52772 66378 -5284 15466 339
14901 52662 66255 -5207 15497 324
14870 52538 66100 -5254 15482 322
14849 52454 66002 -5310 15460 333
14839 52409 65934 -5258 15450 319
14817 52318 65814 -5244 15473 321
14779 52159 65615 -5258 15487 307
14763 52098 65547 -5275 15484 271
14783 52156 65604 -5254 15506 252
14680 51782 65132 -5217 15518 243
14816 52277 65754 -5254 15508 238
14855 52380 65837 -5330 15511 244
14780 52103 65514 -5322 15507 247
14937 52667 66189 -5239 15505 248
14903 52571 66038 -5207 15486 237
14871 52493 65928 -5231 15474 227
14807 52314 65695 -5272 15470 239
14852 52536 65970 -5267 15489 189
14931 52850 66359 -5238 15493 182
14917 52814 66315 -5331 15436 272
14847 52574 66019 -5421 15444 241
14802 52435 65830 -5251 15512 180
14847 52619 66042 -5106 15570 199
14741 52212 65510 -5256 15532 221
14801 52424 65828 -5444 15424 218
14803 52409 65783 -5442 15405 193
14741 52182 65503 -5298 15441 195
14732 52160 65474 -5270 15447 206
14715 52100 65396 -5355 15429 170
14706 52073 65373 -5351 15451 114
14768 52299 65661 -5281 15491 123
14775 52317 65676 -5303 15575 140
14745 52217 65547 -5401 15565 110
14777 52339 65699 -5352 15497 115
14799 52411 65767 -5264 15468 126
14783 52355 65691 -5299 15453 118
14837 52535 65921 -5317 15474 120
14880 52662 66087 -5260 15495 107
14908 52762 66217 -5206 15526 90
14955 52921 66388 -5205 15508 95
14911 52768 66162 -5214 15480 86
14923 52804 66214 -5198 15488 60
15021 53163 66667 -5150 15509 50
15228 53902 67565 -5147 15526 51
15359 54375 68112 -5191 15495 53
15522 54963 68831 -5180 15459 60
15611 55261 69114 -5149 15463 67
15521 54959 68723 -5151 15468 101
15556 55098 68856 -5101 15506 151
15393 54537 68094 -5061 15555 187
15330 54423 67970 -5115 15560 208
15415 54761 68346 -5143 15544 224
15359 54613 68151 -5082 15536 225
15303 54429 67938 -5074 15541 215
15226 54181 67649 -5263 15425 257
15144 53903 67305 -5202 15544 174
15046 53556 66886 -5075 15606 142
15061 53610 66989 -5199 15611 157
15011 53397 66759 -5413 15580 195
15100 53703 67171 -5352 15555 252
15069 53559 66992 -5196 15528 251
14993 53267 66652 -5122 15480 237
14979 53213 66591 -5150 15436 260
14864 52782 66051 -5131 15502 263
14799 52552 65792 -5144 15536 262
