Time(s)	IR_denoised_wiener
0.000000	-822.602357
0.010000	-1070.258469
0.020000	-664.903185
0.030000	-187.873003
0.040000	326.681882
0.050000	777.560641
0.060000	1189.518305
0.070000	1697.876441
0.080000	2259.449318
0.090000	2657.974803
0.100000	3028.609839
0.110000	3293.090997
0.120000	3655.823753
0.130000	3939.776231
0.140000	4339.681743
0.150000	4709.153835
0.160000	5114.091668
0.170000	5418.953277
0.180000	5706.749850
0.190000	6917.092928
0.200000	8226.893606
0.210000	9504.130378
0.220000	9835.898396
0.230000	10051.631755
0.240000	10364.227564
0.250000	10624.161349
0.260000	10915.227021
0.270000	11060.677236
0.280000	11064.430276
0.290000	11084.997608
0.300000	11211.829291
0.310000	11457.832014
0.320000	11660.141895
0.330000	11694.507513
0.340000	11785.820433
0.350000	11876.151753
0.360000	12056.993364
0.370000	12080.620032
0.380000	12006.437231
0.390000	11926.610582
0.400000	11925.296229
0.410000	12015.514310
0.420000	12055.844292
0.430000	12044.920570
0.440000	11897.283784
0.450000	11777.473669
0.460000	11680.388597
0.470000	11687.065588
0.480000	11665.381091
0.490000	10932.622585
0.500000	10128.487089
0.510000	9267.614917
0.520000	9000.829805
0.530000	8877.408386
0.540000	8820.697054
0.550000	8882.388601
0.560000	8574.252652
0.570000	8105.124984
0.580000	7646.216813
0.590000	7573.940431
0.600000	7704.828864
0.610000	7774.723351
0.620000	7767.982667
0.630000	7904.682898
0.640000	8249.241468
0.650000	8762.560594
0.660000	9167.385165
0.670000	9437.670435
0.680000	9615.929113
0.690000	9954.906036
0.700000	10364.081598
0.710000	10577.547525
0.720000	10606.218210
0.730000	10657.956570
0.740000	10700.591583
0.750000	10659.481008
0.760000	10473.570263
0.770000	10412.484216
0.780000	10314.269928
0.790000	9926.480969
0.800000	9517.644929
0.810000	9124.086686
0.820000	8990.507871
0.830000	8979.226607
0.840000	9066.603928
0.850000	9074.196618
0.860000	8934.595547
0.870000	8760.253169
0.880000	8614.045417
0.890000	8404.816235
0.900000	8192.174054
0.910000	7945.731853
0.920000	7863.197234
0.930000	7892.898878
0.940000	8122.541127
0.950000	8303.080422
0.960000	8347.270296
0.970000	8452.653128
0.980000	8505.755568
0.990000	8441.303191
1.000000	8148.060838
1.010000	7742.191926
1.020000	7454.295674
1.030000	7190.472430
1.040000	6988.509616
1.050000	6665.765936
1.060000	6451.139940
1.070000	6375.134844
1.080000	6449.673752
1.090000	7092.239678
1.100000	7717.743412
1.110000	8348.636744
1.120000	8438.875943
1.130000	8488.197740
1.140000	8602.218217
1.150000	8734.634264
1.160000	8969.211027
1.170000	9293.433427
1.180000	9671.433840
1.190000	9913.103439
1.200000	10083.986927
1.210000	10483.377116
1.220000	11065.554231
1.230000	11527.907141
1.240000	11572.763719
1.250000	11604.326835
1.260000	11708.728076
1.270000	11794.888102
1.280000	11685.416754
1.290000	11036.286076
1.300000	10415.571251
1.310000	9826.091724
1.320000	9676.132379
1.330000	9548.589435
1.340000	9456.834231
1.350000	9377.945132
1.360000	9246.375894
1.370000	9071.462537
1.380000	8882.928690
1.390000	8702.913290
1.400000	8554.437072
1.410000	8461.652576
1.420000	8423.828074
1.430000	8335.721272
1.440000	8199.796791
1.450000	8104.974696
1.460000	8001.998598
1.470000	7914.706762
1.480000	7819.680389
1.490000	7810.033851
1.500000	7805.826958
1.510000	7809.525777
1.520000	7780.792830
1.530000	7745.467978
1.540000	7690.251317
1.550000	7648.469914
1.560000	7699.766856
1.570000	7741.900252
1.580000	7728.027258
1.590000	7641.337142
1.600000	7617.963111
1.610000	7622.556354
1.620000	7778.586364
1.630000	7978.055519
1.640000	8374.842362
1.650000	8784.202519
1.660000	9422.107867
1.670000	9966.779091
1.680000	10425.180418
1.690000	11345.075992
1.700000	12333.568479
1.710000	13261.660883
1.720000	13428.947613
1.730000	13390.919590
1.740000	13264.343324
1.750000	13082.166733
1.760000	12942.466902
1.770000	12790.205904
1.780000	12530.690970
1.790000	12256.298368
1.800000	12151.704718
1.810000	12260.536194
1.820000	12440.403516
1.830000	12492.143820
1.840000	12420.183589
1.850000	12331.551643
1.860000	12334.815826
1.870000	12425.158785
1.880000	12537.121639
1.890000	12625.658105
1.900000	12681.023093
1.910000	12743.455887
1.920000	12908.232632
1.930000	13126.677552
1.940000	13267.363067
1.950000	13300.321571
1.960000	13286.883371
1.970000	13303.474841
1.980000	13271.440782
1.990000	13235.759241
2.000000	13215.380027
2.010000	13217.459585
2.020000	13228.706376
2.030000	13283.395355
2.040000	13446.884309
2.050000	13580.531719
2.060000	13702.247715
2.070000	13694.713340
2.080000	13699.065428
2.090000	13632.017351
2.100000	13506.213001
2.110000	13383.851356
2.120000	13268.587757
2.130000	13199.497964
2.140000	13066.261426
2.150000	12964.747301
2.160000	12935.145674
2.170000	12945.154716
2.180000	12953.021407
2.190000	12984.424964
2.200000	13010.752415
2.210000	13008.373309
2.220000	12865.231573
2.230000	12704.284678
2.240000	12533.037617
2.250000	12508.242983
2.260000	12533.444838
2.270000	12598.059983
2.280000	12638.990124
2.290000	12707.131761
2.300000	12745.841029
2.310000	12778.015553
2.320000	12700.264432
2.330000	12668.189112
2.340000	12564.174840
2.350000	12497.883224
2.360000	12373.074875
2.370000	12391.275740
2.380000	12344.054842
2.390000	11027.130916
2.400000	9271.815409
2.410000	7246.012131
2.420000	5936.999635
2.430000	4661.469795
2.440000	3338.996173
2.450000	2269.787594
2.460000	1204.957479
2.470000	320.737434
2.480000	-459.987788
2.490000	-1071.138670
2.500000	-1668.770910
2.510000	-2661.277416
2.520000	-3839.770030
2.530000	-4425.103129
2.540000	-4178.180791
2.550000	-3703.850262
2.560000	-3958.836565
2.570000	-4643.433460
2.580000	-5399.961762
2.590000	-6174.153659
2.600000	-6895.019671
2.610000	-7271.255667
2.620000	-6998.704104
2.630000	-6366.657658
2.640000	-5824.840693
2.650000	-5550.664686
2.660000	-5539.505013
2.670000	-5723.868119
2.680000	-5893.153360
2.690000	-5911.328073
2.700000	-5586.374251
2.710000	-5050.078254
2.720000	-4665.973719
2.730000	-4640.145882
2.740000	-4694.333913
2.750000	-4426.973630
2.760000	-3921.465949
2.770000	-3603.856700
2.780000	-3453.158742
2.790000	-2957.855380
2.800000	-2323.959469
2.810000	-1696.832272
2.820000	-1476.946601
2.830000	-1341.983929
2.840000	-1186.363219
2.850000	-1071.435835
2.860000	-967.712974
2.870000	-875.827317
2.880000	-695.650360
2.890000	-547.028215
2.900000	-502.002543
2.910000	-543.538070
2.920000	-532.246468
2.930000	-583.315776
2.940000	-876.577421
2.950000	-1251.742968
2.960000	-1656.128400
2.970000	-1711.207185
2.980000	-1219.115043
2.990000	-300.827391
3.000000	458.335214
3.010000	608.295321
3.020000	379.017261
3.030000	104.727608
3.040000	-39.388431
3.050000	-166.958403
3.060000	-338.982094
3.070000	-565.176878
3.080000	-766.011408
3.090000	-855.733176
3.100000	-867.061817
3.110000	-950.649874
3.120000	-1135.154427
3.130000	-1530.842101
3.140000	-1952.494283
3.150000	-2272.592387
3.160000	-2488.250120
3.170000	-2662.605088
3.180000	-2799.264255
3.190000	-2905.390070
3.200000	-3045.873489
3.210000	-3333.751178
3.220000	-3464.453620
3.230000	-3251.561986
3.240000	-2879.852411
3.250000	-2654.509917
3.260000	-2692.548033
3.270000	-2703.158624
3.280000	-2536.458817
3.290000	-2257.566473
3.300000	-1979.008953
3.310000	-1716.558211
3.320000	-1192.944345
3.330000	-474.691461
3.340000	143.622848
3.350000	511.693376
3.360000	789.490283
3.370000	1146.545404
3.380000	1451.297887
3.390000	1644.021416
3.400000	1854.378549
3.410000	2074.532187
3.420000	2209.291214
3.430000	2172.131529
3.440000	2084.165092
3.450000	2112.574477
3.460000	2236.231629
3.470000	2334.112373
3.480000	2427.049879
3.490000	2855.884041
3.500000	3347.195279
3.510000	3675.460913
3.520000	3550.496107
3.530000	3249.923028
3.540000	3005.322196
3.550000	2939.062881
3.560000	3103.927481
3.570000	3224.263593
3.580000	3194.956676
3.590000	3050.796645
3.600000	2971.992574
3.610000	2916.652840
3.620000	2765.742260
3.630000	2601.981333
3.640000	2361.667083
3.650000	2195.802621
3.660000	1986.415340
3.670000	1838.457477
3.680000	1720.669848
3.690000	1636.413518
3.700000	1564.388440
3.710000	1484.563907
3.720000	1508.652101
3.730000	1675.021769
3.740000	1927.824920
3.750000	2258.436266
3.760000	2495.035437
3.770000	2731.726049
3.780000	2831.414827
3.790000	3004.767134
3.800000	3117.635587
3.810000	3420.645702
3.820000	3687.987353
3.830000	4100.406021
3.840000	4357.775675
3.850000	4743.852824
3.860000	4996.807115
3.870000	5578.019709
3.880000	5931.436571
3.890000	6362.604242
3.900000	5855.479396
3.910000	3144.873008
3.920000	-1659.652747
3.930000	-6055.313493
3.940000	-8853.666258
3.950000	-10847.987545
3.960000	-11314.161940
3.970000	-14914.803152
3.980000	-21477.871056
3.990000	-37534.940278
4.000000	-45340.196510
4.010000	-50442.945245
4.020000	-54095.683570
4.030000	-56734.150821
4.040000	-59150.799918
4.050000	-59874.879026
4.060000	-58427.050738
4.070000	-53597.458163
4.080000	-45796.899265
4.090000	-36153.471258
4.100000	-25457.712609
4.110000	-16396.596382
4.120000	-10170.554498
4.130000	-5740.030184
4.140000	-3670.241793
4.150000	-1718.737726
4.160000	-1949.547273
4.170000	-3107.121710
4.180000	-5440.783692
4.190000	-8290.781278
4.200000	-33624.976137
4.210000	-29526.241780
4.220000	-22087.466391
4.230000	-16025.596929
4.240000	-12266.805648
4.250000	-9248.028536
4.260000	-8053.799327
4.270000	-6746.655088
4.280000	-6163.912149
4.290000	-4664.308240
4.300000	-3480.421881
4.310000	-1578.576758
4.320000	-460.070004
4.330000	642.874940
4.340000	727.236888
4.350000	742.171030
4.360000	48.661621
4.370000	-488.926583
4.380000	-1704.102560
4.390000	-4857.057746
4.400000	-7156.269424
4.410000	-8061.238571
4.420000	-6449.373925
4.430000	-5246.745050
4.440000	-4894.528441
4.450000	-4600.742082
4.460000	-4293.206652
4.470000	-3023.548436
4.480000	-1232.585366
4.490000	370.353637
4.500000	572.429821
4.510000	-427.759924
4.520000	-2394.347281
4.530000	-4582.706540
4.540000	-7502.468754
4.550000	-11386.795656
4.560000	-16490.888287
4.570000	-21953.391224
4.580000	-26881.129139
4.590000	-31070.458143
4.600000	-35330.397498
4.610000	-40046.610252
4.620000	-44444.395091
4.630000	-47365.961175
4.640000	-47970.515496
4.650000	-45719.060710
4.660000	-41608.775431
4.670000	-36118.991894
4.680000	-30308.238017
4.690000	-24264.515172
4.700000	-18793.534924
4.710000	-14775.833947
4.720000	-12250.463744
4.730000	-11022.427581
4.740000	-10328.749253
4.750000	-9194.688525
4.760000	-7055.408371
4.770000	-4326.555668
4.780000	-2042.345053
4.790000	-908.431037
4.800000	-682.253356
4.810000	-601.453344
4.820000	-371.686997
4.830000	-318.082269
4.840000	-1127.350901
4.850000	-3439.819559
4.860000	-7190.979967
4.870000	-12160.027211
4.880000	-17417.895287
4.890000	-22661.851868
4.900000	-28430.349493
4.910000	-35144.801397
4.920000	-42802.655839
4.930000	-47234.321829
4.940000	-48377.950000
4.950000	-47352.692302
4.960000	-46056.588999
4.970000	-44664.208374
4.980000	-42075.269109
4.990000	-38687.043220
5.000000	-34261.071543
5.010000	-29166.745164
5.020000	-24239.346788
5.030000	-20308.286254
5.040000	-17599.815913
5.050000	-15804.200776
5.060000	-14495.807208
5.070000	-13480.920931
5.080000	-12772.529594
5.090000	-11897.463813
5.100000	-10346.304955
5.110000	-8288.685427
5.120000	-6581.108249
5.130000	-5835.370658
5.140000	-5597.113260
5.150000	-5293.855687
5.160000	-4710.217490
5.170000	-3944.982835
5.180000	-3277.591273
5.190000	-2819.415842
5.200000	-2507.581341
5.210000	-2216.097754
5.220000	-1710.356031
5.230000	-1106.152384
5.240000	-331.352197
5.250000	364.845451
5.260000	886.346530
5.270000	1153.836432
5.280000	1339.689613
5.290000	1530.216781
5.300000	1806.316249
5.310000	2076.427871
5.320000	2238.892209
5.330000	2353.732739
5.340000	2406.920440
5.350000	2559.513438
5.360000	2649.729507
5.370000	2749.944060
5.380000	2719.633189
5.390000	2661.060092
5.400000	2637.454106
5.410000	2723.237161
5.420000	2845.573365
5.430000	2910.397871
5.440000	3024.625712
5.450000	3279.569257
5.460000	3520.060377
5.470000	3664.006391
5.480000	3744.883224
5.490000	3879.081057
5.500000	4045.744598
5.510000	4100.571136
5.520000	4133.342340
5.530000	4145.250277
5.540000	4182.501680
5.550000	4235.553147
5.560000	4296.447759
5.570000	4404.105990
5.580000	4581.142418
5.590000	4812.688031
5.600000	4926.208277
5.610000	4935.257480
5.620000	4906.234276
5.630000	4883.252723
5.640000	4880.336602
5.650000	4912.414699
5.660000	5067.809999
5.670000	5232.863283
5.680000	5378.361885
5.690000	5517.279434
5.700000	5645.055763
5.710000	5725.470529
5.720000	5832.920409
5.730000	5957.301500
5.740000	6048.552251
5.750000	6043.979664
5.760000	6061.232873
5.770000	6124.626468
5.780000	6184.941350
5.790000	6103.930029
5.800000	5959.817086
5.810000	5850.197542
5.820000	5701.471382
5.830000	5572.749626
5.840000	5451.520302
5.850000	5431.188529
5.860000	5385.232286
5.870000	5276.477777
5.880000	5160.475019
5.890000	5041.239324
5.900000	4986.845272
5.910000	4931.589384
5.920000	4827.892251
5.930000	4717.148402
5.940000	4667.648628
5.950000	4711.247114
5.960000	4712.589739
5.970000	4658.663348
5.980000	4595.679174
5.990000	4579.094764
6.000000	4545.770090
6.010000	4563.550561
6.020000	4521.705861
6.030000	4513.572850
6.040000	4431.098488
6.050000	4351.451141
6.060000	4243.544993
6.070000	4127.826074
6.080000	4049.084004
6.090000	3986.717565
6.100000	3975.809268
6.110000	3998.835009
6.120000	3987.435787
6.130000	3934.498626
6.140000	3876.898133
6.150000	3866.589035
6.160000	3864.833763
6.170000	3797.641978
6.180000	3736.565450
6.190000	3411.824007
6.200000	3152.010769
6.210000	2931.440025
6.220000	2942.799776
6.230000	2969.345591
6.240000	2987.202758
6.250000	3064.591822
6.260000	3073.157003
6.270000	3024.985067
6.280000	3053.208405
6.290000	3180.843966
6.300000	3345.797517
6.310000	3412.943781
6.320000	3397.912197
6.330000	3441.167963
6.340000	3532.397546
6.350000	3649.146871
6.360000	3653.022452
6.370000	3611.485737
6.380000	3543.311410
6.390000	3555.534646
6.400000	3571.232575
6.410000	3584.251868
6.420000	3573.924268
6.430000	3583.625151
6.440000	3576.545634
6.450000	3560.607584
6.460000	3626.216206
6.470000	3660.524105
6.480000	3610.880772
6.490000	3485.439251
6.500000	3458.168663
6.510000	3456.514789
6.520000	3412.977489
6.530000	3429.565828
6.540000	3506.352458
6.550000	3611.377841
6.560000	3588.571646
6.570000	3582.871150
6.580000	3644.387713
6.590000	3736.987651
6.600000	3787.966128
6.610000	3738.674921
6.620000	3709.571309
6.630000	3742.684276
6.640000	3807.851670
6.650000	3860.864448
6.660000	3891.102936
6.670000	3921.350908
6.680000	3959.864713
6.690000	3986.311772
6.700000	3966.142856
6.710000	3969.451253
6.720000	4028.878449
6.730000	4124.676236
6.740000	4156.624804
6.750000	4040.846918
6.760000	3876.109288
6.770000	3637.917852
6.780000	3299.161000
6.790000	2903.426315
6.800000	2603.090432
6.810000	2505.726198
6.820000	2472.593361
6.830000	2369.624448
6.840000	2263.234633
6.850000	2255.209703
6.860000	2324.129507
6.870000	2397.582362
6.880000	2454.762354
6.890000	2519.676431
6.900000	2604.295888
6.910000	2723.714889
6.920000	2852.990651
6.930000	2970.034413
6.940000	2964.384604
6.950000	2971.306087
6.960000	3022.774089
6.970000	3163.895015
6.980000	3303.739740
6.990000	3456.390755
7.000000	3618.277201
7.010000	3764.449958
7.020000	3828.324348
7.030000	3837.393434
7.040000	3785.573640
7.050000	3773.593104
7.060000	3782.124454
7.070000	3776.717580
7.080000	3778.462545
7.090000	3657.396943
7.100000	3740.694300
7.110000	3808.881324
7.120000	3961.109235
7.130000	3939.695293
7.140000	3856.182851
7.150000	3846.890106
7.160000	3860.722723
7.170000	3857.764794
7.180000	3806.269021
7.190000	3849.438783
7.200000	3975.041959
7.210000	4118.958559
7.220000	4178.364951
7.230000	4251.688807
7.240000	4320.693240
7.250000	4401.841397
7.260000	4421.769801
7.270000	4500.521440
7.280000	4579.352791
7.290000	4656.022019
7.300000	4731.277183
7.310000	4786.136078
7.320000	4838.304465
7.330000	4822.024108
7.340000	4811.052540
7.350000	4816.077544
7.360000	4862.514029
7.370000	4882.548855
7.380000	4914.608852
7.390000	4945.888566
7.400000	4998.810422
7.410000	5000.978689
7.420000	4968.600333
7.430000	4966.213999
7.440000	4966.818684
7.450000	4963.518446
7.460000	5019.577678
7.470000	5156.724080
7.480000	5278.026668
7.490000	5342.098769
7.500000	5322.533867
7.510000	5359.615550
7.520000	5276.521544
7.530000	5192.965356
7.540000	5075.774977
7.550000	4997.959533
7.560000	4902.023073
7.570000	4849.968699
7.580000	4859.169005
7.590000	4832.016088
7.600000	4673.342576
7.610000	4489.304245
7.620000	4383.196294
7.630000	4364.355832
7.640000	4283.970599
7.650000	4193.646272
7.660000	4117.023224
7.670000	4127.428355
7.680000	4095.541126
7.690000	3842.763619
7.700000	3581.488073
7.710000	3381.395353
7.720000	3363.263720
7.730000	3316.806048
7.740000	3199.187421
7.750000	3154.083663
7.760000	3073.775134
7.770000	3111.097885
7.780000	3002.573507
7.790000	2327.701374
7.800000	1631.711296
7.810000	1038.501015
7.820000	981.719606
7.830000	860.812952
7.840000	728.207227
7.850000	704.999052
7.860000	733.890124
7.870000	805.668831
7.880000	786.916501
7.890000	810.086488
7.900000	844.846424
7.910000	890.268560
7.920000	882.954755
7.930000	885.813859
7.940000	975.784255
7.950000	1061.579401
7.960000	1051.962489
7.970000	1077.301834
7.980000	1035.182566
7.990000	1098.461145
8.000000	1058.034005
8.010000	1162.557785
8.020000	1232.054495
8.030000	1282.538658
8.040000	1309.363754
8.050000	1305.524821
8.060000	1316.495157
8.070000	1300.281661
8.080000	1315.245995
8.090000	1441.107181
8.100000	1547.094938
8.110000	1617.925658
8.120000	1674.384904
8.130000	1811.288937
8.140000	2070.537175
8.150000	2369.316825
8.160000	2612.662691
8.170000	2740.780740
8.180000	2717.525375
8.190000	2690.755024
8.200000	2749.898656
8.210000	2986.071090
8.220000	3255.964619
8.230000	3539.394568
8.240000	3540.608980
8.250000	2770.855888
8.260000	686.102084
8.270000	-2863.266286
8.280000	-6885.270189
8.290000	-11095.667210
8.300000	-14978.341198
8.310000	-19431.622597
8.320000	-24705.635354
8.330000	-30231.332052
8.340000	-34173.121868
8.350000	-33701.984201
8.360000	-29349.023833
8.370000	-23501.316037
8.380000	-18837.544656
8.390000	-15547.058620
8.400000	-12850.589966
8.410000	-10519.649322
8.420000	-8205.974097
8.430000	-5094.959309
8.440000	-1574.660500
8.450000	1101.021291
8.460000	1580.721906
8.470000	569.654750
8.480000	-1273.685206
8.490000	-3948.845876
8.500000	-5333.924500
8.510000	-5185.496968
8.520000	-3259.485235
8.530000	-2097.454402
8.540000	-1561.674551
8.550000	-423.735750
8.560000	1245.582866
8.570000	3065.146818
8.580000	3935.551773
8.590000	3092.301445
8.600000	480.155501
8.610000	-2708.763254
8.620000	-4559.232134
8.630000	-4191.314299
8.640000	-2863.802238
8.650000	-1690.440657
8.660000	-1310.374573
8.670000	-1386.189282
8.680000	-1520.418459
8.690000	-1565.927296
8.700000	-1405.845977
8.710000	-786.254730
8.720000	393.674867
8.730000	1929.616564
8.740000	3013.910156
8.750000	3299.793312
8.760000	3114.036256
8.770000	3104.895274
8.780000	3482.669677
8.790000	4082.344563
8.800000	4693.892219
8.810000	5069.403803
8.820000	4913.031640
8.830000	3257.669117
8.840000	176.412286
8.850000	-3174.371585
8.860000	-5320.614659
8.870000	-4982.224113
8.880000	-3541.565504
8.890000	-2190.162576
8.900000	-1788.215254
8.910000	-1830.959767
8.920000	-1727.902687
8.930000	-1693.239004
8.940000	-1636.356939
8.950000	-1823.434257
8.960000	-2149.727222
8.970000	-2185.336627
8.980000	-1566.879084
8.990000	-540.844977
9.000000	295.409108
9.010000	452.682122
9.020000	157.402552
9.030000	-135.087666
9.040000	-52.422859
9.050000	163.866809
9.060000	213.334947
9.070000	-9.229459
9.080000	-493.508918
9.090000	-1424.780595
9.100000	-2707.163551
9.110000	-4495.268048
9.120000	-6355.449479
9.130000	-6991.966639
9.140000	-6445.984882
9.150000	-5224.855114
9.160000	-4629.273943
9.170000	-4508.998313
9.180000	-4518.264294
9.190000	-4718.830873
9.200000	-4809.158626
9.210000	-4954.512397
9.220000	-5182.573605
9.230000	-5499.364612
9.240000	-5281.488300
9.250000	-3852.631541
9.260000	-1310.420283
9.270000	1009.478024
9.280000	2129.743991
9.290000	2494.271589
9.300000	2723.843133
9.310000	3037.746606
9.320000	3009.287365
9.330000	2844.413681
9.340000	2754.201912
9.350000	2637.347430
9.360000	2563.044471
9.370000	2486.429357
9.380000	2416.498112
9.390000	2264.373976
9.400000	2140.298491
9.410000	2140.748961
9.420000	2217.838847
9.430000	2276.131459
9.440000	2322.800761
9.450000	2497.352081
9.460000	2737.016701
9.470000	2902.841284
9.480000	2999.439679
9.490000	3059.221089
9.500000	3136.070759
9.510000	3105.929446
9.520000	3002.286667
9.530000	2970.097526
9.540000	3038.673306
9.550000	3174.917314
9.560000	3273.686591
9.570000	3355.575032
9.580000	3416.459276
9.590000	3390.558709
9.600000	3374.842266
9.610000	3469.382186
9.620000	3611.945369
9.630000	3673.522753
9.640000	3656.912231
9.650000	3689.174246
9.660000	3769.699265
9.670000	3826.802531
9.680000	3866.539644
9.690000	3966.133904
9.700000	4079.550211
9.710000	4089.780151
9.720000	4006.419371
9.730000	3866.012313
9.740000	3825.131100
9.750000	3744.612768
9.760000	3609.699361
9.770000	3458.206732
9.780000	3391.291613
9.790000	3409.709179
9.800000	3362.652698
9.810000	3294.266360
9.820000	3328.085281
9.830000	3483.057199
9.840000	3664.059590
9.850000	3803.445959
9.860000	4016.726817
9.870000	4364.875508
9.880000	4799.284342
9.890000	5143.144881
9.900000	5308.946373
9.910000	5300.859249
9.920000	5265.192562
9.930000	5303.979653
9.940000	5367.215990
9.950000	5410.978729
9.960000	5356.673271
9.970000	5319.372557
9.980000	5258.900692
9.990000	5205.155736
10.000000	5111.782546
10.010000	5051.129092
10.020000	5090.514986
10.030000	5158.920434
10.040000	5140.321951
10.050000	5094.058373
10.060000	5076.318669
10.070000	5122.337251
10.080000	5120.443785
10.090000	5149.003318
10.100000	5221.923766
10.110000	5340.834189
10.120000	5420.697504
10.130000	5424.328175
10.140000	5425.641272
10.150000	5397.743331
10.160000	5474.557912
10.170000	5556.381081
10.180000	5574.089209
10.190000	5525.733693
10.200000	5380.404314
10.210000	5251.679465
10.220000	5090.468537
10.230000	4941.077215
10.240000	4774.860713
10.250000	4625.507312
10.260000	4475.639907
10.270000	4366.625458
10.280000	4234.656339
10.290000	4081.114803
10.300000	3904.188830
10.310000	3711.153261
10.320000	3592.807513
10.330000	3499.996714
10.340000	3476.202600
10.350000	3364.477538
10.360000	3295.240700
10.370000	3233.690824
10.380000	3176.885048
10.390000	3044.542920
10.400000	2911.138119
10.410000	2851.913241
10.420000	2844.304417
10.430000	2811.649234
10.440000	2785.614891
10.450000	2720.017070
10.460000	2626.595802
10.470000	2515.557700
10.480000	2480.648811
10.490000	2465.861964
10.500000	2403.510294
10.510000	2263.442139
10.520000	2164.619728
10.530000	2147.310135
10.540000	2191.399503
10.550000	2206.821053
10.560000	2147.133008
10.570000	2083.821958
10.580000	2001.125128
10.590000	1942.482537
10.600000	1978.354000
10.610000	1972.403133
10.620000	2012.024142
10.630000	1888.335530
10.640000	1792.951909
10.650000	1785.394832
10.660000	1773.618491
10.670000	1808.333383
10.680000	1758.605372
10.690000	1764.500821
10.700000	1740.790043
10.710000	1737.855986
10.720000	1700.498643
10.730000	1674.634784
10.740000	1595.380805
10.750000	1542.955297
10.760000	1476.071045
10.770000	1464.387614
10.780000	1478.628566
10.790000	1554.469268
10.800000	1540.809283
10.810000	1521.664786
10.820000	1500.568944
10.830000	1581.267429
10.840000	1603.734566
10.850000	1574.456373
10.860000	1536.795630
10.870000	1539.118398
10.880000	1538.731104
10.890000	1498.919857
10.900000	1484.734242
10.910000	1465.578591
10.920000	1479.043099
10.930000	1473.776609
10.940000	1512.781386
10.950000	1481.601014
10.960000	1425.403649
10.970000	1253.161991
10.980000	1082.708617
10.990000	879.077422
11.000000	778.924149
11.010000	758.991219
11.020000	866.769962
11.030000	1011.626656
11.040000	1084.664999
11.050000	1030.172584
11.060000	911.650245
11.070000	825.235955
11.080000	676.538339
11.090000	281.811738
11.100000	-306.167773
11.110000	-819.934982
11.120000	-1193.340642
11.130000	-1414.746912
11.140000	-1542.623215
11.150000	-1475.371340
11.160000	-1288.980659
11.170000	-1156.517811
11.180000	-1020.963194
11.190000	-891.772187
11.200000	-748.122840
11.210000	-626.111434
11.220000	-565.556181
11.230000	-437.251512
11.240000	-259.327516
11.250000	-72.388228
11.260000	35.500964
11.270000	88.846164
11.280000	113.393189
11.290000	99.040856
11.300000	-103.372686
11.310000	-304.111384
11.320000	-407.008213
11.330000	-375.040307
11.340000	-331.366177
11.350000	-349.450141
11.360000	-378.334715
11.370000	-355.114375
11.380000	-343.941015
11.390000	-464.554977
11.400000	-740.909486
11.410000	-1031.167046
11.420000	-1071.838883
11.430000	-958.394963
11.440000	-732.251309
11.450000	-569.626161
11.460000	-444.075016
11.470000	-322.140877
11.480000	-222.680049
11.490000	-91.427263
11.500000	54.544954
11.510000	235.747354
11.520000	390.901570
11.530000	511.087171
11.540000	611.678114
11.550000	726.161745
11.560000	826.301939
11.570000	942.412403
11.580000	1056.807663
11.590000	1240.251515
11.600000	1428.620211
11.610000	1680.102311
11.620000	1805.427273
11.630000	1889.378422
11.640000	1939.359492
11.650000	2048.893823
11.660000	2105.393427
11.670000	2157.518299
11.680000	2083.624171
11.690000	1444.600415
11.700000	709.343419
11.710000	113.367788
11.720000	186.194757
11.730000	361.782343
11.740000	558.029821
11.750000	687.167519
11.760000	755.106686
11.770000	785.918712
11.780000	790.127451
11.790000	887.616343
11.800000	980.193622
11.810000	1093.964687
11.820000	1089.445929
11.830000	1067.946935
11.840000	1031.061842
11.850000	1075.827069
11.860000	1155.583756
11.870000	1214.982252
11.880000	1222.468188
11.890000	1215.956972
11.900000	1254.036358
11.910000	1279.906619
11.920000	1289.706656
11.930000	1305.214954
11.940000	1342.982394
11.950000	1343.265059
11.960000	1348.488248
11.970000	1375.860246
11.980000	1383.109910
11.990000	1507.893611
12.000000	1565.789102
12.010000	1711.799516
12.020000	1638.135610
12.030000	1635.285163
12.040000	1712.644718
12.050000	2030.785428
12.060000	2308.538047
12.070000	2526.266248
12.080000	2588.149096
12.090000	2680.112593
12.100000	2648.082696
12.110000	2608.289085
12.120000	2569.640604
12.130000	2738.591877
12.140000	2904.969241
12.150000	3051.002771
12.160000	2965.678036
12.170000	3018.249587
12.180000	2949.233355
12.190000	3668.278799
12.200000	4189.819133
12.210000	4939.751691
12.220000	4873.263632
12.230000	5123.435595
12.240000	5073.462298
12.250000	5409.589854
12.260000	5263.279759
12.270000	5572.258620
12.280000	5335.322902
12.290000	3540.022684
12.300000	-18177.349117
12.310000	-25502.651388
12.320000	-31770.891344
12.330000	-36918.377227
12.340000	-41476.573714
12.350000	-44052.281854
12.360000	-44223.390027
12.370000	-41583.698470
12.380000	-37395.926349
12.390000	-32218.651619
12.400000	-26787.754215
12.410000	-21315.304490
12.420000	-16836.314390
12.430000	-13381.337377
12.440000	-10166.108773
12.450000	-6770.174886
12.460000	-3541.485490
12.470000	-2356.014156
12.480000	-4044.462579
12.490000	-3355.954202
12.500000	-1818.863321
12.510000	1102.972607
12.520000	987.648407
12.530000	783.339143
12.540000	947.516881
12.550000	1194.195097
12.560000	1427.439124
12.570000	699.911441
12.580000	-805.000463
12.590000	-3267.170349
12.600000	-5759.867380
12.610000	-7826.342631
12.620000	-7735.032167
12.630000	-6422.308076
12.640000	-4961.705346
12.650000	-4541.051910
12.660000	-4542.549819
12.670000	-4313.496528
12.680000	-4057.876607
12.690000	-3823.307045
12.700000	-3204.086349
12.710000	-1763.493018
12.720000	560.548319
12.730000	2990.890167
12.740000	4434.189431
12.750000	4384.094549
12.760000	2615.145078
12.770000	-201.695215
12.780000	-2945.452171
12.790000	-4841.223695
12.800000	-6487.275118
12.810000	-9004.307244
12.820000	-12408.851480
12.830000	-15799.655360
12.840000	-18785.279250
12.850000	-21432.044345
12.860000	-22766.634166
12.870000	-22241.383886
12.880000	-20649.117728
12.890000	-18623.398180
12.900000	-16709.469380
12.910000	-14034.292743
12.920000	-11549.606853
12.930000	-9174.456340
12.940000	-7485.320145
12.950000	-5880.151135
12.960000	-4007.487719
12.970000	-1355.168459
12.980000	1080.773929
12.990000	-861.975106
13.000000	-5343.008948
13.010000	-9211.904833
13.020000	-9871.584428
13.030000	-9122.295482
13.040000	-8322.468910
13.050000	-7612.085611
13.060000	-7333.987536
13.070000	-6970.921272
13.080000	-6651.685937
13.090000	-6146.508209
13.100000	-5935.066427
13.110000	-5554.905062
13.120000	-4726.678056
13.130000	-3095.486573
13.140000	-1448.482506
13.150000	-349.173817
13.160000	112.630231
13.170000	238.833747
13.180000	207.691766
13.190000	306.097580
13.200000	483.453715
13.210000	789.266517
13.220000	921.215644
13.230000	1140.619294
13.240000	1439.877527
13.250000	1696.631557
13.260000	1878.096226
13.270000	2022.819977
13.280000	2174.645795
13.290000	2380.669744
13.300000	2579.552690
13.310000	2760.315705
13.320000	2829.894715
13.330000	2907.207166
13.340000	3008.621035
13.350000	3134.723898
13.360000	3206.466547
13.370000	3265.245318
13.380000	3370.705325
13.390000	3471.474213
13.400000	3488.884089
13.410000	3416.585902
13.420000	3366.073200
13.430000	3420.976912
13.440000	3457.383934
13.450000	3406.881138
13.460000	3336.429699
13.470000	3404.067808
13.480000	3499.439654
13.490000	3578.473590
13.500000	3675.704915
13.510000	3823.247791
13.520000	3982.486617
13.530000	4096.350958
13.540000	4154.779346
13.550000	4228.393206
13.560000	4274.814734
13.570000	4259.846458
13.580000	4231.132265
13.590000	4202.934180
13.600000	4260.706924
13.610000	4290.872244
13.620000	4270.596538
13.630000	4258.434924
13.640000	4194.229838
13.650000	4107.649360
13.660000	4020.582092
13.670000	3944.243387
13.680000	3927.448415
13.690000	3901.594248
13.700000	3949.478411
13.710000	3991.582288
13.720000	3944.248492
13.730000	3945.599350
13.740000	3956.620354
13.750000	4040.988482
13.760000	4050.167736
13.770000	4079.808340
13.780000	4160.966068
13.790000	4192.027126
13.800000	4152.752811
13.810000	3929.088049
13.820000	3704.123708
13.830000	3614.123228
13.840000	3706.020285
13.850000	3852.786441
13.860000	3862.846860
13.870000	3821.986812
13.880000	3801.744404
13.890000	3831.850499
13.900000	3835.127811
13.910000	3887.916655
13.920000	3983.064023
13.930000	4090.703834
13.940000	4121.956143
13.950000	4094.235515
13.960000	4116.219352
13.970000	4144.471012
13.980000	4142.958995
13.990000	4105.913516
14.000000	4080.301811
14.010000	4041.953371
14.020000	3964.766443
14.030000	3838.832516
14.040000	3715.862800
14.050000	3652.856309
14.060000	3559.017639
14.070000	3526.180378
14.080000	3487.202083
14.090000	3555.133156
14.100000	3559.408881
14.110000	3482.976396
14.120000	3346.856566
14.130000	3272.900351
14.140000	3231.024838
14.150000	3160.545562
14.160000	3031.416634
14.170000	2903.243760
14.180000	2726.315626
14.190000	2094.437634
14.200000	1415.927180
14.210000	802.292384
14.220000	711.634056
14.230000	729.895687
14.240000	754.340607
14.250000	767.210942
14.260000	876.538470
14.270000	1096.414603
14.280000	1217.603293
14.290000	1200.899534
14.300000	1078.345316
14.310000	1079.743049
14.320000	1112.685018
14.330000	1181.669269
14.340000	1213.628780
14.350000	1234.017061
14.360000	1142.378238
14.370000	1056.449516
14.380000	921.473163
14.390000	505.882773
14.400000	-5.802172
14.410000	-498.721193
14.420000	-674.752896
14.430000	-828.130331
14.440000	-1074.724791
14.450000	-1243.929850
14.460000	-1334.338103
14.470000	-1328.193980
14.480000	-1360.881008
14.490000	-1366.413482
14.500000	-1301.327007
14.510000	-1232.108995
14.520000	-1154.084345
14.530000	-1078.354060
14.540000	-1018.687992
14.550000	-924.928606
14.560000	-866.457769
14.570000	-808.053058
14.580000	-749.827871
14.590000	-653.240673
14.600000	-474.351866
14.610000	-355.775439
14.620000	-293.306759
14.630000	-193.899718
14.640000	-84.089654
14.650000	57.608962
14.660000	96.867860
14.670000	154.988743
14.680000	318.232086
14.690000	568.251465
14.700000	823.928118
14.710000	959.229000
14.720000	1050.685971
14.730000	1111.204526
14.740000	1138.909920
14.750000	1282.099808
14.760000	1485.749992
14.770000	1837.227998
14.780000	2052.412142
14.790000	2192.480890
14.800000	2268.112459
14.810000	2416.592270
14.820000	2630.927795
14.830000	2725.725468
14.840000	2717.142354
14.850000	2588.280686
14.860000	2542.809330
14.870000	2585.804191
14.880000	2770.790221
14.890000	2941.933947
14.900000	3044.563972
14.910000	3085.080176
14.920000	3082.889223
14.930000	3044.707680
14.940000	3038.566007
14.950000	3096.085296
14.960000	3182.911996
14.970000	3263.644052
14.980000	3444.497897
14.990000	3625.153390
15.000000	3746.047141
15.010000	3801.662770
15.020000	3905.107297
15.030000	4021.617936
15.040000	4078.247959
15.050000	4178.242510
15.060000	4298.560662
15.070000	4394.326058
15.080000	4445.794698
15.090000	4448.971833
15.100000	4486.452169
15.110000	4538.522165
15.120000	4605.349715
15.130000	4750.097543
15.140000	4916.437624
15.150000	5097.326669
15.160000	5209.501039
15.170000	5288.065524
15.180000	5494.763304
15.190000	5703.865550
15.200000	5852.381625
15.210000	5881.527176
15.220000	5850.841247
15.230000	5883.880515
15.240000	5836.748371
15.250000	5758.612364
15.260000	5644.354097
15.270000	5602.169230
15.280000	5585.046714
15.290000	5624.119919
15.300000	5646.632499
15.310000	5659.132883
15.320000	5638.313319
15.330000	5610.458303
15.340000	5653.310897
15.350000	5702.233894
15.360000	5782.061214
15.370000	5817.574087
15.380000	5869.690547
15.390000	6030.169757
15.400000	6241.412721
15.410000	6433.232844
15.420000	6535.302049
15.430000	6630.215671
15.440000	6700.414829
15.450000	6725.354263
15.460000	6727.475034
15.470000	6738.680221
15.480000	6799.385308
15.490000	6860.585870
15.500000	6807.271472
15.510000	6724.530136
15.520000	6637.480431
15.530000	6666.889713
15.540000	6626.329983
15.550000	6626.213927
15.560000	6594.158454
15.570000	6595.729609
15.580000	6481.874931
15.590000	6061.271514
15.600000	5641.101052
15.610000	5220.104832
15.620000	5108.318800
15.630000	5048.514778
15.640000	5037.032317
15.650000	4996.519616
15.660000	4888.313987
15.670000	4829.746026
15.680000	4790.313952
15.690000	4508.459991
15.700000	4207.766368
15.710000	3949.512604
15.720000	3944.411392
15.730000	3918.681089
15.740000	3834.147802
15.750000	3788.665131
15.760000	3683.450403
15.770000	3627.991767
15.780000	3615.869486
15.790000	3679.189964
15.800000	3550.562617
15.810000	3327.484528
15.820000	3110.021158
15.830000	3053.687234
15.840000	3066.553393
15.850000	3072.684639
15.860000	3097.779639
15.870000	3150.380536
15.880000	3219.361540
15.890000	3257.718270
15.900000	3212.665297
15.910000	3257.077532
15.920000	3375.517556
15.930000	3541.469377
15.940000	3597.403594
15.950000	3652.651711
15.960000	3700.692867
15.970000	3787.363154
15.980000	3784.219295
15.990000	3808.796517
16.000000	3861.801638
16.010000	3967.334706
16.020000	4038.449984
16.030000	4062.110624
16.040000	4050.532798
16.050000	4078.420295
16.060000	4107.330632
16.070000	4220.754282
16.080000	4271.514614
16.090000	4335.383890
16.100000	4342.645832
16.110000	4457.332532
16.120000	4493.823899
16.130000	4545.050237
16.140000	4525.178430
16.150000	4617.838915
16.160000	4566.652036
16.170000	4566.858962
16.180000	4388.278145
16.190000	4353.046927
16.200000	4099.005659
16.210000	4077.112308
16.220000	3853.276337
16.230000	3898.634512
16.240000	3669.058902
16.250000	3790.667755
16.260000	3592.906719
16.270000	3731.968102
16.280000	3406.370429
16.290000	1046.491820
16.300000	-15370.798409
16.310000	-29296.777879
16.320000	-42584.080726
16.330000	-48935.313551
16.340000	-51018.818378
16.350000	-48559.614265
16.360000	-45343.120007
16.370000	-41498.950824
16.380000	-36531.476882
16.390000	-27697.456135
16.400000	-20274.129713
16.410000	-14709.442178
16.420000	-11066.678715
16.430000	-8435.251476
16.440000	-6938.743434
16.450000	-5756.221718
16.460000	-4525.156564
16.470000	-2849.857788
16.480000	-1761.579976
16.490000	-2225.738233
16.500000	-4372.802806
16.510000	-6858.996301
16.520000	-9150.343987
16.530000	-11138.852575
16.540000	-13477.738111
16.550000	-16293.357967
16.560000	-19414.745665
16.570000	-22263.508177
16.580000	-22906.128809
16.590000	-19944.894458
16.600000	-14839.123560
16.610000	-9739.276883
16.620000	-6576.613995
16.630000	-4661.558495
16.640000	-3602.687215
16.650000	-3084.144537
16.660000	-2812.251182
16.670000	-2546.974030
16.680000	-1618.731049
16.690000	-272.744687
16.700000	1074.223136
16.710000	1982.661161
16.720000	2505.770038
16.730000	2777.194523
16.740000	2840.643603
16.750000	2501.647819
16.760000	1774.999777
16.770000	15.195812
16.780000	-2854.840853
16.790000	-6521.607759
16.800000	-9183.016908
16.810000	-8943.244080
16.820000	-7274.533383
16.830000	-5694.427431
16.840000	-5549.669491
16.850000	-5614.633744
16.860000	-5511.555193
16.870000	-5191.831017
16.880000	-4432.381216
16.890000	-3941.338080
16.900000	-4535.256420
16.910000	-6089.343602
16.920000	-7734.838052
16.930000	-9115.505769
16.940000	-10944.103816
16.950000	-13799.380339
16.960000	-17171.459069
16.970000	-20667.320951
16.980000	-23733.450773
16.990000	-24658.825054
17.000000	-23235.645825
17.010000	-20593.742820
17.020000	-18122.625541
17.030000	-16266.801361
17.040000	-14235.279561
17.050000	-12582.286953
17.060000	-11075.503429
17.070000	-9823.102320
17.080000	-8807.106412
17.090000	-8157.380283
17.100000	-7637.089646
17.110000	-6790.107519
17.120000	-5068.870760
17.130000	-2829.362822
17.140000	-1037.370507
17.150000	-136.224246
17.160000	47.117600
17.170000	151.825569
17.180000	231.631444
17.190000	360.901789
17.200000	478.077731
17.210000	457.443611
17.220000	317.230564
17.230000	29.171610
17.240000	-174.250514
17.250000	-303.113984
17.260000	-300.559092
17.270000	-336.364040
17.280000	-429.125053
17.290000	-505.364456
17.300000	-449.910376
17.310000	-304.125977
17.320000	-131.418035
17.330000	11.805979
17.340000	184.735433
17.350000	279.291534
17.360000	437.257563
17.370000	509.663624
17.380000	611.191654
17.390000	1334.037773
17.400000	2089.575764
17.410000	2898.447928
17.420000	3064.690289
17.430000	3238.590303
17.440000	3397.660956
17.450000	3384.401798
17.460000	3384.282853
17.470000	3383.043222
17.480000	3515.361577
17.490000	3583.154337
17.500000	3691.659583
17.510000	3736.077270
17.520000	3801.537111
17.530000	3829.332149
17.540000	3950.999946
17.550000	4160.942253
17.560000	4322.838021
17.570000	4447.693658
17.580000	4461.849226
17.590000	4500.760745
17.600000	4543.173638
17.610000	4635.091790
17.620000	4708.599963
17.630000	4707.538801
17.640000	4724.855015
17.650000	4763.493298
17.660000	4821.185889
17.670000	4814.985102
17.680000	4763.222569
17.690000	4673.878142
17.700000	4629.228316
17.710000	4663.740187
17.720000	4726.100726
17.730000	4673.454986
17.740000	4567.307159
17.750000	4469.946537
17.760000	4473.705867
17.770000	4499.077675
17.780000	4470.562249
17.790000	4365.803189
17.800000	4254.120559
17.810000	4149.495196
17.820000	4087.859311
17.830000	4047.818205
17.840000	4036.466374
17.850000	4035.864104
17.860000	3983.410648
17.870000	3943.720820
17.880000	3887.560076
17.890000	3771.001586
17.900000	3579.255394
17.910000	3424.431524
17.920000	3265.665935
17.930000	3131.856505
17.940000	3003.749028
17.950000	2963.700053
17.960000	2890.413589
17.970000	2685.749326
17.980000	2448.763182
17.990000	1984.803266
18.000000	1644.088585
18.010000	1303.370650
18.020000	1289.465213
18.030000	1237.855546
18.040000	1235.566219
18.050000	1268.548225
18.060000	1276.359720
18.070000	1188.367348
18.080000	1025.560486
18.090000	1165.322121
18.100000	1343.824738
18.110000	1609.627329
18.120000	1698.055594
18.130000	1823.409473
18.140000	1889.262212
18.150000	1903.976413
18.160000	1943.485845
18.170000	1995.466803
18.180000	2074.283053
18.190000	2173.401147
18.200000	2277.558697
18.210000	2335.072250
18.220000	2372.888130
18.230000	2425.268961
18.240000	2463.551251
18.250000	2489.055536
18.260000	2521.105640
18.270000	2588.711496
18.280000	2722.508218
18.290000	2922.126957
18.300000	3090.490749
18.310000	3161.808144
18.320000	3144.858771
18.330000	3118.530087
18.340000	3191.490963
18.350000	3345.754020
18.360000	3596.732217
18.370000	3757.941533
18.380000	3819.310200
18.390000	3868.249727
18.400000	3908.177802
18.410000	3952.439524
18.420000	4039.302191
18.430000	4158.017007
18.440000	4227.757033
18.450000	4299.145713
18.460000	4412.039721
18.470000	4639.557064
18.480000	4753.352887
18.490000	4821.641890
18.500000	4866.398458
18.510000	4989.472601
18.520000	5171.972633
18.530000	5288.203899
18.540000	5320.036506
18.550000	5336.368793
18.560000	5462.449987
18.570000	5591.424598
18.580000	5739.396459
18.590000	5857.831647
18.600000	6008.842405
18.610000	6103.352454
18.620000	6039.783083
18.630000	5920.963777
18.640000	5811.481137
18.650000	5871.032024
18.660000	5960.554237
18.670000	6032.547237
18.680000	6092.969490
18.690000	6166.976970
18.700000	6183.649084
18.710000	6160.845160
18.720000	6235.516744
18.730000	6362.406853
18.740000	6508.277646
18.750000	6574.314904
18.760000	6698.882643
18.770000	6795.129878
18.780000	6891.328778
18.790000	7049.896318
18.800000	7218.650542
18.810000	7392.648878
18.820000	7489.281307
18.830000	7603.076184
18.840000	7691.389393
18.850000	7753.137523
18.860000	7807.070932
18.870000	7827.595090
18.880000	7862.470971
18.890000	7860.964773
18.900000	7841.576039
18.910000	7720.567381
18.920000	7548.562668
18.930000	7430.831360
18.940000	7326.324078
18.950000	7196.945435
18.960000	7036.012360
18.970000	6906.088865
18.980000	6858.841731
18.990000	6741.172725
19.000000	6509.807342
19.010000	6261.808357
19.020000	6145.745765
19.030000	6159.192253
19.040000	6075.228865
19.050000	5906.059075
19.060000	5780.523336
19.070000	5712.098218
19.080000	5636.424656
19.090000	5481.936278
19.100000	5376.356769
19.110000	5324.250848
19.120000	5300.018787
19.130000	5249.297115
19.140000	5103.115963
19.150000	4913.482142
19.160000	4718.312108
19.170000	4605.606880
19.180000	4573.728655
19.190000	4526.269012
19.200000	4477.578156
19.210000	4364.177159
19.220000	4223.495590
19.230000	4133.652150
19.240000	4133.758590
19.250000	4196.394695
19.260000	4204.890979
19.270000	4198.678034
19.280000	4164.655315
19.290000	4165.275931
19.300000	4147.206136
19.310000	4004.832171
19.320000	3759.204188
19.330000	3435.830708
19.340000	3226.085207
19.350000	3145.103267
19.360000	3181.314928
19.370000	3277.670252
19.380000	3242.926018
19.390000	3178.120534
19.400000	3095.704885
19.410000	3023.020010
19.420000	2928.728074
19.430000	2829.453876
19.440000	2774.240109
19.450000	2675.576298
19.460000	2566.142983
19.470000	2393.188564
19.480000	2138.529038
19.490000	2100.388506
19.500000	2282.488575
19.510000	2627.132484
19.520000	2804.410208
19.530000	2888.359360
19.540000	3002.504845
19.550000	3193.408912
19.560000	3381.951971
19.570000	3550.655721
19.580000	3676.074247
19.590000	3801.106522
19.600000	3813.789829
19.610000	3775.047668
19.620000	3771.588561
19.630000	3982.250988
19.640000	4470.743662
19.650000	5046.090806
19.660000	5488.151397
19.670000	5696.254867
19.680000	5759.406205
19.690000	5721.952358
19.700000	5607.924573
19.710000	5504.472469
19.720000	5352.353323
19.730000	5325.274687
19.740000	5301.609672
19.750000	5378.312443
19.760000	5384.094190
19.770000	5492.926432
19.780000	5531.916967
19.790000	5665.086353
19.800000	5647.901125
19.810000	5849.544962
19.820000	5844.311317
19.830000	6101.734501
19.840000	6270.401588
19.850000	6786.351124
19.860000	7178.928559
19.870000	7941.872867
19.880000	8584.671179
19.890000	9445.920043
19.900000	9818.452286
19.910000	10443.852896
19.920000	10549.978151
19.930000	11093.097657
19.940000	10845.398924
19.950000	10008.490983
19.960000	6687.947496
19.970000	2195.904863
19.980000	-3696.193359
19.990000	-10572.738717
20.000000	-24044.977434
20.010000	-20815.152617
20.020000	-14536.852285
20.030000	-9061.864906
20.040000	-6004.115808
20.050000	-3046.669751
20.060000	-2091.460327
20.070000	-1336.465782
20.080000	-1770.973231
20.090000	-4801.305492
20.100000	-8996.912802
20.110000	-9769.806653
20.120000	-6039.748776
20.130000	-3272.401260
20.140000	-1788.055643
20.150000	-300.446720
20.160000	144.698558
20.170000	833.374252
20.180000	700.787791
20.190000	1260.731940
20.200000	2245.100133
20.210000	4596.194120
20.220000	6086.148157
20.230000	6395.002049
20.240000	4811.890805
20.250000	2617.042970
20.260000	263.120783
20.270000	-1519.731042
20.280000	-3072.505638
20.290000	-4816.978747
20.300000	-7604.233708
20.310000	-10364.544013
20.320000	-11454.316137
20.330000	-11361.899286
20.340000	-10827.695862
20.350000	-10637.655150
20.360000	-9818.857292
20.370000	-7987.311468
20.380000	-5701.560658
20.390000	-3213.749659
20.400000	-1269.579875
20.410000	-318.003206
20.420000	-279.782232
20.430000	-703.204347
20.440000	-561.713130
20.450000	482.391694
20.460000	2208.842556
20.470000	3470.123300
20.480000	3739.114430
20.490000	3070.461545
20.500000	1732.311348
20.510000	-116.832855
20.520000	-1807.088859
20.530000	-3502.088404
20.540000	-5527.944010
20.550000	-9531.650696
20.560000	-14552.652971
20.570000	-18357.068104
20.580000	-18850.768218
20.590000	-14779.382064
20.600000	-7981.255511
20.610000	-5600.028856
20.620000	-7142.244850
20.630000	-9750.930830
20.640000	-12262.966262
20.650000	-15683.832673
20.660000	-19468.809674
20.670000	-22460.099760
20.680000	-23377.368229
20.690000	-23753.815276
20.700000	-24246.911379
20.710000	-25724.166400
20.720000	-26904.280098
20.730000	-28241.012334
20.740000	-29153.204077
20.750000	-29839.399093
20.760000	-30053.306992
20.770000	-30473.728606
20.780000	-30560.799035
20.790000	-27918.029224
20.800000	-24339.204435
20.810000	-20573.866676
20.820000	-19009.848089
20.830000	-17887.050245
20.840000	-16513.163243
20.850000	-15470.473225
20.860000	-14376.567202
20.870000	-13896.845542
20.880000	-13100.992764
20.890000	-11211.708644
20.900000	-9119.736327
20.910000	-7559.545121
20.920000	-7261.202988
20.930000	-7115.063070
20.940000	-6606.704689
20.950000	-6077.664617
20.960000	-5401.318924
20.970000	-4872.487752
20.980000	-4277.265617
20.990000	-3737.628738
21.000000	-3095.504045
21.010000	-2592.259957
21.020000	-2178.669671
21.030000	-1988.451170
21.040000	-1743.427016
21.050000	-1561.451954
21.060000	-1385.090224
21.070000	-1171.879972
21.080000	-811.953189
21.090000	-377.525098
21.100000	62.477106
21.110000	448.808500
21.120000	818.124165
21.130000	1063.034406
21.140000	1248.199611
21.150000	1374.040942
21.160000	1496.051274
21.170000	1626.889338
21.180000	1641.819622
21.190000	1627.279650
21.200000	1604.037371
21.210000	1628.064265
21.220000	1657.618859
21.230000	1613.713185
21.240000	1671.198623
21.250000	1757.317586
21.260000	1894.008496
21.270000	1996.266061
21.280000	2170.984342
21.290000	2364.079065
21.300000	2518.593382
21.310000	2541.100719
21.320000	2580.511221
21.330000	2593.906410
21.340000	2589.882478
21.350000	2625.491456
21.360000	2674.338468
21.370000	2752.842327
21.380000	2834.993782
21.390000	2778.858262
21.400000	2766.857686
21.410000	2703.429318
21.420000	2817.599278
21.430000	2972.315297
21.440000	3271.657732
21.450000	3539.754442
21.460000	3748.779030
21.470000	3847.118611
21.480000	4023.551713
21.490000	4867.241015
21.500000	5693.484909
21.510000	6417.003084
21.520000	6397.554509
21.530000	6316.055092
21.540000	6243.611099
21.550000	6209.655075
21.560000	6243.998350
21.570000	6280.655379
21.580000	6345.969731
21.590000	6270.448747
21.600000	6224.205169
21.610000	6196.410106
21.620000	6277.049415
21.630000	6292.980923
21.640000	6324.254770
21.650000	6288.103747
21.660000	6358.497933
21.670000	6397.703200
21.680000	6463.276942
21.690000	6447.180638
21.700000	6388.125120
21.710000	6322.317238
21.720000	6249.539183
21.730000	6213.573802
21.740000	6251.600701
21.750000	6355.036704
21.760000	6482.570756
21.770000	6500.577511
21.780000	6489.794014
21.790000	6693.228060
21.800000	6955.252684
21.810000	7272.961225
21.820000	7339.873549
21.830000	7400.202338
21.840000	7389.976125
21.850000	7363.094711
21.860000	7380.090413
21.870000	7392.346725
21.880000	7461.165244
21.890000	7506.535098
21.900000	7527.781588
21.910000	7492.626023
21.920000	7466.655114
21.930000	7440.164195
21.940000	7439.948537
21.950000	7445.223559
21.960000	7507.758621
21.970000	7558.600870
21.980000	7599.745174
21.990000	7628.278346
22.000000	7618.314269
22.010000	7611.452092
22.020000	7587.021818
22.030000	7633.567133
22.040000	7671.908504
22.050000	7705.213238
22.060000	7716.041858
22.070000	7702.537065
22.080000	7717.959802
22.090000	7757.332371
22.100000	7816.843902
22.110000	7860.333243
22.120000	7867.062870
22.130000	7850.050702
22.140000	7836.609630
22.150000	7851.046376
22.160000	7870.644934
22.170000	7846.585891
22.180000	7789.456733
22.190000	7684.667327
22.200000	7597.429815
22.210000	7500.434392
22.220000	7431.184927
22.230000	7354.269419
22.240000	7332.475487
22.250000	7306.365273
22.260000	7333.347582
22.270000	7314.623396
22.280000	7269.131680
22.290000	7231.844791
22.300000	7210.758149
22.310000	7236.374989
22.320000	7142.421610
22.330000	7029.880441
22.340000	6948.515995
22.350000	6878.764080
22.360000	6854.656484
22.370000	6850.379164
22.380000	6887.820682
22.390000	6804.042795
22.400000	6677.200037
22.410000	6587.929636
22.420000	6606.764734
22.430000	6591.776022
22.440000	6512.842901
22.450000	6502.605735
22.460000	6537.357811
22.470000	6633.073764
22.480000	6606.518028
22.490000	6554.834076
22.500000	6572.188646
22.510000	6648.823864
22.520000	6642.339490
22.530000	6539.007851
22.540000	6398.863262
22.550000	6333.499955
22.560000	6299.457131
22.570000	6320.334971
22.580000	6436.919641
22.590000	6555.284103
22.600000	6586.877003
22.610000	6525.936639
22.620000	6513.710041
22.630000	6583.426919
22.640000	6816.472237
22.650000	6970.153090
22.660000	7136.609130
22.670000	7202.432113
22.680000	7215.301508
22.690000	7344.152816
22.700000	7477.327403
22.710000	7666.087354
22.720000	7715.438760
22.730000	7714.559628
22.740000	7742.608531
22.750000	7723.687278
22.760000	7769.703981
22.770000	7888.601121
22.780000	8041.738404
22.790000	8112.028208
22.800000	8001.549249
22.810000	7950.770182
22.820000	7964.426416
22.830000	8021.817668
22.840000	7990.700805
22.850000	7958.500229
22.860000	7970.552780
22.870000	7963.238106
22.880000	7940.606537
22.890000	8032.665814
22.900000	8186.830578
22.910000	8217.059959
22.920000	8084.452875
22.930000	7978.068768
22.940000	7966.727855
22.950000	7986.356493
22.960000	7958.601811
22.970000	7928.615855
22.980000	7921.380297
22.990000	7895.313117
23.000000	7875.289444
23.010000	7862.554302
23.020000	7857.799877
23.030000	7868.744853
23.040000	7895.212570
23.050000	7899.082297
23.060000	7938.133552
23.070000	7960.691072
23.080000	8025.924619
23.090000	8022.056267
23.100000	7997.709096
23.110000	8012.665169
23.120000	8023.416423
23.130000	7994.830386
23.140000	7933.431524
23.150000	7883.285408
23.160000	7852.862173
23.170000	7705.180819
23.180000	7498.996828
23.190000	7287.888216
23.200000	7177.092666
23.210000	7066.510643
23.220000	6949.918343
23.230000	6857.698567
23.240000	6790.787672
23.250000	6679.476520
23.260000	6496.884851
23.270000	6391.505811
23.280000	6364.005079
23.290000	6379.191720
23.300000	6293.909863
23.310000	6217.310984
23.320000	6128.523816
23.330000	6102.418702
23.340000	5992.581320
23.350000	5888.551607
23.360000	5752.324725
23.370000	5649.999038
23.380000	5589.930485
23.390000	5557.062094
23.400000	5587.014309
23.410000	5521.256352
23.420000	5407.320764
23.430000	5228.924170
23.440000	5103.970084
23.450000	5027.888690
23.460000	4933.405671
23.470000	4852.409435
23.480000	4773.331111
23.490000	4777.453059
23.500000	4701.511359
23.510000	4618.397027
23.520000	4436.483363
23.530000	4294.542615
23.540000	4142.831572
23.550000	4063.268936
23.560000	4014.050861
23.570000	3995.981594
23.580000	4200.320954
23.590000	4785.122454
23.600000	4848.524323
23.610000	3136.799618
23.620000	35.390811
23.630000	-2876.424980
23.640000	-4094.805692
23.650000	-4894.144432
23.660000	-6691.934524
23.670000	-9538.991206
23.680000	-13108.248163
23.690000	-16410.583919
23.700000	-19922.158870
23.710000	-23626.738282
23.720000	-27013.967880
23.730000	-29380.292040
23.740000	-27891.195202
23.750000	-23037.857159
23.760000	-16457.761439
23.770000	-11152.457134
23.780000	-8010.395520
23.790000	-5650.061858
23.800000	-4151.358203
23.810000	-3003.365477
23.820000	-2465.097408
23.830000	-1540.557480
23.840000	-452.192022
23.850000	594.949283
23.860000	349.817959
23.870000	-1387.686742
23.880000	-3684.428972
23.890000	-6458.704186
23.900000	-9096.597167
23.910000	-11883.915904
23.920000	-15049.338289
23.930000	-18506.331711
23.940000	-22882.450465
23.950000	-26855.809491
23.960000	-30327.678092
23.970000	-31905.495869
23.980000	-30486.804107
23.990000	-25454.536424
24.000000	-16476.829045
24.010000	-10428.901145
24.020000	-6849.891933
24.030000	-4408.068390
24.040000	-3868.393610
24.050000	-3116.132732
24.060000	-2567.992936
24.070000	-663.249183
24.080000	-131.865308
24.090000	-1892.712984
24.100000	-27305.621073
24.110000	-24885.664697
24.120000	-20184.868714
24.130000	-14226.684009
24.140000	-10019.972515
24.150000	-6335.920154
24.160000	-4853.255886
24.170000	-3531.472710
24.180000	-3533.540494
24.190000	-5631.157631
24.200000	-9320.533242
24.210000	-12968.289070
24.220000	-13962.391329
24.230000	-12081.878612
24.240000	-9572.252063
24.250000	-6468.295309
24.260000	-5081.936871
24.270000	-3467.926344
24.280000	-3053.127674
24.290000	-2358.490825
24.300000	-2593.287420
24.310000	-2456.416127
24.320000	-2387.487713
24.330000	-721.825182
24.340000	567.720809
24.350000	1693.830955
24.360000	539.589626
24.370000	-698.611134
24.380000	-3601.865518
24.390000	-7872.719930
24.400000	-37210.039721
24.410000	-37080.258791
24.420000	-35696.746749
24.430000	-33596.339226
24.440000	-31738.960579
24.450000	-28504.640410
24.460000	-25336.229451
24.470000	-21239.225950
24.480000	-18058.277436
24.490000	-14928.018367
24.500000	-13078.733569
24.510000	-11450.842491
24.520000	-10738.663190
24.530000	-9960.053558
24.540000	-9615.324398
24.550000	-8872.600646
24.560000	-8239.995945
24.570000	-7458.037722
24.580000	-7006.698195
24.590000	-6491.073135
24.600000	-6218.331435
24.610000	-5910.171266
24.620000	-5838.481261
24.630000	-5719.082214
24.640000	-5854.918380
24.650000	-6097.763278
24.660000	-6507.604537
24.670000	-6783.798842
24.680000	-6977.269097
24.690000	-6976.067626
24.700000	-6951.727197
24.710000	-6666.561739
24.720000	-6367.867580
24.730000	-6006.927326
24.740000	-5704.157881
24.750000	-5280.489903
24.760000	-4896.735380
24.770000	-4677.306962
24.780000	-4645.390039
24.790000	-4636.965743
24.800000	-4536.868779
24.810000	-4287.807355
24.820000	-3971.754513
24.830000	-3810.391100
24.840000	-3763.947797
24.850000	-3783.977190
24.860000	-3677.771551
24.870000	-3620.935389
24.880000	-3516.206835
24.890000	-2885.876748
24.900000	-2207.962266
24.910000	-1593.171505
24.920000	-1565.548912
24.930000	-1563.514168
24.940000	-1504.815416
24.950000	-1483.705307
24.960000	-1380.525092
24.970000	-1177.540745
24.980000	-726.908752
24.990000	-321.284362
25.000000	-223.910249
25.010000	-356.789659
25.020000	-536.989410
25.030000	-642.495114
25.040000	-647.699826
25.050000	-670.962735
25.060000	-689.389314
25.070000	-729.266085
25.080000	-725.863076
25.090000	-776.382054
25.100000	-961.660021
25.110000	-1208.443194
25.120000	-1316.142545
25.130000	-1310.829105
25.140000	-1389.797824
25.150000	-1681.729273
25.160000	-2034.384476
25.170000	-2179.346840
25.180000	-2095.687568
25.190000	-2036.086118
25.200000	-2119.326647
25.210000	-2241.250310
25.220000	-2184.692749
25.230000	-1835.401367
25.240000	-1394.629751
25.250000	-1096.346735
25.260000	-1020.514993
25.270000	-1029.733088
25.280000	-963.040275
25.290000	-784.835248
25.300000	-592.970339
25.310000	-545.474332
25.320000	-644.510684
25.330000	-789.202178
25.340000	-796.530584
25.350000	-714.937629
25.360000	-574.873000
25.370000	-472.559039
25.380000	-430.718894
25.390000	-444.142448
25.400000	-556.069947
25.410000	-621.915426
25.420000	-609.100780
25.430000	-511.132215
25.440000	-465.900364
25.450000	-484.372603
25.460000	-448.718412
25.470000	-333.906767
25.480000	-240.921471
25.490000	-125.255876
