Time(s)	GREEN_denoised_wiener
0.000000	-257.017899
0.010000	-345.236486
0.020000	-368.095000
0.030000	-425.574507
0.040000	-505.383940
0.050000	-592.264937
0.060000	-675.379103
0.070000	-744.317483
0.080000	-797.091846
0.090000	-835.408139
0.100000	-864.174857
0.110000	-884.182458
0.120000	-893.946757
0.130000	-895.662178
0.140000	-893.753567
0.150000	-894.509279
0.160000	-897.905446
0.170000	-903.049871
0.180000	-907.081256
0.190000	-907.621255
0.200000	-904.960648
0.210000	-895.879361
0.220000	-879.208815
0.230000	-855.171197
0.240000	-825.491116
0.250000	-790.823528
0.260000	-751.469297
0.270000	-707.839761
0.280000	-663.820696
0.290000	-617.537254
0.300000	-571.213837
0.310000	-523.254801
0.320000	-475.647423
0.330000	-427.327961
0.340000	-377.779891
0.350000	-328.102990
0.360000	-279.276171
0.370000	-231.573603
0.380000	-183.799309
0.390000	-133.739024
0.400000	-81.025162
0.410000	-26.605740
0.420000	20.696303
0.430000	44.475629
0.440000	31.729320
0.450000	-21.449181
0.460000	-104.228382
0.470000	-201.393186
0.480000	-297.550201
0.490000	-382.716694
0.500000	-451.917115
0.510000	-507.090570
0.520000	-551.652825
0.530000	-588.494437
0.540000	-614.737483
0.550000	-632.276225
0.560000	-645.527232
0.570000	-658.087272
0.580000	-672.010934
0.590000	-685.586167
0.600000	-698.864341
0.610000	-709.777433
0.620000	-715.413617
0.630000	-714.671849
0.640000	-707.330132
0.650000	-693.598924
0.660000	-673.276966
0.670000	-646.892758
0.680000	-614.253205
0.690000	-578.226348
0.700000	-538.585585
0.710000	-498.266554
0.720000	-456.940214
0.730000	-415.006592
0.740000	-373.327219
0.750000	-331.106462
0.760000	-288.414257
0.770000	-245.571281
0.780000	-204.536657
0.790000	-162.052566
0.800000	-119.368831
0.810000	-75.892781
0.820000	-32.903399
0.830000	12.581524
0.840000	60.857542
0.850000	110.353664
0.860000	152.569150
0.870000	169.736791
0.880000	146.925054
0.890000	82.459574
0.900000	-7.366378
0.910000	-107.851968
0.920000	-207.362782
0.930000	-297.201391
0.940000	-371.396420
0.950000	-428.593171
0.960000	-472.473496
0.970000	-505.678289
0.980000	-527.571024
0.990000	-540.467558
1.000000	-550.040397
1.010000	-562.955428
1.020000	-579.187176
1.030000	-596.800411
1.040000	-613.695766
1.050000	-629.345205
1.060000	-640.559104
1.070000	-643.917986
1.080000	-639.794698
1.090000	-628.184789
1.100000	-611.398255
1.110000	-588.136497
1.120000	-561.374907
1.130000	-532.444914
1.140000	-501.375739
1.150000	-468.448309
1.160000	-432.734061
1.170000	-396.153530
1.180000	-359.449669
1.190000	-321.881712
1.200000	-283.527743
1.210000	-243.300089
1.220000	-201.970832
1.230000	-159.074816
1.240000	-116.112240
1.250000	-73.205185
1.260000	-29.610537
1.270000	15.305043
1.280000	62.867463
1.290000	109.108622
1.300000	141.630364
1.310000	144.209914
1.320000	107.052634
1.330000	35.661764
1.340000	-54.522433
1.350000	-150.250205
1.360000	-238.455649
1.370000	-314.542920
1.380000	-374.079968
1.390000	-418.208100
1.400000	-448.395512
1.410000	-465.227682
1.420000	-472.409614
1.430000	-474.940636
1.440000	-478.782667
1.450000	-486.667516
1.460000	-499.506671
1.470000	-515.743381
1.480000	-532.582851
1.490000	-544.834721
1.500000	-550.690180
1.510000	-549.283649
1.520000	-540.821918
1.530000	-526.088754
1.540000	-504.637998
1.550000	-476.917157
1.560000	-446.148995
1.570000	-412.424035
1.580000	-377.351022
1.590000	-338.941002
1.600000	-297.579314
1.610000	-254.814014
1.620000	-210.488881
1.630000	-167.380805
1.640000	-125.075172
1.650000	-83.299911
1.660000	-41.345283
1.670000	1.429341
1.680000	45.031653
1.690000	90.142798
1.700000	138.728040
1.710000	189.162556
1.720000	237.400843
1.730000	267.800428
1.740000	263.721105
1.750000	219.452084
1.760000	140.389203
1.770000	42.784449
1.780000	-61.637347
1.790000	-159.226550
1.800000	-240.356704
1.810000	-303.274036
1.820000	-348.430086
1.830000	-381.015609
1.840000	-399.499178
1.850000	-407.117552
1.860000	-410.591542
1.870000	-415.563329
1.880000	-426.694435
1.890000	-442.003841
1.900000	-458.808133
1.910000	-472.785671
1.920000	-481.271947
1.930000	-486.258935
1.940000	-484.399484
1.950000	-476.087266
1.960000	-459.866470
1.970000	-437.936566
1.980000	-411.675193
1.990000	-379.788917
2.000000	-344.837945
2.010000	-305.640826
2.020000	-264.352751
2.030000	-221.497528
2.040000	-177.543058
2.050000	-132.695547
2.060000	-86.072125
2.070000	-37.236255
2.080000	13.722859
2.090000	64.877103
2.100000	117.853680
2.110000	171.308663
2.120000	227.320552
2.130000	285.727676
2.140000	346.113953
2.150000	410.146591
2.160000	471.546659
2.170000	518.545173
2.180000	529.614253
2.190000	495.974069
2.200000	423.384021
2.210000	328.094291
2.220000	223.809578
2.230000	122.539569
2.240000	34.894598
2.250000	-35.036163
2.260000	-87.368100
2.270000	-124.955327
2.280000	-148.961807
2.290000	-161.880197
2.300000	-169.900797
2.310000	-179.139727
2.320000	-193.835899
2.330000	-212.718461
2.340000	-232.766933
2.350000	-250.630091
2.360000	-265.037217
2.370000	-273.204163
2.380000	-273.644059
2.390000	-267.117129
2.400000	-253.915395
2.410000	-235.030854
2.420000	-210.516043
2.430000	-183.284050
2.440000	-153.106062
2.450000	-119.534362
2.460000	-80.689582
2.470000	-38.124583
2.480000	7.398873
2.490000	53.617826
2.500000	101.165656
2.510000	149.360616
2.520000	198.606365
2.530000	248.104667
2.540000	296.049150
2.550000	342.859962
2.560000	389.498833
2.570000	438.625609
2.580000	487.940859
2.590000	538.406454
2.600000	588.382251
2.610000	630.177461
2.620000	644.799648
2.630000	618.302969
2.640000	552.267254
2.650000	457.795788
2.660000	352.093020
2.670000	247.951472
2.680000	158.260948
2.690000	86.423235
2.700000	34.434059
2.710000	-2.113303
2.720000	-26.045634
2.730000	-38.970064
2.740000	-45.523650
2.750000	-49.480883
2.760000	-58.668986
2.770000	-72.624884
2.780000	-91.471643
2.790000	-112.082094
2.800000	-131.262682
2.810000	-146.195326
2.820000	-153.707495
2.830000	-152.969499
2.840000	-143.808375
2.850000	-126.732896
2.860000	-104.569394
2.870000	-78.478580
2.880000	-49.650441
2.890000	-17.204944
2.900000	18.612635
2.910000	57.415765
2.920000	98.890288
2.930000	142.383504
2.940000	185.845643
2.950000	229.038003
2.960000	272.819379
2.970000	318.041428
2.980000	362.467153
2.990000	408.741023
3.000000	455.453462
3.010000	504.466178
3.020000	554.447811
3.030000	603.540260
3.040000	643.775983
3.050000	656.602767
3.060000	630.474450
3.070000	566.384318
3.080000	478.560752
3.090000	381.518349
3.100000	289.665330
3.110000	210.652593
3.120000	152.122189
3.130000	110.775961
3.140000	85.938959
3.150000	73.242085
3.160000	72.787774
3.170000	78.043280
3.180000	81.988742
3.190000	79.871051
3.200000	72.559031
3.210000	61.721761
3.220000	49.150588
3.230000	38.933238
3.240000	32.756872
3.250000	34.505594
3.260000	41.366465
3.270000	57.117949
3.280000	76.640373
3.290000	101.771692
3.300000	130.927350
3.310000	164.453398
3.320000	202.570164
3.330000	242.483195
3.340000	285.581028
3.350000	328.857670
3.360000	373.293105
3.370000	417.248734
3.380000	462.037250
3.390000	507.326088
3.400000	553.808532
3.410000	601.091617
3.420000	648.603986
3.430000	695.882271
3.440000	744.429834
3.450000	795.363682
3.460000	845.937042
3.470000	882.841541
3.480000	888.123760
3.490000	852.368593
3.500000	779.706891
3.510000	684.950986
3.520000	581.980256
3.530000	483.890809
3.540000	398.933342
3.550000	332.850218
3.560000	284.560939
3.570000	250.830397
3.580000	228.883257
3.590000	216.171428
3.600000	209.898553
3.610000	203.195030
3.620000	191.948613
3.630000	175.588981
3.640000	156.032885
3.650000	136.681148
3.660000	121.145302
3.670000	112.131821
3.680000	111.616796
3.690000	117.265159
3.700000	130.125511
3.710000	148.418746
3.720000	171.665901
3.730000	198.598356
3.740000	227.566855
3.750000	260.482773
3.760000	295.820147
3.770000	334.736421
3.780000	375.761496
3.790000	418.020389
3.800000	461.400368
3.810000	506.000442
3.820000	550.731551
3.830000	595.679364
3.840000	639.086715
3.850000	684.067436
3.860000	731.130555
3.870000	780.483898
3.880000	831.869047
3.890000	878.912878
3.900000	906.278940
3.910000	895.696521
3.920000	842.756324
3.930000	757.549434
3.940000	657.282715
3.950000	555.421546
3.960000	462.831450
3.970000	387.648989
3.980000	331.725751
3.990000	291.892132
4.000000	263.645880
4.010000	244.503637
4.020000	234.268430
4.030000	224.789429
4.040000	211.597213
4.050000	192.444099
4.060000	167.629087
4.070000	142.809567
4.080000	118.342467
4.090000	100.554144
4.100000	88.064042
4.110000	83.004379
4.120000	86.478783
4.130000	95.472608
4.140000	112.939198
4.150000	134.951199
4.160000	162.442204
4.170000	192.782555
4.180000	224.978899
4.190000	258.310496
4.200000	291.877579
4.210000	326.873302
4.220000	361.463699
4.230000	395.135459
4.240000	428.749285
4.250000	465.098581
4.260000	505.058555
4.270000	545.746962
4.280000	588.073776
4.290000	633.425476
4.300000	680.443566
4.310000	716.100661
4.320000	719.821289
4.330000	683.171128
4.340000	610.262007
4.350000	517.637541
4.360000	420.728061
4.370000	330.787465
4.380000	257.885764
4.390000	203.943156
4.400000	169.066552
4.410000	146.441147
4.420000	134.623314
4.430000	130.629373
4.440000	130.872796
4.450000	129.171421
4.460000	121.489028
4.470000	108.086033
4.480000	91.472109
4.490000	76.701542
4.500000	65.807370
4.510000	60.342784
4.520000	60.164927
4.530000	65.344802
4.540000	61.175319
4.550000	89.863132
4.560000	150.092738
4.570000	242.747299
4.580000	320.570970
4.590000	378.774366
4.600000	424.441308
4.610000	463.825212
4.620000	499.327017
4.630000	538.248694
4.640000	572.863848
4.650000	543.889523
4.660000	535.486824
4.670000	588.436581
4.680000	752.566693
4.690000	901.558823
4.700000	999.037283
4.710000	1039.491216
4.720000	1035.321908
4.730000	978.391761
4.740000	847.292039
4.750000	733.968907
4.760000	668.037919
4.770000	681.584428
4.780000	683.834302
4.790000	664.444407
4.800000	626.691455
4.810000	590.038683
4.820000	548.835944
4.830000	488.631565
4.840000	453.162833
4.850000	444.131367
4.860000	477.216947
4.870000	490.105575
4.880000	479.454771
4.890000	450.458086
4.900000	418.742556
4.910000	397.157382
4.920000	383.677009
4.930000	378.884470
4.940000	379.955836
4.950000	386.973038
4.960000	398.249734
4.970000	398.376939
4.980000	398.302139
4.990000	411.807834
5.000000	446.356148
5.010000	487.196435
5.020000	520.430963
5.030000	550.988287
5.040000	586.531243
5.050000	621.093736
5.060000	611.212633
5.070000	588.088085
5.080000	587.590412
5.090000	638.746926
5.100000	667.033455
5.110000	626.166061
5.120000	530.993514
5.130000	421.335934
5.140000	318.584817
5.150000	230.148967
5.160000	163.858543
5.170000	117.949947
5.180000	88.473593
5.190000	69.425643
5.200000	59.782374
5.210000	52.230478
5.220000	43.782480
5.230000	28.372663
5.240000	9.153400
5.250000	-13.815122
5.260000	-34.781831
5.270000	-51.668417
5.280000	-61.704224
5.290000	-67.191681
5.300000	-65.603026
5.310000	-58.048251
5.320000	-42.817704
5.330000	-25.248099
5.340000	-4.004954
5.350000	20.221958
5.360000	48.153498
5.370000	77.023964
5.380000	106.326039
5.390000	137.839834
5.400000	171.500791
5.410000	205.992570
5.420000	241.018339
5.430000	276.485557
5.440000	312.542596
5.450000	340.627021
5.460000	344.049957
5.470000	311.120656
5.480000	242.596301
5.490000	153.658383
5.500000	58.811607
5.510000	-29.138054
5.520000	-103.319208
5.530000	-161.276767
5.540000	-204.123623
5.550000	-233.414148
5.560000	-250.592179
5.570000	-256.882357
5.580000	-258.740185
5.590000	-259.340288
5.600000	-264.561332
5.610000	-272.442717
5.620000	-283.388648
5.630000	-294.201905
5.640000	-302.551972
5.650000	-305.961290
5.660000	-301.715551
5.670000	-288.726350
5.680000	-269.223087
5.690000	-246.496134
5.700000	-219.387179
5.710000	-189.609544
5.720000	-153.873562
5.730000	-116.413277
5.740000	-75.346432
5.750000	-33.232786
5.760000	9.850317
5.770000	53.275371
5.780000	93.367584
5.790000	129.453702
5.800000	163.888139
5.810000	197.957115
5.820000	229.059074
5.830000	242.086945
5.840000	222.893116
5.850000	168.240251
5.860000	88.089956
5.870000	-0.928548
5.880000	-86.733077
5.890000	-160.447168
5.900000	-218.244630
5.910000	-258.981436
5.920000	-287.781978
5.930000	-310.860907
5.940000	-331.319946
5.950000	-350.745680
5.960000	-371.536566
5.970000	-396.976262
5.980000	-425.082386
5.990000	-451.544398
6.000000	-473.977727
6.010000	-491.126812
6.020000	-500.882177
6.030000	-503.059575
6.040000	-499.805026
6.050000	-491.666884
6.060000	-478.070655
6.070000	-456.615301
6.080000	-428.358836
6.090000	-396.248882
6.100000	-359.650737
6.110000	-317.896180
6.120000	-274.969474
6.130000	-237.230973
6.140000	-210.969226
6.150000	-192.553309
6.160000	-177.982991
6.170000	-163.224152
6.180000	-148.356893
6.190000	-131.572213
6.200000	-116.093928
6.210000	-115.297701
6.220000	-143.850955
6.230000	-208.351035
6.240000	-295.904692
6.250000	-392.083959
6.260000	-481.305960
6.270000	-556.858847
6.280000	-617.740733
6.290000	-665.659221
6.300000	-704.533177
6.310000	-735.136102
6.320000	-755.336333
6.330000	-767.644630
6.340000	-779.505471
6.350000	-798.840433
6.360000	-822.664142
6.370000	-843.376571
6.380000	-857.854971
6.390000	-868.949151
6.400000	-875.053773
6.410000	-871.533787
6.420000	-854.943046
6.430000	-827.822228
6.440000	-796.196068
6.450000	-762.120762
6.460000	-727.469720
6.470000	-688.759183
6.480000	-645.773748
6.490000	-597.750960
6.500000	-548.110911
6.510000	-500.431603
6.520000	-455.462185
6.530000	-412.797733
6.540000	-369.829503
6.550000	-324.855223
6.560000	-277.556261
6.570000	-228.270255
6.580000	-176.971191
6.590000	-128.053361
6.600000	-93.763717
6.610000	-89.534671
6.620000	-122.556487
6.630000	-182.657937
6.640000	-254.691989
6.650000	-323.136663
6.660000	-380.873818
6.670000	-426.654843
6.680000	-461.418407
6.690000	-490.542050
6.700000	-511.297650
6.710000	-524.128296
6.720000	-526.860108
6.730000	-526.095789
6.740000	-526.106707
6.750000	-530.084258
6.760000	-535.026968
6.770000	-539.768498
6.780000	-538.959860
6.790000	-533.494052
6.800000	-521.910508
6.810000	-505.584996
6.820000	-483.211431
6.830000	-460.720162
6.840000	-441.864090
6.850000	-395.784681
6.860000	-329.311373
6.870000	-243.190297
6.880000	-171.875736
6.890000	-113.854981
6.900000	-64.455964
6.910000	-26.899239
6.920000	11.315739
6.930000	48.660036
6.940000	92.086117
6.950000	137.497660
6.960000	183.171689
6.970000	228.313154
6.980000	266.550580
6.990000	286.089031
7.000000	271.227331
7.010000	220.211782
7.020000	143.579712
7.030000	54.984935
7.040000	-45.129042
7.050000	-132.869055
7.060000	-197.565696
7.070000	-234.430807
7.080000	-266.436902
7.090000	-299.303507
7.100000	-324.293430
7.110000	-338.884998
7.120000	-351.872781
7.130000	-391.210877
7.140000	-411.275162
7.150000	-363.219707
7.160000	-244.830769
7.170000	-123.444723
7.180000	-67.414340
7.190000	-47.760924
7.200000	-45.049312
7.210000	-31.078244
7.220000	-18.822579
7.230000	-24.095235
7.240000	17.933763
7.250000	111.028162
7.260000	253.316065
7.270000	376.945104
7.280000	456.790479
7.290000	512.292529
7.300000	537.837483
7.310000	564.716038
7.320000	580.405523
7.330000	559.411938
7.340000	519.400097
7.350000	509.167983
7.360000	571.018101
7.370000	635.257660
7.380000	644.310583
7.390000	577.422963
7.400000	482.432570
7.410000	375.141341
7.420000	245.123532
7.430000	118.601332
7.440000	39.504027
7.450000	6.243815
7.460000	-16.901783
7.470000	-63.132720
7.480000	-109.847001
7.490000	-147.237129
7.500000	-197.907366
7.510000	-246.262805
7.520000	-279.334520
7.530000	-271.947923
7.540000	-257.615884
7.550000	-253.614855
7.560000	-265.558343
7.570000	-276.245638
7.580000	-280.226301
7.590000	-280.593159
7.600000	-277.913976
7.610000	-273.970711
7.620000	-266.951853
7.630000	-256.044450
7.640000	-242.689405
7.650000	-225.804782
7.660000	-206.459754
7.670000	-182.583412
7.680000	-154.931489
7.690000	-125.057888
7.700000	-94.430003
7.710000	-63.891029
7.720000	-30.946424
7.730000	5.244184
7.740000	42.167480
7.750000	66.990564
7.760000	64.246967
7.770000	24.058414
7.780000	-49.662908
7.790000	-141.536170
7.800000	-237.603988
7.810000	-324.827266
7.820000	-400.601076
7.830000	-463.816511
7.840000	-519.977055
7.850000	-568.148828
7.860000	-607.380424
7.870000	-636.508012
7.880000	-658.154989
7.890000	-677.902791
7.900000	-694.939469
7.910000	-714.006963
7.920000	-732.397622
7.930000	-749.477624
7.940000	-760.538696
7.950000	-764.652761
7.960000	-762.043672
7.970000	-751.183798
7.980000	-735.255597
7.990000	-715.068960
8.000000	-691.160705
8.010000	-663.646854
8.020000	-633.762723
8.030000	-602.919011
8.040000	-572.725678
8.050000	-542.879573
8.060000	-515.722825
8.070000	-489.522465
8.080000	-463.081560
8.090000	-433.855026
8.100000	-398.464632
8.110000	-360.901037
8.120000	-319.191115
8.130000	-274.649112
8.140000	-225.268088
8.150000	-174.438198
8.160000	-133.058445
8.170000	-115.596416
8.180000	-135.872927
8.190000	-193.742078
8.200000	-275.676362
8.210000	-367.578449
8.220000	-454.837224
8.230000	-529.458396
8.240000	-589.707246
8.250000	-637.373215
8.260000	-680.954106
8.270000	-717.615209
8.280000	-744.893503
8.290000	-762.220466
8.300000	-773.870802
8.310000	-785.520707
8.320000	-798.527237
8.330000	-811.838524
8.340000	-824.875683
8.350000	-835.843560
8.360000	-841.577439
8.370000	-840.877571
8.380000	-831.633438
8.390000	-816.614892
8.400000	-797.710079
8.410000	-774.702648
8.420000	-746.807853
8.430000	-713.814482
8.440000	-677.600337
8.450000	-640.282411
8.460000	-601.407661
8.470000	-560.772714
8.480000	-516.899626
8.490000	-471.292466
8.500000	-424.744007
8.510000	-379.503696
8.520000	-335.602881
8.530000	-291.397346
8.540000	-245.148283
8.550000	-195.311419
8.560000	-142.385616
8.570000	-87.580190
8.580000	-32.643605
8.590000	15.451088
8.600000	41.390136
8.610000	29.797072
8.620000	-21.892481
8.630000	-100.498341
8.640000	-185.840271
8.650000	-267.170485
8.660000	-337.816504
8.670000	-395.872731
8.680000	-441.816046
8.690000	-476.258532
8.700000	-502.171669
8.710000	-517.981199
8.720000	-528.226515
8.730000	-536.383116
8.740000	-546.297625
8.750000	-558.123204
8.760000	-570.044710
8.770000	-579.876718
8.780000	-587.478247
8.790000	-589.969937
8.800000	-585.595145
8.810000	-573.412054
8.820000	-556.068272
8.830000	-535.865966
8.840000	-510.875559
8.850000	-482.674997
8.860000	-451.357283
8.870000	-418.165394
8.880000	-381.509125
8.890000	-343.343117
8.900000	-302.663450
8.910000	-261.205322
8.920000	-218.488330
8.930000	-175.748561
8.940000	-133.988565
8.950000	-89.955787
8.960000	-45.177278
8.970000	1.836916
8.980000	48.280844
8.990000	96.302185
9.000000	146.059457
9.010000	198.094787
9.020000	249.488500
9.030000	287.520734
9.040000	296.235908
9.050000	264.621165
9.060000	197.688557
9.070000	110.410497
9.080000	18.471691
9.090000	-66.148169
9.100000	-137.432394
9.110000	-193.722665
9.120000	-238.019486
9.130000	-271.294818
9.140000	-293.941231
9.150000	-306.536739
9.160000	-313.876831
9.170000	-322.786184
9.180000	-336.136535
9.190000	-354.029321
9.200000	-373.388484
9.210000	-391.607724
9.220000	-405.973783
9.230000	-413.518738
9.240000	-412.896509
9.250000	-404.767896
9.260000	-392.158020
9.270000	-375.341447
9.280000	-354.083065
9.290000	-327.243765
9.300000	-296.680571
9.310000	-263.808748
9.320000	-229.272814
9.330000	-193.369272
9.340000	-154.188470
9.350000	-113.936879
9.360000	-72.092046
9.370000	-30.506060
9.380000	12.686567
9.390000	56.255265
9.400000	100.475356
9.410000	146.358349
9.420000	195.271891
9.430000	246.796991
9.440000	298.737706
9.450000	342.893663
9.460000	363.524360
9.470000	347.673220
9.480000	293.684313
9.490000	214.836411
9.500000	126.526383
9.510000	41.669436
9.520000	-30.631686
9.530000	-87.169719
9.540000	-127.787105
9.550000	-157.344615
9.560000	-176.920411
9.570000	-185.835949
9.580000	-187.719793
9.590000	-189.323086
9.600000	-196.503597
9.610000	-207.108077
9.620000	-219.274368
9.630000	-230.209658
9.640000	-239.370107
9.650000	-241.282799
9.660000	-236.801292
9.670000	-225.670605
9.680000	-211.560606
9.690000	-192.025264
9.700000	-166.976347
9.710000	-137.365698
9.720000	-105.043773
9.730000	-70.016582
9.740000	-32.426720
9.750000	7.684706
9.760000	49.540575
9.770000	93.073911
