Time(s)	IR_denoised_wiener
0.000000	898.865162
0.010000	1153.786019
0.020000	910.063113
0.030000	1110.733525
0.040000	1440.205286
0.050000	1987.136375
0.060000	2478.031243
0.070000	3091.793653
0.080000	3399.533128
0.090000	3374.233377
0.100000	3082.972153
0.110000	2719.700285
0.120000	2359.095631
0.130000	1883.651366
0.140000	1348.371573
0.150000	806.275590
0.160000	353.110063
0.170000	21.070385
0.180000	-224.991371
0.190000	-423.465433
0.200000	-708.009589
0.210000	-1043.526294
0.220000	-1328.166423
0.230000	-1535.449521
0.240000	-1724.213018
0.250000	-1940.325953
0.260000	-2150.698286
0.270000	-2269.045194
0.280000	-2375.964183
0.290000	-2289.365233
0.300000	-2110.330123
0.310000	-1888.198770
0.320000	-1511.911095
0.330000	-1098.648063
0.340000	-564.929762
0.350000	-221.167975
0.360000	135.806796
0.370000	527.156923
0.380000	801.079739
0.390000	859.307042
0.400000	672.219482
0.410000	424.390440
0.420000	201.098215
0.430000	-76.632196
0.440000	-241.000111
0.450000	-356.280371
0.460000	-347.370367
0.470000	-369.883579
0.480000	-442.352082
0.490000	-466.487170
0.500000	-446.603452
0.510000	-404.459789
0.520000	-480.836106
0.530000	-591.468624
0.540000	-686.818378
0.550000	-737.854623
0.560000	-814.727149
0.570000	-891.965336
0.580000	-940.947855
0.590000	-943.090781
0.600000	-881.159333
0.610000	-698.093807
0.620000	-479.081690
0.630000	-236.884650
0.640000	-0.033983
0.650000	233.421729
0.660000	633.488921
0.670000	1260.106207
0.680000	1811.699432
0.690000	2352.141725
0.700000	2718.969043
0.710000	2870.523227
0.720000	2708.096226
0.730000	2349.848038
0.740000	2252.835262
0.750000	2161.563522
0.760000	1980.026777
0.770000	1692.848230
0.780000	1304.955154
0.790000	935.460966
0.800000	511.036014
0.810000	-29.879633
0.820000	-498.514612
0.830000	-942.522012
0.840000	-1200.811043
0.850000	-1322.059716
0.860000	-1329.022158
0.870000	-1157.009839
0.880000	-917.035126
0.890000	-570.535102
0.900000	-187.331753
0.910000	91.090164
0.920000	318.588832
0.930000	488.563396
0.940000	613.576070
0.950000	725.436844
0.960000	792.402769
0.970000	940.758331
0.980000	1065.274255
0.990000	1208.165423
1.000000	1267.764505
1.010000	1220.801757
1.020000	1037.584325
1.030000	782.710903
1.040000	417.133252
1.050000	186.415480
1.060000	26.177887
1.070000	-89.761438
1.080000	-85.149274
1.090000	-97.177810
1.100000	6.610900
1.110000	-100.508710
1.120000	-92.155198
1.130000	65.703951
1.140000	305.479379
1.150000	525.502732
1.160000	731.755945
1.170000	1030.924353
1.180000	1365.928898
1.190000	1649.943706
1.200000	1889.370591
1.210000	2035.825176
1.220000	2037.147737
1.230000	1965.059269
1.240000	1841.132730
1.250000	1732.430413
1.260000	1648.973015
1.270000	1618.528768
1.280000	1562.867127
1.290000	1436.394874
1.300000	1237.560120
1.310000	1061.203445
1.320000	838.146793
1.330000	607.988063
1.340000	368.963591
1.350000	163.905329
1.360000	2.365579
1.370000	-68.063234
1.380000	-51.030385
1.390000	20.563746
1.400000	141.324842
1.410000	297.844119
1.420000	492.732569
1.430000	753.200315
1.440000	1003.198039
1.450000	1227.397729
1.460000	1563.424464
1.470000	1850.449350
1.480000	2198.401550
1.490000	2419.690543
1.500000	2647.599719
1.510000	2677.008430
1.520000	2538.450966
1.530000	2414.081590
1.540000	2337.900456
1.550000	2231.183275
1.560000	2058.138953
1.570000	1907.965617
1.580000	1790.496429
1.590000	1721.433956
1.600000	1612.237038
1.610000	1630.942680
1.620000	1594.682413
1.630000	1591.196076
1.640000	1549.693329
1.650000	1578.943118
1.660000	1650.326880
1.670000	1799.198678
1.680000	1977.062432
1.690000	2130.438998
1.700000	2216.157542
1.710000	2247.164147
1.720000	2233.909272
1.730000	2083.267720
1.740000	1887.833409
1.750000	1655.132697
1.760000	1405.119449
1.770000	1106.183196
1.780000	784.557542
1.790000	441.156690
1.800000	175.257684
1.810000	-28.192600
1.820000	-124.554315
1.830000	-218.629092
1.840000	-263.293114
1.850000	-306.337675
1.860000	-320.504508
1.870000	-359.280745
1.880000	-349.715330
1.890000	-199.183798
1.900000	-6.800778
1.910000	331.121512
1.920000	557.440094
1.930000	806.819674
1.940000	818.577857
1.950000	841.900315
1.960000	915.786425
1.970000	997.069383
1.980000	900.250837
1.990000	632.079233
2.000000	334.732634
2.010000	72.185693
2.020000	-139.606746
2.030000	-365.954357
2.040000	-471.084505
2.050000	-641.337134
2.060000	-755.409341
2.070000	-884.942575
2.080000	-950.679797
2.090000	-926.721984
2.100000	-865.192635
2.110000	-780.760605
2.120000	-696.090176
2.130000	-628.481223
2.140000	-549.225400
2.150000	-548.559893
2.160000	-624.138335
2.170000	-698.130544
2.180000	-756.927594
2.190000	-790.745599
2.200000	-860.946786
2.210000	-911.072194
2.220000	-1004.664664
2.230000	-1142.930614
2.240000	-1338.450758
2.250000	-1513.578790
2.260000	-1649.436424
2.270000	-1811.163139
2.280000	-1978.226103
2.290000	-2087.670854
2.300000	-2151.929935
2.310000	-2060.214435
2.320000	-1879.496832
2.330000	-1594.908577
2.340000	-1189.099425
2.350000	-881.295495
2.360000	-521.397787
2.370000	-309.354466
2.380000	87.722906
2.390000	505.175126
2.400000	875.063902
2.410000	1189.156226
2.420000	1355.461909
2.430000	1493.337724
2.440000	1458.755951
2.450000	1386.236563
2.460000	1328.109378
2.470000	1259.207173
2.480000	1127.005109
2.490000	927.929153
2.500000	729.044584
2.510000	528.410796
2.520000	337.068365
2.530000	141.105346
2.540000	-66.608334
2.550000	-320.996099
2.560000	-643.301002
2.570000	-947.858007
2.580000	-1193.838125
2.590000	-1309.022220
2.600000	-1293.629933
2.610000	-1231.138029
2.620000	-1151.999557
2.630000	-1065.920822
2.640000	-983.763495
2.650000	-936.483784
2.660000	-931.855902
2.670000	-929.975086
2.680000	-869.616194
2.690000	-742.338285
2.700000	-544.784511
2.710000	-334.596882
2.720000	-110.853632
2.730000	88.308463
2.740000	220.335878
2.750000	370.501868
2.760000	408.202315
2.770000	512.481805
2.780000	617.999797
2.790000	800.785162
2.800000	832.562823
2.810000	767.799292
2.820000	748.299458
2.830000	829.843731
2.840000	931.593624
2.850000	944.409382
2.860000	945.330930
2.870000	911.966552
2.880000	996.812689
2.890000	1141.541611
2.900000	1400.199507
2.910000	1552.960350
2.920000	1620.843184
2.930000	1606.256126
2.940000	1522.444229
2.950000	1379.804458
2.960000	1245.126639
2.970000	1162.549811
2.980000	1120.581566
2.990000	1062.094542
3.000000	1035.249793
3.010000	1009.680433
3.020000	950.829403
3.030000	879.005955
3.040000	746.477106
3.050000	570.765047
3.060000	361.022191
3.070000	192.960008
3.080000	38.534717
3.090000	-102.516966
3.100000	-211.315735
3.110000	-246.347979
3.120000	-198.338254
3.130000	-67.622896
3.140000	102.436233
3.150000	203.839185
3.160000	284.552981
3.170000	342.744389
3.180000	348.839458
3.190000	457.400610
3.200000	551.625229
3.210000	767.662212
3.220000	956.203612
3.230000	1090.168831
3.240000	1097.901542
3.250000	943.347875
3.260000	840.526943
3.270000	739.709122
3.280000	631.502388
3.290000	456.504904
3.300000	267.022502
3.310000	77.767918
3.320000	-28.701264
3.330000	-46.276636
3.340000	27.466547
3.350000	40.154628
3.360000	31.395257
3.370000	22.769279
3.380000	48.925381
3.390000	88.127210
3.400000	152.445796
3.410000	251.709038
3.420000	345.390589
3.430000	385.498997
3.440000	337.266288
3.450000	231.028307
3.460000	30.853132
3.470000	-239.385689
3.480000	-566.029701
3.490000	-917.860462
3.500000	-1238.620154
3.510000	-1535.286023
3.520000	-1815.991600
3.530000	-2065.425710
3.540000	-2310.257560
3.550000	-2495.788474
3.560000	-2663.568436
3.570000	-2783.402067
3.580000	-2900.869289
3.590000	-2990.269024
3.600000	-3047.011207
3.610000	-3033.495653
3.620000	-3016.557536
3.630000	-2988.301817
3.640000	-2813.205310
3.650000	-2535.387214
3.660000	-2134.796495
3.670000	-1805.514211
3.680000	-1560.343718
3.690000	-1472.929358
3.700000	-1425.486651
3.710000	-1322.861906
3.720000	-1282.001126
3.730000	-1412.229592
3.740000	-1671.222216
3.750000	-1905.081027
3.760000	-2134.045496
3.770000	-2332.931983
3.780000	-2491.367426
3.790000	-2533.060206
3.800000	-2605.094858
3.810000	-2698.886506
3.820000	-2790.572931
3.830000	-2830.768924
3.840000	-2842.376033
3.850000	-2869.168742
3.860000	-2884.780124
3.870000	-2904.811014
3.880000	-2939.964813
3.890000	-3010.607388
3.900000	-3108.197834
3.910000	-3215.842021
3.920000	-3281.796462
3.930000	-3307.350408
3.940000	-3322.602399
3.950000	-3372.026524
3.960000	-3420.317505
3.970000	-3482.636228
3.980000	-3562.796426
3.990000	-3699.135716
4.000000	-3844.836381
4.010000	-3990.867177
4.020000	-4076.529198
4.030000	-4118.940361
4.040000	-4096.242821
4.050000	-4061.346596
4.060000	-3957.115037
4.070000	-3782.701402
4.080000	-3465.584122
4.090000	-3019.419705
4.100000	-2635.668075
4.110000	-2288.667880
4.120000	-2133.708246
4.130000	-1861.097835
4.140000	-1622.474018
4.150000	-1501.131573
4.160000	-1495.464382
4.170000	-1621.337352
4.180000	-1710.740039
4.190000	-1870.755271
4.200000	-1975.164405
4.210000	-2017.624831
4.220000	-2036.165924
4.230000	-2081.316882
4.240000	-2136.103064
4.250000	-2164.075993
4.260000	-2219.409158
4.270000	-2264.703138
4.280000	-2305.619213
4.290000	-2307.003340
4.300000	-2286.425357
4.310000	-2279.804656
4.320000	-2287.249949
4.330000	-2310.393037
4.340000	-2312.752136
4.350000	-2292.524991
4.360000	-2268.425028
4.370000	-2262.112081
4.380000	-2266.799504
4.390000	-2280.491366
4.400000	-2294.935141
4.410000	-2321.702741
4.420000	-2369.840765
4.430000	-2416.268734
4.440000	-2457.575855
4.450000	-2507.991187
4.460000	-2527.937062
4.470000	-2547.678576
4.480000	-2571.666333
4.490000	-2509.209461
4.500000	-2360.749874
4.510000	-2027.905362
4.520000	-1647.581894
4.530000	-1297.874424
4.540000	-1143.084478
4.550000	-1074.192339
4.560000	-890.433712
4.570000	-624.582728
4.580000	-434.556773
4.590000	-400.856328
4.600000	-445.339013
4.610000	-559.414919
4.620000	-663.686455
4.630000	-721.516352
4.640000	-693.116353
4.650000	-727.559997
4.660000	-795.812925
4.670000	-894.094564
4.680000	-963.445202
4.690000	-1039.976535
4.700000	-1064.567885
4.710000	-1022.397827
4.720000	-938.550161
4.730000	-860.629966
4.740000	-844.636811
4.750000	-896.805729
4.760000	-1004.417357
4.770000	-1096.566615
4.780000	-1171.464976
4.790000	-1255.146789
4.800000	-1275.651943
4.810000	-1219.294466
4.820000	-1138.426680
4.830000	-1094.204984
4.840000	-1107.829263
4.850000	-1124.977921
4.860000	-1134.084702
4.870000	-1060.311410
4.880000	-964.780133
4.890000	-967.538871
4.900000	-1083.918966
4.910000	-1058.084779
4.920000	-708.657737
4.930000	-317.631010
4.940000	0.336588
4.950000	332.986641
4.960000	772.284967
4.970000	1181.252405
4.980000	1513.426692
4.990000	1983.514695
5.000000	2653.763341
5.010000	3146.516878
5.020000	3516.904560
5.030000	3749.943476
5.040000	3920.911741
5.050000	4211.949348
5.060000	4651.115858
5.070000	5338.440689
5.080000	5649.285059
5.090000	5754.406363
5.100000	5994.210845
5.110000	6335.972042
5.120000	6413.178883
5.130000	6193.749413
5.140000	6028.158232
5.150000	5845.330282
5.160000	5475.829429
5.170000	5030.644015
5.180000	4571.328124
5.190000	4024.216879
5.200000	3287.714510
5.210000	2540.858785
5.220000	1811.651488
5.230000	1074.987398
5.240000	359.702987
5.250000	-225.698362
5.260000	-476.346911
5.270000	-567.794612
5.280000	-522.675333
5.290000	-410.049792
5.300000	-138.259966
5.310000	179.100768
5.320000	386.343044
5.330000	589.273260
5.340000	755.871670
5.350000	1109.451658
5.360000	1513.717662
5.370000	2037.164694
5.380000	2758.230224
5.390000	3489.788023
5.400000	4137.972361
5.410000	4409.838386
5.420000	4561.530134
5.430000	4678.728427
5.440000	4773.527315
5.450000	4712.193084
5.460000	4280.278216
5.470000	3507.637709
5.480000	2798.366171
5.490000	2329.100293
5.500000	1822.851055
5.510000	1133.231238
5.520000	444.219760
5.530000	39.612897
5.540000	-344.271896
5.550000	-861.393978
5.560000	-1218.224285
5.570000	-1400.858554
5.580000	-1433.303713
5.590000	-1389.817276
5.600000	-1259.505271
5.610000	-1252.739593
5.620000	-1540.621364
5.630000	-1827.736168
5.640000	-2056.078271
5.650000	-2254.994580
5.660000	-2460.241185
5.670000	-2599.644768
5.680000	-2642.873690
5.690000	-2646.220657
5.700000	-2416.508553
5.710000	-2097.409018
5.720000	-1838.847613
5.730000	-1784.934811
5.740000	-2029.067157
5.750000	-2302.819630
5.760000	-2645.484343
5.770000	-2921.576551
5.780000	-2960.155937
5.790000	-2907.556312
5.800000	-2756.757374
5.810000	-2590.466490
5.820000	-2502.071699
5.830000	-2410.246586
5.840000	-2592.387282
5.850000	-2681.605971
5.860000	-2661.681042
5.870000	-2652.353335
5.880000	-2672.043884
5.890000	-2668.586991
5.900000	-2623.177969
5.910000	-2603.403643
5.920000	-2632.201221
5.930000	-2671.062732
5.940000	-2656.834031
5.950000	-2779.426838
5.960000	-2940.350695
5.970000	-3163.803223
5.980000	-3318.782380
5.990000	-3406.884387
6.000000	-3500.749059
6.010000	-3623.836266
6.020000	-3761.282176
6.030000	-3886.426658
6.040000	-4036.661319
6.050000	-4213.922276
6.060000	-4335.476331
6.070000	-4387.274076
6.080000	-4389.385018
6.090000	-4325.525062
6.100000	-4237.451191
6.110000	-4164.767218
6.120000	-4169.240976
6.130000	-4169.611565
6.140000	-4168.254439
6.150000	-4172.128036
6.160000	-4189.931099
6.170000	-4188.520191
6.180000	-4168.021907
6.190000	-4024.615085
6.200000	-3837.602695
6.210000	-3527.258962
6.220000	-3177.952007
6.230000	-2914.330001
6.240000	-2682.793627
6.250000	-2598.511782
6.260000	-2426.318877
6.270000	-2359.514852
6.280000	-2367.539029
6.290000	-2464.950191
6.300000	-2638.322578
6.310000	-2814.527041
6.320000	-2980.575347
6.330000	-3049.202452
6.340000	-3037.081339
6.350000	-3018.000984
6.360000	-3091.623117
6.370000	-3212.029519
6.380000	-3340.145313
6.390000	-3434.344421
6.400000	-3486.384307
6.410000	-3551.122788
6.420000	-3542.859092
6.430000	-3512.229129
6.440000	-3458.143640
6.450000	-3411.707349
6.460000	-3391.007493
6.470000	-3327.895356
6.480000	-3292.863670
6.490000	-3289.175119
6.500000	-3340.383507
6.510000	-3430.285112
6.520000	-3482.007617
6.530000	-3518.939506
6.540000	-3553.869744
6.550000	-3637.296013
6.560000	-3738.772823
6.570000	-3761.397963
6.580000	-3768.374962
6.590000	-3595.800121
6.600000	-3420.167306
6.610000	-3124.315622
6.620000	-2788.753705
6.630000	-2391.130988
6.640000	-2017.217325
6.650000	-1834.415356
6.660000	-1605.144601
6.670000	-1433.545429
6.680000	-1270.221814
6.690000	-1235.043186
6.700000	-1188.487176
6.710000	-1200.013315
6.720000	-1245.057138
6.730000	-1199.270003
6.740000	-1066.871956
6.750000	-959.043300
6.760000	-1024.009115
6.770000	-1138.957186
6.780000	-1276.959052
6.790000	-1450.192313
6.800000	-1618.643876
6.810000	-1758.681723
6.820000	-1840.853052
6.830000	-1828.021407
6.840000	-1756.800529
6.850000	-1641.834172
6.860000	-1619.948017
6.870000	-1584.841264
6.880000	-1511.177623
6.890000	-1361.004422
6.900000	-1180.493299
6.910000	-1027.051076
6.920000	-882.785746
6.930000	-688.833056
6.940000	-396.284330
6.950000	-16.289713
6.960000	471.462854
6.970000	1040.286309
6.980000	1661.368377
6.990000	2224.806193
7.000000	2889.180293
7.010000	3468.551200
7.020000	4047.910092
7.030000	4577.101125
7.040000	5065.648919
7.050000	5406.845901
7.060000	5574.458483
7.070000	5786.446666
7.080000	5993.722091
7.090000	6061.668888
7.100000	5948.766572
7.110000	5747.118744
7.120000	5440.375880
7.130000	5158.836118
7.140000	4951.963244
7.150000	4927.248245
7.160000	4851.485507
7.170000	4680.050877
7.180000	4486.205978
7.190000	4355.764254
7.200000	4281.214879
7.210000	4236.306031
7.220000	4189.424020
7.230000	4165.887542
7.240000	4133.025626
7.250000	4122.866841
7.260000	4081.278993
7.270000	3974.792928
7.280000	3923.512463
7.290000	3840.042319
7.300000	3710.175052
7.310000	3444.314279
7.320000	3156.628431
7.330000	2906.668846
7.340000	2716.880640
7.350000	2574.495549
7.360000	2440.297149
7.370000	2264.197406
7.380000	2124.639748
7.390000	1985.826602
7.400000	1881.081330
7.410000	1804.926379
7.420000	1721.016618
7.430000	1789.478922
7.440000	1865.361769
7.450000	2096.083566
7.460000	2310.081187
7.470000	2529.137566
7.480000	2649.709299
7.490000	2707.494831
7.500000	2780.375331
7.510000	2781.990942
7.520000	2663.736204
7.530000	2429.557052
7.540000	2176.613258
7.550000	1861.999776
7.560000	1600.853500
7.570000	1430.492333
7.580000	1478.606638
7.590000	1635.598942
7.600000	2098.134485
7.610000	2906.878367
7.620000	3855.252278
7.630000	4947.005546
7.640000	6127.146508
7.650000	7425.972428
7.660000	8696.827821
7.670000	9808.255089
7.680000	10982.087739
7.690000	12020.327088
7.700000	12970.966512
7.710000	13772.709510
7.720000	14406.906985
7.730000	14998.096997
7.740000	15385.342306
7.750000	15269.383883
7.760000	14237.028941
7.770000	12224.402019
7.780000	9401.633992
7.790000	6705.692671
7.800000	4651.074219
7.810000	3104.648790
7.820000	1859.407026
7.830000	1309.085010
7.840000	1689.011720
7.850000	2657.214616
7.860000	3546.669053
7.870000	3509.793480
7.880000	3152.597024
7.890000	2624.730212
7.900000	2426.432234
7.910000	2621.746232
7.920000	3058.951827
7.930000	3889.204093
7.940000	4609.952231
7.950000	5194.912593
7.960000	5216.124850
7.970000	4990.608908
7.980000	4700.869206
7.990000	4372.147307
8.000000	4082.365066
8.010000	3780.270500
8.020000	3634.069334
8.030000	3243.771463
8.040000	2802.339910
8.050000	2364.496455
8.060000	2089.166389
8.070000	1963.685827
8.080000	1854.930289
8.090000	1850.081160
8.100000	1863.486285
8.110000	1868.905714
8.120000	1804.877479
8.130000	1643.085795
8.140000	1449.123631
8.150000	1287.191615
8.160000	1103.307267
8.170000	960.546871
8.180000	824.817784
8.190000	702.272257
8.200000	539.757499
8.210000	340.410146
8.220000	245.667449
8.230000	171.518352
8.240000	115.055492
8.250000	31.432511
8.260000	-35.726527
8.270000	-131.978854
8.280000	-188.943717
8.290000	-188.945121
8.300000	-139.981255
8.310000	122.478449
8.320000	411.597935
8.330000	775.795754
8.340000	913.462475
8.350000	1058.830655
8.360000	1225.633063
8.370000	1412.067015
8.380000	1468.307009
8.390000	1328.108631
8.400000	1100.035880
8.410000	846.931900
8.420000	763.700449
8.430000	673.639927
8.440000	719.480170
8.450000	626.772355
8.460000	569.393866
8.470000	462.763248
8.480000	358.248359
8.490000	282.252030
8.500000	179.778124
8.510000	129.004476
8.520000	110.269440
8.530000	133.400569
8.540000	170.886567
8.550000	186.333008
8.560000	186.181134
8.570000	198.216236
8.580000	177.834754
8.590000	105.057344
8.600000	-13.215176
8.610000	-145.478980
8.620000	-246.339590
8.630000	-298.539515
8.640000	-317.334527
8.650000	-350.471471
8.660000	-412.688611
8.670000	-460.360557
8.680000	-483.587039
8.690000	-520.166650
8.700000	-603.593927
8.710000	-560.191624
8.720000	-521.227203
8.730000	-305.815686
8.740000	-19.437710
8.750000	335.050477
8.760000	628.211547
8.770000	758.533171
8.780000	951.297269
8.790000	1063.208169
8.800000	1145.788430
8.810000	1067.917601
8.820000	959.865978
8.830000	791.721243
8.840000	673.527791
8.850000	708.371331
8.860000	761.400676
8.870000	826.906386
8.880000	730.004860
8.890000	640.917588
8.900000	513.542189
8.910000	368.638729
8.920000	249.667157
8.930000	206.902873
8.940000	255.886665
8.950000	321.105864
8.960000	389.799779
8.970000	423.424943
8.980000	399.609863
8.990000	346.066448
9.000000	262.192694
9.010000	147.557914
9.020000	-11.412110
9.030000	-189.998007
9.040000	-329.076011
9.050000	-484.023032
9.060000	-586.555916
9.070000	-700.902010
9.080000	-848.743325
9.090000	-1050.603182
9.100000	-1263.582930
9.110000	-1491.927903
9.120000	-1717.188602
9.130000	-1945.817077
9.140000	-2202.340963
9.150000	-2263.189514
9.160000	-2244.258005
9.170000	-2070.203294
9.180000	-1870.237735
9.190000	-1729.932325
9.200000	-1582.635399
9.210000	-1557.703294
9.220000	-1431.568203
9.230000	-1349.994010
9.240000	-1300.238540
9.250000	-1357.366299
9.260000	-1451.685882
9.270000	-1657.308982
9.280000	-1852.438069
9.290000	-1930.470479
9.300000	-2000.293340
9.310000	-2042.458184
9.320000	-2220.163078
9.330000	-2371.733860
9.340000	-2608.964938
9.350000	-2830.606162
9.360000	-2982.745985
9.370000	-3123.302164
9.380000	-3283.972269
9.390000	-3446.712817
9.400000	-3521.853757
9.410000	-3530.279689
9.420000	-3538.045836
9.430000	-3561.564004
9.440000	-3602.050548
9.450000	-3656.023672
9.460000	-3711.219930
9.470000	-3784.753327
9.480000	-3891.573153
9.490000	-4011.911212
9.500000	-4101.717041
9.510000	-4131.299643
9.520000	-4170.325320
9.530000	-4273.171279
9.540000	-4408.222953
9.550000	-4524.849871
9.560000	-4617.771280
9.570000	-4705.119165
9.580000	-4803.842989
9.590000	-4781.170736
9.600000	-4662.542911
9.610000	-4423.612711
9.620000	-4166.116393
9.630000	-3942.112257
9.640000	-3734.694534
9.650000	-3493.714606
9.660000	-3149.412927
9.670000	-2960.078731
9.680000	-2864.447704
9.690000	-2799.966655
9.700000	-2642.841541
9.710000	-2506.366261
9.720000	-2461.646563
9.730000	-2445.925132
9.740000	-2440.098269
9.750000	-2392.922355
9.760000	-2343.658339
9.770000	-2344.815564
9.780000	-2441.056249
9.790000	-2532.504294
9.800000	-2542.710777
9.810000	-2503.682930
9.820000	-2492.012852
9.830000	-2553.301258
9.840000	-2660.640292
9.850000	-2766.052586
9.860000	-2805.079674
9.870000	-2832.321113
9.880000	-2859.591379
9.890000	-2938.220963
9.900000	-3020.687302
9.910000	-3093.736914
9.920000	-3134.277747
9.930000	-3085.681849
9.940000	-3005.034470
9.950000	-2847.199489
9.960000	-2656.222425
9.970000	-2471.222694
9.980000	-2320.900311
9.990000	-2196.661456
10.000000	-2077.728811
10.010000	-1928.242276
10.020000	-1719.092064
10.030000	-1405.295092
10.040000	-977.066955
10.050000	-591.988579
10.060000	-287.559039
10.070000	-174.061659
10.080000	-48.369344
10.090000	76.092118
10.100000	89.711803
10.110000	-44.063819
10.120000	-263.780907
10.130000	-468.286431
10.140000	-698.505561
10.150000	-855.298727
10.160000	-917.284162
10.170000	-817.692738
10.180000	-698.475058
10.190000	-555.523938
10.200000	-467.063077
10.210000	-433.311194
10.220000	-387.637093
10.230000	-338.807777
10.240000	-246.578033
10.250000	-162.724609
10.260000	-102.919942
10.270000	-67.431888
10.280000	-84.169818
10.290000	-112.448774
10.300000	-151.359572
10.310000	-242.077836
10.320000	-352.176378
10.330000	-478.616110
10.340000	-542.947180
10.350000	-574.945368
10.360000	-599.196742
10.370000	-600.992325
10.380000	-597.024116
10.390000	-584.142290
10.400000	-577.057317
10.410000	-604.821013
10.420000	-616.024822
10.430000	-587.732488
10.440000	-523.886622
10.450000	-337.213148
10.460000	-142.121324
10.470000	171.103560
10.480000	480.523610
10.490000	792.957220
10.500000	963.602847
10.510000	1030.163637
10.520000	1120.782730
10.530000	1189.077032
10.540000	1205.863588
10.550000	1055.941971
10.560000	926.630527
10.570000	784.055297
10.580000	682.830459
10.590000	638.919795
10.600000	624.100392
10.610000	606.633362
10.620000	587.653365
10.630000	599.626423
10.640000	642.310629
10.650000	601.167031
10.660000	591.795470
10.670000	631.634188
10.680000	709.063997
10.690000	812.298379
10.700000	900.785004
10.710000	980.957098
10.720000	1009.234778
10.730000	1004.654575
10.740000	884.271871
10.750000	692.235845
10.760000	447.441616
10.770000	243.892711
10.780000	89.578376
10.790000	-45.684725
10.800000	-161.329249
10.810000	-285.469166
10.820000	-329.042656
10.830000	-317.695659
10.840000	-370.806555
10.850000	-502.091038
10.860000	-620.407598
10.870000	-658.677025
10.880000	-538.768847
10.890000	-424.718066
10.900000	-219.870054
10.910000	24.044684
10.920000	292.008222
10.930000	497.824560
10.940000	471.870620
10.950000	480.682949
10.960000	411.238400
10.970000	399.774454
10.980000	264.281224
10.990000	89.815910
11.000000	-109.654150
11.010000	-316.581789
11.020000	-397.720108
11.030000	-472.454433
11.040000	-494.444667
11.050000	-627.684589
11.060000	-730.442044
11.070000	-811.439864
11.080000	-865.512519
11.090000	-879.617439
11.100000	-878.797550
11.110000	-822.056262
11.120000	-738.717697
11.130000	-653.590660
11.140000	-597.428143
11.150000	-612.262671
11.160000	-695.120932
11.170000	-823.987656
11.180000	-986.946045
11.190000	-1148.083965
11.200000	-1301.958043
11.210000	-1459.995778
11.220000	-1606.998701
11.230000	-1726.338067
11.240000	-1816.848844
11.250000	-1874.438593
11.260000	-1926.551134
11.270000	-2000.637243
11.280000	-2084.575404
11.290000	-2113.788373
11.300000	-2074.835884
11.310000	-1968.072343
11.320000	-1815.917768
11.330000	-1518.112664
11.340000	-1112.805589
11.350000	-707.434895
11.360000	-384.381992
11.370000	-261.945639
11.380000	-68.309234
11.390000	140.555211
11.400000	305.333782
11.410000	301.457151
11.420000	151.294910
11.430000	87.518780
11.440000	-24.837417
11.450000	-110.257653
11.460000	-169.594789
11.470000	-96.153110
11.480000	23.369799
11.490000	67.443100
11.500000	47.955719
11.510000	5.373561
11.520000	44.976295
11.530000	129.503375
11.540000	235.292613
11.550000	317.835204
11.560000	384.678722
11.570000	466.825808
11.580000	545.857652
11.590000	597.730393
11.600000	603.982210
11.610000	594.699481
11.620000	580.318153
11.630000	538.177211
11.640000	452.941281
11.650000	328.976968
11.660000	237.015444
11.670000	186.879039
11.680000	177.663927
11.690000	155.573789
11.700000	104.688564
11.710000	45.307646
11.720000	-11.037082
11.730000	27.202575
11.740000	124.162795
11.750000	319.581454
11.760000	691.745690
11.770000	1112.337517
11.780000	1551.544609
11.790000	1734.700700
11.800000	1924.433028
11.810000	2103.242423
11.820000	2220.846801
11.830000	2270.854208
11.840000	2163.648950
11.850000	2039.381448
11.860000	1846.877412
11.870000	1815.966354
11.880000	1885.259277
11.890000	2031.276014
11.900000	2086.533626
11.910000	2098.464640
11.920000	2099.389160
11.930000	2065.121423
11.940000	2052.758613
11.950000	1965.981472
11.960000	1909.304931
11.970000	1908.584681
11.980000	1961.065800
11.990000	1992.618905
12.000000	1983.938205
12.010000	1972.771350
12.020000	1942.957949
12.030000	1870.197375
12.040000	1750.329471
12.050000	1631.731338
12.060000	1498.488553
12.070000	1404.087212
12.080000	1340.109388
12.090000	1321.138510
12.100000	1320.583176
12.110000	1342.239764
12.120000	1379.328189
12.130000	1392.886672
12.140000	1392.507696
12.150000	1361.095167
12.160000	1444.436541
12.170000	1570.006418
12.180000	1826.778384
12.190000	2129.074454
12.200000	2439.890767
12.210000	2733.477281
12.220000	2814.508293
12.230000	2957.809309
12.240000	3014.600569
12.250000	3118.221378
12.260000	3039.001273
12.270000	2909.266757
12.280000	2760.765028
12.290000	2623.613852
12.300000	2630.115841
12.310000	2620.465239
12.320000	2742.284458
12.330000	2714.445950
12.340000	2717.695370
12.350000	2659.316092
12.360000	2599.834462
12.370000	2573.086971
12.380000	2553.451028
12.390000	2615.774640
12.400000	2703.681390
12.410000	2789.849681
12.420000	2827.833470
12.430000	2810.339828
12.440000	2743.663747
12.450000	2642.828112
12.460000	2486.033661
12.470000	2277.361506
12.480000	2093.577140
12.490000	1923.961775
12.500000	1804.221830
12.510000	1694.996094
12.520000	1591.601846
12.530000	1526.438849
12.540000	1456.748517
12.550000	1396.343216
12.560000	1272.964833
12.570000	1150.594284
12.580000	1014.938467
12.590000	1000.225364
12.600000	1057.046259
12.610000	1219.724721
12.620000	1461.958935
12.630000	1723.769400
12.640000	2026.064679
12.650000	2167.841889
12.660000	2364.283877
12.670000	2508.666990
12.680000	2623.160210
12.690000	2608.795522
12.700000	2504.384112
12.710000	2414.406559
12.720000	2357.340247
12.730000	2427.193118
12.740000	2460.222798
12.750000	2523.246869
12.760000	2519.289001
12.770000	2535.105009
12.780000	2443.065681
12.790000	2265.674335
12.800000	2080.291384
12.810000	1920.421063
12.820000	1833.853671
12.830000	1839.719229
12.840000	1864.791913
12.850000	1814.588078
12.860000	1679.926287
12.870000	1536.317479
12.880000	1443.979347
12.890000	1395.487862
12.900000	1397.697787
12.910000	1392.104279
12.920000	1421.653131
12.930000	1454.138587
12.940000	1542.465901
12.950000	1606.096063
12.960000	1647.796505
12.970000	1645.607316
12.980000	1595.129692
12.990000	1522.823658
13.000000	1437.032758
13.010000	1377.077343
13.020000	1432.358256
13.030000	1564.263591
13.040000	1836.247511
13.050000	2096.808796
13.060000	2351.516768
13.070000	2553.156858
13.080000	2677.462775
13.090000	2880.279205
13.100000	2956.028230
13.110000	3005.855288
13.120000	2943.689939
13.130000	2907.322484
13.140000	2878.531869
13.150000	2849.760122
13.160000	2891.194237
13.170000	2956.483654
13.180000	3099.737547
13.190000	3213.701374
13.200000	3297.843712
13.210000	3316.090198
13.220000	3341.851618
13.230000	3442.395466
13.240000	3533.709606
13.250000	3616.865584
13.260000	3602.248567
13.270000	3548.338037
13.280000	3522.071855
13.290000	3550.962124
13.300000	3589.954554
13.310000	3573.453959
13.320000	3505.284173
13.330000	3440.675309
13.340000	3355.315693
13.350000	3216.793469
13.360000	3078.166357
13.370000	2978.790373
13.380000	2989.351408
13.390000	3027.279964
13.400000	3104.040267
13.410000	3205.610329
13.420000	3381.479558
13.430000	3595.279406
13.440000	3850.935894
13.450000	4040.546198
13.460000	4303.307573
13.470000	4633.984739
13.480000	4972.428622
13.490000	5292.080793
13.500000	5421.715950
13.510000	5670.725512
13.520000	5830.474061
13.530000	5975.038572
13.540000	5929.772446
13.550000	5725.470833
13.560000	5506.602811
13.570000	5249.325366
13.580000	5191.701829
13.590000	5190.346246
13.600000	5317.271166
13.610000	5399.571137
13.620000	5486.324848
13.630000	5585.890088
13.640000	5660.121262
13.650000	5785.391882
13.660000	5870.991558
13.670000	5985.862749
13.680000	6124.519084
13.690000	6277.849689
13.700000	6409.161220
13.710000	6473.669075
13.720000	6512.224156
13.730000	6512.191373
13.740000	6504.253398
13.750000	6488.808633
13.760000	6421.669087
13.770000	6301.382903
13.780000	6175.389378
13.790000	6111.848382
13.800000	6056.271043
13.810000	5991.913004
13.820000	5938.411972
13.830000	5895.078291
13.840000	5837.641754
13.850000	5769.470191
13.860000	5734.129694
13.870000	5828.486581
13.880000	6016.059791
13.890000	6323.147409
13.900000	6665.488476
13.910000	7002.727940
13.920000	7357.218662
13.930000	7604.364249
13.940000	7916.888252
13.950000	8110.472736
13.960000	8262.726710
13.970000	8269.193898
13.980000	8222.214964
13.990000	8152.518278
14.000000	8000.891742
14.010000	7911.834111
14.020000	7827.106643
14.030000	7893.136659
14.040000	7881.379149
14.050000	7865.686787
14.060000	7832.157129
14.070000	7841.183572
14.080000	7923.926798
14.090000	8004.119943
14.100000	8158.514002
14.110000	8359.830415
14.120000	8590.516930
14.130000	8805.516819
14.140000	8913.105569
14.150000	8944.918287
14.160000	8939.418182
14.170000	8881.205954
14.180000	8766.124669
14.190000	8684.779027
14.200000	8623.899746
14.210000	8588.752255
14.220000	8518.838755
14.230000	8496.123244
14.240000	8534.258488
14.250000	8507.775617
14.260000	8505.592303
14.270000	8470.680768
14.280000	8535.094060
14.290000	8603.270977
14.300000	8708.254137
14.310000	8837.368883
14.320000	9063.945136
14.330000	9351.120229
14.340000	9717.739898
14.350000	10040.760562
14.360000	10293.071396
14.370000	10534.574287
14.380000	10697.648138
14.390000	10802.886827
14.400000	10650.537172
14.410000	9753.321381
14.420000	7982.104601
14.430000	3862.928497
14.440000	-739.440873
14.450000	-4590.677813
14.460000	-10334.337208
14.470000	-19195.390592
14.480000	-19805.307212
14.490000	-16193.504674
14.500000	-17636.434538
14.510000	-21034.872669
14.520000	-20512.432636
14.530000	-20213.044986
14.540000	-20456.425610
14.550000	-20723.818319
14.560000	-20609.235777
14.570000	-20615.266232
14.580000	-20814.716138
14.590000	-20680.254496
14.600000	-20689.817472
14.610000	-20879.894687
14.620000	-20759.672586
14.630000	-20374.881462
14.640000	-20086.938425
14.650000	-20227.333654
14.660000	-20329.563945
14.670000	-20411.337555
14.680000	-20637.819818
14.690000	-21000.426363
14.700000	-21271.372407
14.710000	-21252.832737
14.720000	-21108.489567
14.730000	-20940.310858
14.740000	-20454.764493
14.750000	-19552.569197
14.760000	-18525.696578
14.770000	-17428.760568
14.780000	-16339.613053
14.790000	-15435.146692
14.800000	-14930.893774
14.810000	-14616.623498
14.820000	-13988.630372
14.830000	-13440.160872
14.840000	-13182.465799
14.850000	-12783.531749
14.860000	-11974.684959
14.870000	-11067.432664
14.880000	-10300.642474
14.890000	-9551.612965
14.900000	-8828.900825
14.910000	-8243.348994
14.920000	-7807.832629
14.930000	-7467.843493
14.940000	-7228.873736
14.950000	-7041.131572
14.960000	-6774.975152
14.970000	-6535.344394
14.980000	-6383.237102
14.990000	-6146.866483
15.000000	-5946.918339
15.010000	-5728.857292
15.020000	-5431.532000
15.030000	-5170.618279
15.040000	-4987.560166
15.050000	-4948.064805
15.060000	-4932.030704
15.070000	-4940.463785
15.080000	-4958.745233
15.090000	-4973.152517
15.100000	-5028.240805
15.110000	-5009.024358
15.120000	-4908.989228
15.130000	-4602.190026
15.140000	-4171.934464
15.150000	-3619.084868
15.160000	-2989.626088
15.170000	-2415.170830
15.180000	-1866.498699
15.190000	-1379.391491
15.200000	-995.009005
15.210000	-793.341806
15.220000	-814.031561
15.230000	-933.132616
15.240000	-1047.066580
15.250000	-1130.093791
15.260000	-1130.653968
15.270000	-1165.139586
15.280000	-1248.586329
15.290000	-1316.256325
15.300000	-1356.955819
15.310000	-1324.901471
15.320000	-1333.719884
15.330000	-1377.508392
15.340000	-1447.766872
15.350000	-1493.956549
15.360000	-1459.420389
15.370000	-1401.674919
15.380000	-1336.582742
15.390000	-1299.403080
15.400000	-1237.125774
15.410000	-1137.867239
15.420000	-1013.690866
15.430000	-866.259027
15.440000	-751.026469
15.450000	-693.858873
15.460000	-670.179410
15.470000	-666.444792
15.480000	-758.867855
15.490000	-804.718224
15.500000	-948.968560
15.510000	-1038.795666
15.520000	-1095.836890
15.530000	-1092.359154
15.540000	-1036.759282
15.550000	-1140.100617
15.560000	-1130.643459
15.570000	-1066.368686
15.580000	-968.714761
15.590000	-880.315611
15.600000	-849.756191
15.610000	-792.517207
15.620000	-714.332224
15.630000	-662.452677
15.640000	-481.972646
15.650000	-411.755744
15.660000	-346.954898
15.670000	-341.781309
15.680000	-346.938264
15.690000	-343.843076
15.700000	-428.187104
15.710000	-515.695264
15.720000	-632.356602
15.730000	-694.864833
15.740000	-726.770249
15.750000	-712.209899
15.760000	-722.707409
15.770000	-759.311310
15.780000	-834.291707
15.790000	-990.111701
15.800000	-1170.554091
15.810000	-1327.215733
15.820000	-1423.798286
15.830000	-1452.680137
15.840000	-1450.779460
15.850000	-1379.551620
15.860000	-1265.553470
15.870000	-1140.383993
15.880000	-1023.574380
15.890000	-896.390976
15.900000	-811.403826
15.910000	-671.933711
15.920000	-512.873296
15.930000	-299.563707
15.940000	-143.355048
15.950000	-6.729047
15.960000	184.319564
15.970000	340.045717
15.980000	425.869251
15.990000	407.545333
16.000000	311.643605
16.010000	195.855095
16.020000	113.798474
16.030000	90.144078
16.040000	160.375467
16.050000	158.940353
16.060000	225.517278
16.070000	231.727226
16.080000	241.247115
16.090000	282.478097
16.100000	334.235334
16.110000	456.847779
16.120000	505.722667
16.130000	550.534926
16.140000	574.702396
16.150000	533.875461
16.160000	458.283623
16.170000	354.882402
16.180000	255.664280
16.190000	165.211721
16.200000	63.709250
16.210000	13.832593
16.220000	-48.862948
16.230000	-93.218315
16.240000	-82.687721
16.250000	-25.993935
16.260000	54.516702
16.270000	113.233489
16.280000	140.888210
16.290000	249.194125
16.300000	372.841430
16.310000	517.751982
16.320000	630.700767
16.330000	718.543744
16.340000	814.033769
16.350000	940.378808
16.360000	1141.493472
16.370000	1287.139012
16.380000	1340.613844
16.390000	1305.413674
16.400000	1263.687914
16.410000	1216.871259
16.420000	1166.166225
16.430000	1056.913888
16.440000	914.937643
16.450000	623.637641
16.460000	311.454624
16.470000	16.185207
16.480000	-240.332558
16.490000	-431.180044
16.500000	-652.718214
16.510000	-801.923987
16.520000	-930.789047
16.530000	-999.006941
16.540000	-1026.952153
16.550000	-1019.973992
16.560000	-996.075125
16.570000	-972.196313
16.580000	-927.686104
16.590000	-882.120109
16.600000	-844.191238
16.610000	-823.302952
16.620000	-816.251889
16.630000	-771.944110
16.640000	-704.080053
16.650000	-608.792932
16.660000	-533.638393
16.670000	-430.968902
16.680000	-274.844670
16.690000	-64.468588
16.700000	207.379021
16.710000	385.665403
16.720000	536.957659
16.730000	597.855724
16.740000	720.876275
16.750000	861.585704
16.760000	908.692172
16.770000	964.650641
16.780000	969.476772
16.790000	972.430781
16.800000	925.743652
16.810000	931.705466
16.820000	1024.573019
16.830000	1128.092912
16.840000	1164.481401
16.850000	1141.131115
16.860000	1109.929059
16.870000	1054.733120
16.880000	1023.971621
16.890000	967.147877
16.900000	938.386216
16.910000	949.531415
16.920000	1004.530907
16.930000	1053.853398
16.940000	1109.931317
16.950000	1154.510156
16.960000	1210.530789
16.970000	1244.096906
16.980000	1244.613868
16.990000	1225.502726
17.000000	1142.625460
17.010000	1077.005735
17.020000	1029.503779
17.030000	1035.691120
17.040000	1027.183746
17.050000	1027.048310
17.060000	985.751727
17.070000	1047.692340
17.080000	1128.779778
17.090000	1270.101244
17.100000	1411.952154
17.110000	1528.023112
17.120000	1712.877835
17.130000	1795.971561
17.140000	1987.604315
17.150000	2147.378286
17.160000	2277.811523
17.170000	2298.645883
17.180000	2282.192674
17.190000	2277.270521
17.200000	2252.441611
17.210000	2258.876901
17.220000	2288.616279
17.230000	2360.979621
17.240000	2319.395857
17.250000	2285.267068
17.260000	2225.839852
17.270000	2168.473988
17.280000	2092.573035
17.290000	2044.619237
17.300000	2067.049041
17.310000	2127.646545
17.320000	2202.635139
17.330000	2288.148587
17.340000	2345.879813
17.350000	2354.784322
17.360000	2340.672555
17.370000	2317.138961
17.380000	2295.544684
17.390000	2241.118802
17.400000	2194.375198
17.410000	2197.187009
17.420000	2259.201510
17.430000	2361.594319
17.440000	2464.720922
17.450000	2622.675675
17.460000	2768.657822
17.470000	2868.930314
17.480000	3080.534101
17.490000	3282.837265
17.500000	3552.700654
17.510000	3705.105655
17.520000	3727.086652
17.530000	3521.221792
17.540000	2921.697320
17.550000	2399.498905
17.560000	2045.007344
17.570000	1842.896474
17.580000	1890.035700
17.590000	1885.277081
17.600000	1976.706831
17.610000	2163.991649
17.620000	2360.882938
17.630000	2592.418816
17.640000	2564.589010
17.650000	2487.970760
17.660000	2463.398505
17.670000	2365.639236
17.680000	2322.305823
17.690000	2377.815140
17.700000	2498.065974
17.710000	2719.586063
17.720000	2958.896743
17.730000	3255.761547
17.740000	3567.566483
17.750000	3769.107895
17.760000	3991.336593
17.770000	4291.648139
17.780000	4547.340381
17.790000	4759.589337
17.800000	4904.000341
17.810000	5121.042078
17.820000	5286.323878
17.830000	5402.901495
17.840000	5565.955982
17.850000	5710.375063
17.860000	5944.785184
17.870000	6181.695360
17.880000	6375.112511
17.890000	6515.164409
17.900000	6595.163486
17.910000	6750.069389
17.920000	6894.655199
17.930000	6910.928442
17.940000	6899.456463
17.950000	6847.183165
17.960000	6958.895570
17.970000	7026.341365
17.980000	7179.299382
17.990000	7327.930958
18.000000	7193.216452
18.010000	6327.087327
18.020000	4613.689979
18.030000	1832.273360
18.040000	-1272.708528
18.050000	-5532.128756
18.060000	-12394.323264
18.070000	-14156.301920
18.080000	-13613.804543
18.090000	-13251.013196
18.100000	-14001.780865
18.110000	-14899.696997
18.120000	-15259.023725
18.130000	-15508.097736
18.140000	-15889.748845
18.150000	-15926.513196
18.160000	-15757.495007
18.170000	-15871.217049
18.180000	-16019.213330
18.190000	-15860.330252
18.200000	-15644.553320
18.210000	-15704.001135
18.220000	-15831.411224
18.230000	-15786.915670
18.240000	-15532.824705
18.250000	-15232.382674
18.260000	-14866.070347
18.270000	-14698.965595
18.280000	-14805.459857
18.290000	-14815.328208
18.300000	-14672.044998
18.310000	-14682.021429
18.320000	-14816.375991
18.330000	-14842.153797
18.340000	-14480.580254
18.350000	-13999.452525
18.360000	-13465.229302
18.370000	-12617.851417
18.380000	-11480.652787
18.390000	-10427.541623
18.400000	-9675.973948
18.410000	-8956.219994
18.420000	-8045.749813
18.430000	-7425.153353
18.440000	-7158.370493
18.450000	-6795.997927
18.460000	-6446.844089
18.470000	-6047.354054
18.480000	-5713.460798
18.490000	-5204.379032
18.500000	-4538.770466
18.510000	-3944.624371
18.520000	-3364.272678
18.530000	-2707.756481
18.540000	-2075.939434
18.550000	-1428.138547
18.560000	-784.075761
18.570000	-164.826252
18.580000	465.978847
18.590000	980.737265
18.600000	1409.503141
18.610000	1775.988454
18.620000	2067.300402
18.630000	2271.617829
18.640000	2543.598548
18.650000	2763.873257
18.660000	3008.146201
18.670000	3226.164808
18.680000	3404.177851
18.690000	3528.842876
18.700000	3647.095415
18.710000	3794.545135
18.720000	3837.605153
18.730000	3847.535136
18.740000	3955.004723
18.750000	4154.880317
18.760000	4452.496042
18.770000	4809.837573
18.780000	5237.854419
18.790000	5679.675877
18.800000	6026.137873
18.810000	6338.719586
18.820000	6442.510101
18.830000	6402.494837
18.840000	6191.035149
18.850000	5955.158241
18.860000	5717.294230
18.870000	5427.032284
18.880000	5118.530707
18.890000	4809.941870
18.900000	4528.873675
18.910000	4292.236912
18.920000	4090.894223
18.930000	3873.499408
18.940000	3628.441522
18.950000	3379.945483
18.960000	3197.198315
18.970000	2998.062765
18.980000	2827.391532
18.990000	2715.227792
19.000000	2622.149810
19.010000	2717.054917
19.020000	2795.306148
19.030000	2974.190945
19.040000	3200.753645
19.050000	3409.050726
19.060000	3587.777964
19.070000	3562.890920
19.080000	3588.740248
19.090000	3606.299009
19.100000	3566.826636
19.110000	3459.240268
19.120000	3258.638676
19.130000	3000.110406
19.140000	2749.633491
19.150000	2517.258672
19.160000	2450.437875
19.170000	2353.563986
19.180000	2300.080928
19.190000	2290.101325
19.200000	2332.849494
19.210000	2416.682207
19.220000	2448.829789
19.230000	2457.363211
19.240000	2394.035688
19.250000	2285.351720
19.260000	2175.392356
19.270000	2103.429798
19.280000	1979.162850
19.290000	1793.166639
19.300000	1590.519916
19.310000	1426.033979
19.320000	1316.209077
19.330000	1165.364066
19.340000	963.571494
19.350000	801.742366
19.360000	711.876876
19.370000	690.795655
19.380000	629.998106
19.390000	524.572077
19.400000	402.648875
19.410000	255.686718
19.420000	165.319752
19.430000	153.744029
19.440000	94.020426
19.450000	17.341886
19.460000	-96.981693
19.470000	-109.179682
19.480000	-44.329906
19.490000	-13.163011
19.500000	137.821252
19.510000	290.548218
19.520000	422.341705
19.530000	504.349911
19.540000	493.263355
19.550000	449.544338
19.560000	381.817155
19.570000	325.253013
19.580000	296.428019
19.590000	206.446940
19.600000	103.523869
19.610000	32.072297
19.620000	-16.751225
19.630000	-39.158860
19.640000	-64.675560
19.650000	-90.859835
19.660000	-104.795279
19.670000	-132.224349
19.680000	-137.971578
19.690000	-74.110941
19.700000	-15.040819
19.710000	153.965075
19.720000	336.419790
19.730000	520.049150
19.740000	632.826509
19.750000	723.575502
19.760000	928.583935
19.770000	995.812552
19.780000	1004.695828
19.790000	965.637499
19.800000	965.461885
19.810000	983.946135
19.820000	957.219187
19.830000	989.828560
19.840000	1030.994500
19.850000	1025.142521
19.860000	985.737543
19.870000	928.908636
19.880000	860.229821
19.890000	815.536142
19.900000	768.329218
19.910000	790.211450
19.920000	845.244976
19.930000	942.789596
19.940000	1034.112960
19.950000	1097.219643
19.960000	1121.122993
19.970000	1135.205719
19.980000	1150.862105
19.990000	1139.527189
20.000000	1134.883982
20.010000	1120.489425
20.020000	1104.084027
20.030000	1062.144170
20.040000	1178.966536
20.050000	1291.957775
20.060000	1441.183893
20.070000	1567.944943
20.080000	1675.683354
20.090000	1742.975159
20.100000	1690.134049
20.110000	1716.549699
20.120000	1769.336224
20.130000	1761.474742
20.140000	1713.277312
20.150000	1631.473122
20.160000	1589.177891
20.170000	1595.405765
20.180000	1591.001384
20.190000	1650.147927
20.200000	1578.196275
20.210000	1548.343299
20.220000	1490.498972
20.230000	1472.359565
20.240000	1470.660722
20.250000	1425.383522
20.260000	1411.301076
20.270000	1401.904090
20.280000	1437.900566
20.290000	1442.208709
20.300000	1419.498541
20.310000	1386.653859
20.320000	1386.942325
20.330000	1390.671645
20.340000	1362.810814
20.350000	1304.227064
20.360000	1223.138186
20.370000	1123.542570
20.380000	1085.445635
20.390000	1078.659709
20.400000	1063.497571
20.410000	1215.471440
20.420000	1345.985937
20.430000	1546.154164
20.440000	1650.204433
20.450000	1664.411365
20.460000	1513.968419
20.470000	1208.000179
20.480000	966.746234
20.490000	758.998577
20.500000	609.109730
20.510000	453.521475
20.520000	316.814125
20.530000	229.826577
20.540000	273.754704
20.550000	359.762072
20.560000	484.359953
20.570000	529.145054
20.580000	671.874588
20.590000	896.090084
20.600000	1162.755533
20.610000	1449.174485
20.620000	1691.617774
20.630000	1959.718666
20.640000	2191.210716
20.650000	2336.389798
20.660000	2478.260062
20.670000	2554.419588
20.680000	2464.963866
20.690000	2403.679570
20.700000	2353.845779
20.710000	1977.479522
20.720000	787.872135
20.730000	-1758.270323
20.740000	-5649.113945
20.750000	-9611.597476
20.760000	-15402.284376
20.770000	-16139.411814
20.780000	-14699.956184
20.790000	-14762.980161
20.800000	-15299.533421
20.810000	-15405.160831
20.820000	-15112.224141
20.830000	-15210.672221
20.840000	-15586.014011
20.850000	-15671.858917
20.860000	-15183.159553
20.870000	-14697.664649
20.880000	-14600.357883
20.890000	-14480.533363
20.900000	-13724.228514
20.910000	-12678.858707
20.920000	-12409.546592
20.930000	-12375.588040
20.940000	-11965.230190
20.950000	-11629.814144
20.960000	-11851.908705
20.970000	-12094.815404
20.980000	-12233.624976
20.990000	-12527.109241
21.000000	-12825.456424
21.010000	-12830.899292
21.020000	-12647.291998
21.030000	-12504.936062
21.040000	-12247.964653
21.050000	-11543.382279
21.060000	-10544.533834
21.070000	-9455.526744
21.080000	-8496.704430
21.090000	-7866.164865
21.100000	-7345.951600
21.110000	-6900.855367
21.120000	-6570.285268
21.130000	-6319.889222
21.140000	-6149.255781
21.150000	-5836.857027
21.160000	-5378.027454
21.170000	-4917.103838
21.180000	-4342.296273
21.190000	-3668.229299
21.200000	-3017.056000
21.210000	-2381.191432
21.220000	-1835.231865
21.230000	-1305.935331
21.240000	-829.894592
21.250000	-414.113857
21.260000	-125.568620
21.270000	72.816128
21.280000	339.917268
21.290000	577.200477
21.300000	948.955702
21.310000	1246.727714
21.320000	1550.956916
21.330000	1693.076310
21.340000	1696.660436
21.350000	1727.994069
21.360000	1686.477412
21.370000	1520.896546
21.380000	1236.969090
21.390000	916.863249
21.400000	603.543245
21.410000	422.248646
21.420000	342.886044
21.430000	393.992908
21.440000	550.281390
21.450000	888.553834
21.460000	1386.944546
21.470000	2045.716889
21.480000	2688.666908
21.490000	3481.030814
21.500000	4223.603897
21.510000	4730.599681
21.520000	4989.570869
21.530000	5121.090240
21.540000	5217.686246
21.550000	5087.360477
21.560000	4736.576892
21.570000	4419.209417
21.580000	4266.699402
21.590000	4230.801901
21.600000	4542.160538
21.610000	5103.401642
21.620000	5753.691074
21.630000	6070.194299
21.640000	6095.414334
21.650000	5939.756848
21.660000	5380.808926
21.670000	4708.647780
21.680000	4080.762122
21.690000	4708.023286
21.700000	5095.209456
21.710000	4928.676962
21.720000	-1182.296540
21.730000	-247.713809
21.740000	153.815391
21.750000	186.025274
21.760000	-19.701379
21.770000	486.953045
21.780000	1039.950293
21.790000	1743.272083
21.800000	1973.214798
21.810000	1479.897781
21.820000	302.555082
21.830000	-1158.534746
21.840000	-2857.817235
21.850000	-5083.944974
21.860000	-7307.065855
21.870000	-8439.965298
21.880000	-9275.009349
21.890000	-9377.181662
21.900000	-8889.589059
21.910000	-6196.344939
21.920000	-4761.200411
21.930000	-3494.822835
21.940000	-2711.778322
21.950000	-2152.177193
21.960000	-2433.791499
21.970000	-3109.629616
21.980000	-3687.367149
21.990000	-4092.581265
22.000000	-4229.566869
22.010000	-4451.111664
22.020000	-4665.222946
22.030000	-5015.297579
22.040000	-5467.732874
22.050000	-6008.541662
22.060000	-6628.257109
22.070000	-7147.986527
22.080000	-7521.475963
22.090000	-7599.142060
22.100000	-7619.419115
22.110000	-7447.929611
22.120000	-7153.908162
22.130000	-6795.336885
22.140000	-6431.047426
22.150000	-6111.031643
22.160000	-5813.297917
22.170000	-5483.944823
22.180000	-5095.591070
22.190000	-4895.913684
22.200000	-4789.906921
22.210000	-4788.467638
22.220000	-4460.967939
22.230000	-4167.481424
22.240000	-3439.036933
22.250000	-2251.474053
22.260000	-653.935941
22.270000	650.198111
22.280000	1717.511877
22.290000	2579.031381
22.300000	3003.361825
22.310000	3384.319017
22.320000	3842.869377
22.330000	5034.819114
22.340000	5461.205298
22.350000	5351.482808
22.360000	5706.078187
22.370000	5695.443485
22.380000	4337.445136
22.390000	3442.630003
22.400000	3937.590804
22.410000	4572.679574
22.420000	4296.713721
22.430000	4149.737938
22.440000	4596.181861
22.450000	4825.406554
22.460000	4204.252564
22.470000	3571.569337
22.480000	3600.990059
22.490000	3793.300741
22.500000	3863.441683
22.510000	3944.977180
22.520000	4573.461949
22.530000	5294.401519
22.540000	5059.654770
22.550000	4691.769442
22.560000	4426.042775
22.570000	4520.343288
22.580000	4790.696944
22.590000	5056.742534
22.600000	5526.234976
22.610000	5630.161903
22.620000	5626.867982
22.630000	5818.192277
22.640000	5781.337865
22.650000	5512.870504
22.660000	5271.693182
22.670000	5176.664488
22.680000	5141.654674
22.690000	4996.398672
22.700000	4673.070870
22.710000	4485.021827
22.720000	4381.999109
22.730000	4405.075154
22.740000	4250.160617
22.750000	4029.789295
22.760000	4014.608142
22.770000	4046.847030
22.780000	3985.958410
22.790000	3751.928274
22.800000	3523.545198
22.810000	3292.690288
22.820000	3017.568687
22.830000	2736.202434
22.840000	2493.811215
22.850000	2301.488460
22.860000	2300.279935
22.870000	2549.086446
22.880000	2852.255376
22.890000	3006.537717
22.900000	2889.996557
22.910000	2750.214557
22.920000	2660.805469
22.930000	2587.141195
22.940000	2553.324306
22.950000	2398.443137
22.960000	2286.620828
22.970000	2074.453527
22.980000	1888.212590
22.990000	1705.277647
23.000000	1440.189200
23.010000	1361.299066
23.020000	1160.141813
23.030000	955.054409
23.040000	772.739153
23.050000	595.585840
23.060000	660.935914
23.070000	640.464179
23.080000	715.768476
23.090000	630.375953
23.100000	293.627786
23.110000	-85.650364
23.120000	-395.872603
23.130000	-434.518188
23.140000	-275.221385
23.150000	-10.192252
23.160000	322.157066
23.170000	524.277434
23.180000	741.392495
23.190000	950.869642
23.200000	1095.116812
23.210000	1245.736283
23.220000	1350.755991
23.230000	1512.281719
23.240000	1627.422404
23.250000	1730.462176
23.260000	1960.970898
23.270000	2212.227053
23.280000	2393.826376
23.290000	2450.351470
23.300000	2367.392531
23.310000	2331.627486
23.320000	2239.428539
23.330000	2179.032227
23.340000	2070.940146
23.350000	1969.074240
23.360000	1844.496173
23.370000	1676.411791
23.380000	1554.296054
23.390000	1499.838631
23.400000	1486.239354
23.410000	1455.791642
23.420000	1457.755281
23.430000	1526.985028
23.440000	1671.144227
23.450000	1760.082018
23.460000	1795.511879
23.470000	1742.027986
23.480000	1678.478654
23.490000	1575.295874
23.500000	1676.818463
23.510000	1818.061272
23.520000	1908.652631
23.530000	2019.894483
23.540000	2076.709512
23.550000	2247.020845
23.560000	2204.034312
23.570000	2096.079822
23.580000	2021.182871
23.590000	1897.273669
23.600000	1801.064632
23.610000	1624.925869
23.620000	1574.104619
23.630000	1636.614516
23.640000	1654.711568
23.650000	1741.682389
23.660000	1695.421266
23.670000	1694.097884
23.680000	1554.107987
23.690000	1395.318362
23.700000	1365.510323
23.710000	1423.994267
23.720000	1573.004416
23.730000	1627.797931
23.740000	1617.394364
23.750000	1565.897593
23.760000	1474.698845
23.770000	1362.689641
23.780000	1277.727934
23.790000	1199.941433
23.800000	1099.710065
23.810000	993.299772
23.820000	936.114238
23.830000	808.826771
23.840000	865.526612
23.850000	937.509131
23.860000	1043.437541
23.870000	1169.085760
23.880000	1233.483748
23.890000	1358.204604
23.900000	1241.353428
23.910000	1226.416569
23.920000	1343.684056
23.930000	1509.637738
23.940000	1517.999916
23.950000	1382.452717
23.960000	1310.505075
23.970000	1194.726886
23.980000	1183.036340
23.990000	1118.489072
24.000000	1100.932143
24.010000	1017.660599
24.020000	908.574102
24.030000	875.997807
24.040000	917.255760
24.050000	992.561713
24.060000	1036.529590
24.070000	1052.310195
24.080000	1080.569974
24.090000	1128.296865
24.100000	1191.578273
24.110000	1276.308818
24.120000	1410.980805
24.130000	1539.755128
24.140000	1575.296612
24.150000	1588.970898
24.160000	1670.663984
24.170000	2048.233423
24.180000	2572.330234
24.190000	3173.049472
24.200000	3625.239151
24.210000	3822.527884
24.220000	3865.720255
24.230000	3627.717187
24.240000	3448.153785
24.250000	3337.673700
24.260000	3364.082071
24.270000	3365.671189
24.280000	3176.002285
24.290000	2937.522196
24.300000	2651.540192
24.310000	2458.761579
24.320000	2295.522458
24.330000	2342.678371
24.340000	2329.603975
24.350000	2287.095764
24.360000	2125.026185
24.370000	1870.173818
24.380000	1630.343915
24.390000	967.323188
