Time(s)	GREEN_denoised_median
0.000000	-1555.848019
0.010000	-1566.197138
0.020000	-1570.970533
0.030000	-1593.658709
0.040000	-1603.719550
0.050000	-1603.719550
0.060000	-1603.719550
0.070000	-1575.469797
0.080000	-1528.715777
0.090000	-1476.468552
0.100000	-1414.716044
0.110000	-1341.522768
0.120000	-1259.778275
0.130000	-1167.611568
0.140000	-1070.908406
0.150000	-973.740912
0.160000	-869.052419
0.170000	-766.960790
0.180000	-660.190935
0.190000	-552.251465
0.200000	-446.368753
0.210000	-339.564070
0.220000	-230.589188
0.230000	-116.909896
0.240000	-10.886173
0.250000	93.760944
0.260000	93.760944
0.270000	93.760944
0.280000	-73.739040
0.290000	-324.900400
0.300000	-578.079042
0.310000	-793.277680
0.320000	-955.514472
0.330000	-1069.735294
0.340000	-1149.999407
0.350000	-1208.210330
0.360000	-1245.064242
0.370000	-1245.064242
0.380000	-1245.064242
0.390000	-1219.155768
0.400000	-1219.155768
0.410000	-1219.155768
0.420000	-1228.147043
0.430000	-1255.175993
0.440000	-1269.273657
0.450000	-1269.273657
0.460000	-1269.273657
0.470000	-1238.251224
0.480000	-1193.843259
0.490000	-1133.806688
0.500000	-1059.428038
0.510000	-976.378426
0.520000	-886.003911
0.530000	-789.952701
0.540000	-682.560134
0.550000	-569.557433
0.560000	-456.112685
0.570000	-339.136073
0.580000	-223.682906
0.590000	-109.694673
0.600000	6.764812
0.610000	119.728111
0.620000	233.249939
0.630000	342.136672
0.640000	453.782113
0.650000	566.534159
0.660000	674.317201
0.670000	781.977997
0.680000	781.977997
0.690000	781.977997
0.700000	668.295618
0.710000	441.007993
0.720000	194.901828
0.730000	-10.343718
0.740000	-162.597290
0.750000	-269.723826
0.760000	-344.080962
0.770000	-403.088793
0.780000	-422.845652
0.790000	-422.845652
0.800000	-422.845652
0.810000	-404.091407
0.820000	-404.091407
0.830000	-404.091407
0.840000	-438.414244
0.850000	-479.323638
0.860000	-515.633582
0.870000	-533.506806
0.880000	-533.506806
0.890000	-533.506806
0.900000	-515.994386
0.910000	-487.792221
0.920000	-459.098739
0.930000	-413.806300
0.940000	-357.211016
0.950000	-293.765888
0.960000	-225.262496
0.970000	-147.654642
0.980000	-60.267118
0.990000	31.497346
1.000000	101.730695
1.010000	136.742965
1.020000	179.946738
1.030000	233.939193
1.040000	295.210034
1.050000	366.217159
1.060000	443.523801
1.070000	527.573756
1.080000	620.912625
1.090000	718.981433
1.100000	820.382028
1.110000	922.458854
1.120000	1029.946222
1.130000	1131.969189
1.140000	1231.625865
1.150000	1320.526321
1.160000	1407.432239
1.170000	1496.150732
1.180000	1585.306521
1.190000	1671.853945
1.200000	1762.291645
1.210000	1846.597638
1.220000	1846.597638
1.230000	1846.597638
1.240000	1840.694253
1.250000	1640.070378
1.260000	1399.218005
1.270000	1169.985690
1.280000	997.818312
1.290000	867.830586
1.300000	734.430701
1.310000	710.207485
1.320000	710.207485
1.330000	710.207485
1.340000	710.826427
1.350000	733.714096
1.360000	769.282445
1.370000	812.533107
1.380000	867.869597
1.390000	927.424817
1.400000	996.600679
1.410000	1072.402029
1.420000	1153.445830
1.430000	1241.498601
1.440000	1327.372664
1.450000	1419.757096
1.460000	1515.380518
1.470000	1608.122674
1.480000	1702.533615
1.490000	1791.573376
1.500000	1879.836633
1.510000	1972.143663
1.520000	2066.240174
1.530000	2155.823759
1.540000	2249.807397
1.550000	2352.614368
1.560000	2452.453868
1.570000	2452.453868
1.580000	2452.453868
1.590000	2350.642364
1.600000	2128.007659
1.610000	1888.028674
1.620000	1678.984973
1.630000	1520.466118
1.640000	1406.021524
1.650000	1344.075989
1.660000	1296.061379
1.670000	1294.009402
1.680000	1294.009402
1.690000	1294.009402
1.700000	1323.340562
1.710000	1323.340562
1.720000	1323.340562
1.730000	1304.844866
1.740000	1255.810517
1.750000	1215.641208
1.760000	1175.110581
1.770000	1172.167053
1.780000	1172.167053
1.790000	1172.167053
1.800000	1872.292238
1.810000	1961.507775
1.820000	2039.574975
1.830000	2114.367613
1.840000	2199.017586
1.850000	2265.259824
1.860000	2370.843138
1.870000	2423.888381
1.880000	2423.888381
1.890000	2423.888381
1.900000	1487.558243
1.910000	1470.331723
1.920000	1470.331723
1.930000	1470.331723
1.940000	1479.703898
1.950000	1479.703898
1.960000	1479.703898
1.970000	1401.478181
1.980000	1367.093669
1.990000	1302.401802
2.000000	1282.046231
2.010000	1252.499455
2.020000	1252.499455
2.030000	1252.499455
2.040000	1275.431548
2.050000	1289.981334
2.060000	1336.804656
2.070000	1376.261673
2.080000	1438.527057
2.090000	1496.542751
2.100000	1572.543159
2.110000	1633.831646
2.120000	1716.908369
2.130000	1795.106456
2.140000	1875.526074
2.150000	1955.514565
2.160000	2039.323150
2.170000	2120.052767
2.180000	2210.334885
2.190000	2291.666760
2.200000	2380.604487
2.210000	2467.370259
2.220000	2551.060541
2.230000	2551.060541
2.240000	2551.060541
2.250000	2548.135409
2.260000	2331.469695
2.270000	2035.369872
2.280000	1749.620614
2.290000	1501.596277
2.300000	1308.908200
2.310000	1176.952728
2.320000	1078.269240
2.330000	1004.525509
2.340000	951.806292
2.350000	950.206579
2.360000	943.444763
2.370000	940.287741
2.380000	940.287741
2.390000	900.267816
2.400000	842.365413
2.410000	779.495283
2.420000	719.593768
2.430000	665.874168
2.440000	633.018042
2.450000	631.031694
2.460000	631.031694
2.470000	631.031694
2.480000	657.357647
2.490000	692.862266
2.500000	742.289837
2.510000	804.842123
2.520000	868.355315
2.530000	943.047950
2.540000	1020.534177
2.550000	1108.462279
2.560000	1199.837257
2.570000	1290.047560
2.580000	1387.340021
2.590000	1480.744382
2.600000	1576.053093
2.610000	1676.598652
2.620000	1777.908862
2.630000	1871.606248
2.640000	1967.979861
2.650000	2064.743162
2.660000	2159.213513
2.670000	2159.213513
2.680000	2159.213513
2.690000	2083.496447
2.700000	1843.052414
2.710000	1565.323206
2.720000	1321.779211
2.730000	1131.167735
2.740000	1003.644776
2.750000	914.077483
2.760000	848.703483
2.770000	812.374570
2.780000	812.374570
2.790000	812.374570
2.800000	843.347615
2.810000	854.466992
2.820000	854.466992
2.830000	854.466992
2.840000	808.505778
2.850000	761.256296
2.860000	716.337924
2.870000	682.217938
2.880000	678.457092
2.890000	678.457092
2.900000	678.457092
2.910000	704.577856
2.920000	738.757322
2.930000	774.979452
2.940000	828.272227
2.950000	890.473908
2.960000	957.955806
2.970000	1032.138121
2.980000	1114.795909
2.990000	1201.941710
3.000000	1290.794176
3.010000	1379.903448
3.020000	1459.924884
3.030000	1540.069901
3.040000	1630.210774
3.050000	1714.318188
3.060000	1792.694091
3.070000	1872.738129
3.080000	1946.286399
3.090000	1946.286399
3.100000	1946.286399
3.110000	1838.014411
3.120000	1595.902990
3.130000	1316.986907
3.140000	1074.066004
3.150000	887.965103
3.160000	755.310496
3.170000	667.075194
3.180000	610.692164
3.190000	610.692164
3.200000	610.692164
3.210000	623.818666
3.220000	659.789763
3.230000	659.789763
3.240000	659.789763
3.250000	656.166833
3.260000	613.556153
3.270000	572.047879
3.280000	536.654413
3.290000	515.077177
3.300000	515.077177
3.310000	515.077177
3.320000	527.136655
3.330000	549.685397
3.340000	597.582979
3.350000	651.124421
3.360000	706.208952
3.370000	769.729836
3.380000	847.968841
3.390000	928.418638
3.400000	1011.899719
3.410000	1097.235722
3.420000	1185.971217
3.430000	1268.153750
3.440000	1350.219615
3.450000	1433.188146
3.460000	1517.597289
3.470000	1574.301830
3.480000	1574.301830
3.490000	1574.301830
3.500000	1391.022444
3.510000	1110.564219
3.520000	826.196281
3.530000	580.814054
3.540000	406.465407
3.550000	258.978905
3.560000	168.061074
3.570000	101.095480
3.580000	58.870655
3.590000	32.306381
3.600000	-64.291709
3.610000	-64.291709
3.620000	-64.291709
3.630000	-21.910443
3.640000	38.284524
3.650000	97.219509
3.660000	179.095902
3.670000	251.308992
3.680000	328.150905
3.690000	401.450862
3.700000	494.405405
3.710000	576.557976
3.720000	662.896586
3.730000	747.719380
3.740000	837.531663
3.750000	881.026519
3.760000	881.026519
3.770000	881.026519
3.780000	676.356237
3.790000	383.393891
3.800000	90.656824
3.810000	-163.270890
3.820000	-360.996587
3.830000	-508.897535
3.840000	-617.558917
3.850000	-700.430194
3.860000	-759.990042
3.870000	-764.275558
3.880000	-764.275558
3.890000	-764.596424
3.900000	-764.596424
3.910000	-764.596424
3.920000	-793.502194
3.930000	-842.862122
3.940000	-896.367644
3.950000	-937.031699
3.960000	-956.813953
3.970000	-956.813953
3.980000	-956.813953
3.990000	-929.229730
4.000000	-889.377299
4.010000	-842.211330
4.020000	-775.805031
4.030000	-709.189404
4.040000	-631.061582
4.050000	-549.132517
4.060000	-451.176871
4.070000	-364.097266
4.080000	-364.097266
4.090000	-364.097266
4.100000	-383.539615
4.110000	-618.585194
4.120000	-800.464290
4.130000	-940.195950
4.140000	-1033.265114
4.150000	-1108.818626
4.160000	-1154.873081
4.170000	-1154.873081
4.180000	-1154.873081
4.190000	-1156.737759
4.200000	-1156.737759
4.210000	-1156.737759
4.220000	-1196.752874
4.230000	-1252.316447
4.240000	-1299.756019
4.250000	-1341.893508
4.260000	-1347.375670
4.270000	-1347.375670
4.280000	-1347.375670
4.290000	-1320.010768
4.300000	-1279.068191
4.310000	-1229.469604
4.320000	-1164.658633
4.330000	-1088.888090
4.340000	-1007.181663
4.350000	-919.222881
4.360000	-825.638750
4.370000	-727.490819
4.380000	-622.017774
4.390000	-521.733626
4.400000	-424.289361
4.410000	-320.892591
4.420000	-217.535878
4.430000	-113.969194
4.440000	8.332553
4.450000	170.024347
4.460000	344.134009
4.470000	411.127962
4.480000	411.127962
4.490000	411.127962
4.500000	202.087505
4.510000	-2.522850
4.520000	-146.865933
4.530000	-322.517963
4.540000	-523.491295
4.550000	-711.364354
4.560000	-853.072196
4.570000	-941.222549
4.580000	-954.388681
4.590000	-954.388681
4.600000	-954.388681
4.610000	-954.388681
4.620000	-954.388681
4.630000	-970.047547
4.640000	-1002.457383
4.650000	-1044.558528
4.660000	-1044.558528
4.670000	-1044.558528
4.680000	-1027.254465
4.690000	-968.388475
4.700000	-880.599114
4.710000	-785.787190
4.720000	-704.888693
4.730000	-627.046532
4.740000	-553.158872
4.750000	-474.227368
4.760000	-372.353640
4.770000	-282.502784
4.780000	-245.514278
4.790000	-206.465266
4.800000	-146.725027
4.810000	-71.443841
4.820000	32.162362
4.830000	137.518018
4.840000	242.164185
4.850000	335.505381
4.860000	440.305139
4.870000	549.457870
4.880000	652.483642
4.890000	738.455599
4.900000	738.455599
4.910000	738.455599
4.920000	587.971074
4.930000	372.662184
4.940000	154.339578
4.950000	-13.080758
4.960000	-129.395536
4.970000	-212.830786
4.980000	-271.058508
4.990000	-320.562239
5.000000	-357.623593
5.010000	-357.623593
5.020000	-357.623593
5.030000	-367.137978
5.040000	-367.137978
5.050000	-395.638470
5.060000	-479.022522
5.070000	-571.172456
5.080000	-651.412563
5.090000	-689.641437
5.100000	-704.320477
5.110000	-704.320477
5.120000	-704.320477
5.130000	-680.391012
5.140000	-638.737114
5.150000	-585.706038
5.160000	-528.118306
5.170000	-454.935592
5.180000	-368.500146
5.190000	-261.101747
5.200000	-119.832232
5.210000	33.672385
5.220000	180.879060
5.230000	331.558805
5.240000	482.589180
5.250000	606.412040
5.260000	712.434446
5.270000	820.326769
5.280000	926.248122
5.290000	1036.301473
5.300000	1149.073490
5.310000	1239.242512
5.320000	1248.743077
5.330000	1248.743077
5.340000	1248.743077
5.350000	1077.369122
5.360000	825.698837
5.370000	555.603863
5.380000	333.697086
5.390000	146.648111
5.400000	10.805534
5.410000	-93.377942
5.420000	-177.035014
5.430000	-241.349174
5.440000	-251.629159
5.450000	-251.629159
5.460000	-251.629159
5.470000	-214.234902
5.480000	-187.424385
5.490000	-175.102218
5.500000	-159.134326
5.510000	-145.010050
5.520000	-136.816433
5.530000	-123.853670
5.540000	-113.525046
5.550000	-87.604062
5.560000	-49.270000
5.570000	-11.358907
5.580000	20.025227
5.590000	63.976768
5.600000	113.269091
5.610000	139.274213
5.620000	160.663035
5.630000	215.645111
5.640000	304.973509
5.650000	396.945890
5.660000	486.375447
5.670000	586.315017
5.680000	666.676759
5.690000	766.892557
5.700000	881.872865
5.710000	973.395770
5.720000	1062.247310
5.730000	1145.850676
5.740000	1145.850676
5.750000	1145.850676
5.760000	1145.066837
5.770000	944.669668
5.780000	704.645700
5.790000	470.137395
5.800000	271.195913
5.810000	125.583710
5.820000	28.696570
5.830000	-36.994064
5.840000	-82.258648
5.850000	-82.258648
5.860000	-82.258648
5.870000	-42.039419
5.880000	-41.299910
5.890000	-41.299910
5.900000	-41.299910
5.910000	-70.927406
5.920000	-101.776003
5.930000	-133.390634
5.940000	-148.623189
5.950000	-148.623189
5.960000	-148.623189
5.970000	-122.383717
5.980000	-87.070345
5.990000	-46.857871
6.000000	6.520175
6.010000	69.638910
6.020000	143.124410
6.030000	228.139294
6.040000	313.696945
6.050000	397.665205
6.060000	491.307016
6.070000	580.120632
6.080000	670.975599
6.090000	757.539145
6.100000	855.704100
6.110000	942.850272
6.120000	1027.516092
6.130000	1027.516092
6.140000	1027.516092
6.150000	902.371582
6.160000	667.120953
6.170000	406.694665
6.180000	182.041964
6.190000	-1.139630
6.200000	-139.048382
6.210000	-247.033198
6.220000	-329.114813
6.230000	-400.966495
6.240000	-400.966495
6.250000	-400.966495
6.260000	-400.807109
6.270000	-400.807109
6.280000	-400.807109
6.290000	-448.498207
6.300000	-489.391979
6.310000	-549.020593
6.320000	-575.777332
6.330000	-605.908564
6.340000	-605.908564
6.350000	-605.908564
6.360000	-574.688489
6.370000	-568.528619
6.380000	-568.528619
6.390000	-568.528619
6.400000	-972.479227
6.410000	-1053.712429
6.420000	-1082.535128
6.430000	-1148.119012
6.440000	-1160.116075
6.450000	-1166.389887
6.460000	-1166.389887
6.470000	-1166.389887
6.480000	-1122.310646
6.490000	-1089.759270
6.500000	-1024.937623
6.510000	-964.607891
6.520000	-877.398971
6.530000	-805.680945
6.540000	-715.673451
6.550000	-629.931396
6.560000	-533.868965
6.570000	-442.285972
6.580000	-348.027964
6.590000	-262.716268
6.600000	-163.115741
6.610000	-76.309639
6.620000	18.903870
6.630000	107.973200
6.640000	203.973414
6.650000	203.973414
6.660000	203.973414
6.670000	94.192760
6.680000	-127.781103
6.690000	-375.716580
6.700000	-587.548034
6.710000	-754.801578
6.720000	-878.369513
6.730000	-963.928895
6.740000	-1017.220695
6.750000	-1034.456833
6.760000	-1034.456833
6.770000	-1034.456833
6.780000	-994.762790
6.790000	-994.762790
6.800000	-994.762790
6.810000	-1036.459899
6.820000	-1070.967889
6.830000	-1119.226954
6.840000	-1141.367292
6.850000	-1142.432725
6.860000	-1142.432725
6.870000	-1142.432725
6.880000	-1099.712600
6.890000	-1063.901772
6.900000	-991.602174
6.910000	-944.694496
6.920000	-849.153225
6.930000	-782.939645
6.940000	-669.314583
6.950000	-591.659996
6.960000	-472.068576
6.970000	-405.892051
6.980000	-405.892051
6.990000	-405.892051
7.000000	-897.024019
7.010000	-962.039128
7.020000	-965.224305
7.030000	-975.481637
7.040000	-975.481637
7.050000	-975.481637
7.060000	-927.454394
7.070000	-907.674926
7.080000	-832.974093
7.090000	-782.541750
7.100000	-690.132505
7.110000	-609.777226
7.120000	-507.086505
7.130000	-420.250621
7.140000	-311.871598
7.150000	-212.950707
7.160000	-100.547487
7.170000	-6.841255
7.180000	99.913006
7.190000	196.076770
7.200000	308.472663
7.210000	395.768052
7.220000	447.936943
7.230000	447.936943
7.240000	447.936943
7.250000	242.533918
7.260000	-21.080822
7.270000	-279.148659
7.280000	-493.208513
7.290000	-665.984935
7.300000	-790.349856
7.310000	-887.941061
7.320000	-958.471950
7.330000	-1013.972103
7.340000	-1016.637021
7.350000	-1016.637021
7.360000	-1016.637021
7.370000	-1016.637021
7.380000	-1016.637021
7.390000	-1051.735042
7.400000	-1090.723634
7.410000	-1128.164366
7.420000	-1152.757638
7.430000	-1152.757638
7.440000	-1152.757638
7.450000	-1145.264890
7.460000	-1107.861350
7.470000	-1062.939240
7.480000	-1000.907430
7.490000	-929.703900
7.500000	-847.970151
7.510000	-767.546990
7.520000	-666.983609
7.530000	-579.582632
7.540000	-477.872299
7.550000	-382.793379
7.560000	-271.683347
7.570000	-184.217436
7.580000	-79.314660
7.590000	7.104978
7.600000	114.218275
7.610000	196.151812
7.620000	305.981026
7.630000	376.994829
7.640000	376.994829
7.650000	376.994829
7.660000	221.469255
7.670000	-62.168220
7.680000	-302.484218
7.690000	-575.051482
7.700000	-1275.358137
7.710000	-1355.010768
7.720000	-1368.676711
7.730000	-1419.442755
7.740000	-1419.442755
7.750000	-1419.442755
7.760000	-1405.754065
7.770000	-1403.062410
7.780000	-1333.575788
7.790000	-1298.564008
7.800000	-1211.924117
7.810000	-1151.557195
7.820000	-1040.889200
7.830000	-975.062933
7.840000	-851.351613
7.850000	-771.170025
7.860000	-640.317283
7.870000	-553.837281
7.880000	-420.812440
7.890000	-341.068524
7.900000	-201.763432
7.910000	-134.009594
7.920000	3.995528
7.930000	73.238582
7.940000	218.494622
7.950000	273.593572
7.960000	439.964360
7.970000	439.964360
7.980000	439.964360
7.990000	348.450491
8.000000	-1038.644025
8.010000	-1038.644025
8.020000	-1038.644025
8.030000	-1025.432748
8.040000	-897.046987
8.050000	-865.685133
8.060000	-737.371789
8.070000	-682.976842
8.080000	-555.861597
8.090000	-493.084628
8.100000	-366.660128
8.110000	-296.910904
8.120000	-173.862425
8.130000	-96.346777
8.140000	15.389886
8.150000	95.782533
8.160000	197.932640
8.170000	282.623002
8.180000	400.687649
8.190000	494.129685
8.200000	606.687408
8.210000	606.687408
8.220000	606.687408
8.230000	457.379988
8.240000	227.088927
8.250000	-19.602707
8.260000	-221.578210
8.270000	-374.775463
8.280000	-481.295452
8.290000	-554.010799
8.300000	-607.048951
8.310000	-609.560203
8.320000	-609.560203
8.330000	-609.560203
8.340000	-578.657834
8.350000	-578.657834
8.360000	-578.657834
8.370000	-601.044073
8.380000	-646.579566
8.390000	-675.165136
8.400000	-704.775161
8.410000	-704.775161
8.420000	-704.775161
8.430000	-683.062663
8.440000	-655.796053
8.450000	-592.719257
8.460000	-549.740145
8.470000	-465.081747
8.480000	-404.062187
8.490000	-295.096840
8.500000	-248.823044
8.510000	-216.620925
8.520000	-216.620925
8.530000	-216.620925
8.540000	-216.620925
8.550000	-177.114291
8.560000	-155.222884
8.570000	-26.850807
8.580000	23.226715
8.590000	184.414441
8.600000	1262.343147
8.610000	1394.325546
8.620000	1446.930549
8.630000	1475.979037
8.640000	1475.979037
8.650000	1475.979037
8.660000	1226.481605
8.670000	994.472454
8.680000	733.834313
8.690000	577.433980
8.700000	443.574427
8.710000	407.804313
8.720000	360.783848
8.730000	351.587052
8.740000	351.587052
8.750000	351.587052
8.760000	363.239145
8.770000	421.961019
8.780000	421.961019
8.790000	421.961019
8.800000	412.685734
8.810000	372.109526
8.820000	309.616079
8.830000	231.837942
8.840000	171.597630
8.850000	171.597630
8.860000	171.597630
8.870000	190.219268
8.880000	226.306588
8.890000	268.820504
8.900000	322.216446
8.910000	377.364824
8.920000	448.170120
8.930000	531.844000
8.940000	636.133586
8.950000	760.280819
8.960000	900.068698
8.970000	1034.653257
8.980000	1191.116866
8.990000	1326.815740
9.000000	1469.339611
9.010000	1590.807661
9.020000	1732.734856
9.030000	1838.512074
9.040000	1952.389205
9.050000	1952.389205
9.060000	1952.389205
9.070000	1822.979372
9.080000	1605.522601
9.090000	1289.751107
9.100000	902.211702
9.110000	902.211702
9.120000	902.211702
9.130000	974.504354
9.140000	1094.434884
9.150000	1179.096344
9.160000	1294.048181
9.170000	1294.048181
9.180000	1294.048181
9.190000	1178.155490
9.200000	939.114984
9.210000	667.978967
9.220000	461.475606
9.230000	280.411113
9.240000	160.022572
9.250000	56.608283
9.260000	4.766348
9.270000	-40.431300
9.280000	-40.431300
9.290000	-40.431300
9.300000	-19.096411
9.310000	-19.096411
9.320000	-19.096411
9.330000	-64.609852
9.340000	-101.696287
9.350000	-160.414535
9.360000	-184.076973
9.370000	-209.245377
9.380000	-209.245377
9.390000	-209.245377
9.400000	-180.142479
9.410000	-158.576694
9.420000	-91.729615
9.430000	-60.689000
9.440000	34.159884
9.450000	90.624663
9.460000	191.537743
9.470000	240.425955
9.480000	240.425955
9.490000	240.425955
9.500000	-301.996218
9.510000	-319.151514
9.520000	-334.765399
9.530000	-389.656345
9.540000	-409.582366
9.550000	-468.188395
9.560000	-476.544378
9.570000	-487.708759
9.580000	-487.708759
9.590000	-487.708759
9.600000	-449.215674
9.610000	-416.519789
9.620000	-352.164841
