Time(s)	GREEN_denoised_wiener
0.000000	-360.232538
0.010000	-398.224692
0.020000	-420.444080
0.030000	-436.702253
0.040000	-447.582037
0.050000	-456.517579
0.060000	-464.041729
0.070000	-466.317040
0.080000	-464.176819
0.090000	-461.119486
0.100000	-459.637905
0.110000	-456.233990
0.120000	-450.435568
0.130000	-443.347511
0.140000	-438.233593
0.150000	-433.775957
0.160000	-427.355295
0.170000	-419.540150
0.180000	-408.129451
0.190000	-398.652035
0.200000	-396.228679
0.210000	-403.081882
0.220000	-412.295121
0.230000	-411.488762
0.240000	-398.046806
0.250000	-374.902362
0.260000	-349.802909
0.270000	-325.292579
0.280000	-300.540361
0.290000	-272.667501
0.300000	-242.277414
0.310000	-213.040588
0.320000	-184.325429
0.330000	-151.725789
0.340000	-116.711766
0.350000	-89.089099
0.360000	-76.079251
0.370000	-75.414291
0.380000	-81.425038
0.390000	-92.404371
0.400000	-104.418410
0.410000	-114.383518
0.420000	-116.724700
0.430000	-115.709151
0.440000	-110.335668
0.450000	-102.361202
0.460000	-90.590394
0.470000	-76.672625
0.480000	-64.502539
0.490000	-53.288785
0.500000	-44.404593
0.510000	-35.545165
0.520000	-27.632186
0.530000	-19.111110
0.540000	-9.177895
0.550000	4.010053
0.560000	18.617528
0.570000	33.484617
0.580000	47.431419
0.590000	61.985451
0.600000	79.266082
0.610000	98.163539
0.620000	119.459039
0.630000	140.351866
0.640000	162.350884
0.650000	184.888518
0.660000	206.594862
0.670000	229.121443
0.680000	251.519979
0.690000	274.380512
0.700000	298.802049
0.710000	325.661492
0.720000	351.428167
0.730000	369.624164
0.740000	376.418303
0.750000	375.297309
0.760000	367.091809
0.770000	356.004002
0.780000	345.788661
0.790000	340.402776
0.800000	338.496077
0.810000	338.158767
0.820000	339.902508
0.830000	345.276916
0.840000	354.331065
0.850000	363.411414
0.860000	371.460206
0.870000	378.576142
0.880000	385.618755
0.890000	392.766582
0.900000	401.475321
0.910000	411.313271
0.920000	422.695902
0.930000	433.882644
0.940000	447.290091
0.950000	462.139012
0.960000	478.248606
0.970000	496.093437
0.980000	517.239950
0.990000	542.408940
1.000000	569.921670
1.010000	597.754023
1.020000	624.301965
1.030000	647.462045
1.040000	667.052067
1.050000	685.207846
1.060000	703.164653
1.070000	718.976741
1.080000	733.650714
1.090000	752.790494
1.100000	777.155896
1.110000	798.946683
1.120000	810.360537
1.130000	810.488117
1.140000	801.941337
1.150000	790.070395
1.160000	776.545518
1.170000	764.690864
1.180000	754.507708
1.190000	746.680495
1.200000	741.502923
1.210000	737.700057
1.220000	735.536741
1.230000	735.086933
1.240000	735.268684
1.250000	735.844215
1.260000	735.031256
1.270000	731.638104
1.280000	727.503912
1.290000	724.467188
1.300000	724.010888
1.310000	725.659617
1.320000	727.549530
1.330000	730.561817
1.340000	733.451313
1.350000	738.175204
1.360000	744.716803
1.370000	752.823807
1.380000	762.017597
1.390000	771.841787
1.400000	783.358600
1.410000	794.888322
1.420000	806.072695
1.430000	816.303674
1.440000	827.162338
1.450000	837.748441
1.460000	848.959842
1.470000	860.225448
1.480000	872.464393
1.490000	888.076150
1.500000	908.669738
1.510000	928.944170
1.520000	938.898463
1.530000	932.526101
1.540000	911.183665
1.550000	880.489299
1.560000	846.506288
1.570000	814.152178
1.580000	784.521195
1.590000	756.846016
1.600000	732.243965
1.610000	710.238103
1.620000	691.004426
1.630000	673.997374
1.640000	659.135257
1.650000	643.785324
1.660000	627.975668
1.670000	611.608450
1.680000	596.523502
1.690000	581.792649
1.700000	567.108287
1.710000	554.685592
1.720000	543.051319
1.730000	533.621407
1.740000	525.690018
1.750000	520.931809
1.760000	519.358748
1.770000	520.943246
1.780000	523.054683
1.790000	526.999725
1.800000	531.444130
1.810000	536.093024
1.820000	540.868000
1.830000	547.224225
1.840000	555.656110
1.850000	565.719581
1.860000	574.804857
1.870000	584.258902
1.880000	593.648320
1.890000	604.168810
1.900000	614.517536
1.910000	624.113148
1.920000	636.095917
1.930000	651.416908
1.940000	664.354561
1.950000	663.068935
1.960000	642.329576
1.970000	603.436927
1.980000	554.019804
1.990000	500.164983
2.000000	450.414205
2.010000	407.240260
2.020000	371.501183
2.030000	340.001204
2.040000	311.958044
2.050000	289.466418
2.060000	272.438392
2.070000	257.618862
2.080000	241.614065
2.090000	221.802239
2.100000	200.498550
2.110000	177.674204
2.120000	155.082727
2.130000	135.577087
2.140000	118.685438
2.150000	106.848737
2.160000	97.301049
2.170000	90.489512
2.180000	85.272360
2.190000	83.498329
2.200000	85.599372
2.210000	90.529108
2.220000	96.617121
2.230000	103.923520
2.240000	111.992095
2.250000	121.345691
2.260000	131.723079
2.270000	142.458006
2.280000	153.480047
2.290000	163.257080
2.300000	173.603403
2.310000	183.739315
2.320000	195.423774
2.330000	205.230437
2.340000	217.287777
2.350000	233.070237
2.360000	252.837493
2.370000	265.567851
2.380000	260.743809
2.390000	232.767271
2.400000	184.026765
2.410000	120.330530
2.420000	53.346671
2.430000	-9.096160
2.440000	-65.330008
2.450000	-118.850289
2.460000	-176.328930
2.470000	-238.234492
2.480000	-312.733949
2.490000	-406.943027
2.500000	-511.588458
2.510000	-611.043263
2.520000	-694.338026
2.530000	-758.783869
2.540000	-805.951607
2.550000	-841.392697
2.560000	-871.243581
2.570000	-900.648396
2.580000	-929.170048
2.590000	-954.549132
2.600000	-973.076123
2.610000	-986.782771
2.620000	-995.961425
2.630000	-1001.335126
2.640000	-1001.491921
2.650000	-998.214166
2.660000	-993.006411
2.670000	-985.071814
2.680000	-972.168694
2.690000	-953.919838
2.700000	-931.654406
2.710000	-906.085059
2.720000	-877.792121
2.730000	-848.238540
2.740000	-819.584383
2.750000	-791.036669
2.760000	-762.030149
2.770000	-733.491889
2.780000	-705.125658
2.790000	-672.923456
2.800000	-638.890993
2.810000	-613.698893
2.820000	-610.984640
2.830000	-632.094155
2.840000	-670.376658
2.850000	-716.134798
2.860000	-762.095827
2.870000	-803.837166
2.880000	-838.807433
2.890000	-866.532599
2.900000	-887.843374
2.910000	-903.214526
2.920000	-910.860625
2.930000	-911.557713
2.940000	-908.538885
2.950000	-907.896378
2.960000	-911.526605
2.970000	-917.211412
2.980000	-923.169875
2.990000	-925.508333
3.000000	-925.147393
3.010000	-921.789597
3.020000	-916.783778
3.030000	-909.720362
3.040000	-899.739904
3.050000	-887.309051
3.060000	-872.014529
3.070000	-854.889257
3.080000	-836.274757
3.090000	-817.459517
3.100000	-798.184801
3.110000	-777.682384
3.120000	-755.416089
3.130000	-730.892573
3.140000	-703.968804
3.150000	-676.428439
3.160000	-647.835724
3.170000	-618.620227
3.180000	-588.687994
3.190000	-560.138064
3.200000	-531.182847
3.210000	-503.318072
3.220000	-474.320532
3.230000	-442.485775
3.240000	-407.113798
3.250000	-373.990665
3.260000	-355.243734
3.270000	-353.789387
3.280000	-369.016321
3.290000	-394.223596
3.300000	-421.103245
3.310000	-442.312409
3.320000	-457.193684
3.330000	-467.058313
3.340000	-475.274650
3.350000	-479.774018
3.360000	-480.011057
3.370000	-475.808510
3.380000	-467.733801
3.390000	-460.505208
3.400000	-455.431161
3.410000	-452.515477
3.420000	-449.773385
3.430000	-446.178540
3.440000	-442.102776
3.450000	-435.484742
3.460000	-427.089578
3.470000	-417.105498
3.480000	-407.396943
3.490000	-397.034357
3.500000	-383.014205
3.510000	-366.623740
3.520000	-348.277620
3.530000	-331.202538
3.540000	-313.174227
3.550000	-293.433328
3.560000	-270.717222
3.570000	-246.318705
3.580000	-221.574370
3.590000	-196.514324
3.600000	-170.409726
3.610000	-143.358966
3.620000	-116.561316
3.630000	-89.511930
3.640000	-61.023824
3.650000	-31.648917
3.660000	-4.138074
3.670000	24.250357
3.680000	54.764961
3.690000	88.169898
3.700000	120.677304
3.710000	146.773387
3.720000	163.619225
3.730000	167.730879
3.740000	163.605719
3.750000	156.713902
3.760000	150.610017
3.770000	147.382838
3.780000	147.299455
3.790000	150.073935
3.800000	157.351415
3.810000	166.778137
3.820000	177.431594
3.830000	188.507150
3.840000	198.534633
3.850000	209.269910
3.860000	216.646764
3.870000	223.075737
3.880000	229.446858
3.890000	238.244945
3.900000	249.599675
3.910000	261.434139
3.920000	272.781779
3.930000	283.986692
3.940000	297.997647
3.950000	314.891483
3.960000	334.239101
3.970000	353.150004
3.980000	373.521039
3.990000	395.431043
4.000000	417.493302
4.010000	438.072588
4.020000	457.498990
4.030000	477.746842
4.040000	500.198073
4.050000	523.776194
4.060000	548.595769
4.070000	572.160538
4.080000	592.356830
4.090000	611.586415
4.100000	634.486640
4.110000	662.365897
4.120000	690.629791
4.130000	713.170909
4.140000	726.810801
4.150000	730.678867
4.160000	725.359199
4.170000	715.227414
4.180000	705.272904
4.190000	698.801732
4.200000	694.537854
4.210000	689.735942
4.220000	686.847766
4.230000	688.033463
4.240000	693.182304
4.250000	700.356909
4.260000	705.876406
4.270000	711.392760
4.280000	713.588016
4.290000	714.808725
4.300000	714.656703
4.310000	715.597225
4.320000	719.755843
4.330000	724.403822
4.340000	728.223664
4.350000	731.579882
4.360000	735.725467
4.370000	743.124169
4.380000	750.576640
4.390000	760.047583
4.400000	771.453812
4.410000	784.000674
4.420000	797.363912
4.430000	809.647753
4.440000	822.314867
4.450000	835.656567
4.460000	850.632596
4.470000	866.024316
4.480000	880.648648
4.490000	894.092374
4.500000	908.035273
4.510000	920.849462
4.520000	935.800071
4.530000	954.967979
4.540000	977.588342
4.550000	995.430547
4.560000	1001.410917
4.570000	993.270778
4.580000	972.274161
4.590000	942.817183
4.600000	911.507621
4.610000	881.050242
4.620000	853.770640
4.630000	829.640657
4.640000	807.393961
4.650000	787.265440
4.660000	770.048934
4.670000	756.921258
4.680000	745.724591
4.690000	732.936360
4.700000	718.104901
4.710000	700.981418
4.720000	683.186251
4.730000	667.057525
4.740000	652.289252
4.750000	640.166745
4.760000	628.745280
4.770000	619.313231
4.780000	612.561204
4.790000	608.485830
4.800000	607.405840
4.810000	608.349181
4.820000	612.617487
4.830000	618.565002
4.840000	625.191266
4.850000	630.805743
4.860000	636.465860
4.870000	643.740941
4.880000	654.433925
4.890000	666.692036
4.900000	675.418789
4.910000	682.354047
4.920000	691.434923
4.930000	702.697004
4.940000	709.791604
4.950000	714.754152
4.960000	724.853569
4.970000	740.483065
4.980000	748.234680
4.990000	733.565645
5.000000	697.013722
5.010000	641.009659
5.020000	575.516119
5.030000	507.133584
5.040000	443.015014
5.050000	388.608055
5.060000	343.198487
5.070000	305.101010
5.080000	269.393920
5.090000	237.298048
5.100000	210.276925
5.110000	185.168980
5.120000	153.832540
5.130000	117.418078
5.140000	80.416327
5.150000	47.352622
5.160000	16.668444
5.170000	-11.690644
5.180000	-37.393972
5.190000	-59.715395
5.200000	-76.435171
5.210000	-90.738191
5.220000	-103.453413
5.230000	-115.077233
5.240000	-124.116999
5.250000	-130.404365
5.260000	-137.107847
5.270000	-141.366679
5.280000	-143.091692
5.290000	-142.315020
5.300000	-139.395771
5.310000	-134.582700
5.320000	-127.685259
5.330000	-120.509453
5.340000	-111.619737
5.350000	-102.097315
5.360000	-91.872221
5.370000	-84.349525
5.380000	-75.425854
5.390000	-62.594860
5.400000	-44.638732
5.410000	-33.198187
5.420000	-43.852069
5.430000	-83.099851
5.440000	-145.926232
5.450000	-217.120781
5.460000	-284.532435
5.470000	-345.839676
5.480000	-401.040392
5.490000	-448.704181
5.500000	-486.537997
5.510000	-517.575623
5.520000	-545.028684
5.530000	-563.750320
5.540000	-576.868592
5.550000	-591.930590
5.560000	-617.037064
5.570000	-645.063023
5.580000	-669.534906
5.590000	-688.870065
5.600000	-706.040026
5.610000	-720.662921
5.620000	-729.198411
5.630000	-733.800269
5.640000	-735.014809
5.650000	-735.940626
5.660000	-732.808575
5.670000	-726.757587
5.680000	-716.258360
5.690000	-704.250390
5.700000	-693.036845
5.710000	-681.063254
5.720000	-668.149968
5.730000	-649.193659
5.740000	-628.954777
5.750000	-607.308766
5.760000	-586.765129
5.770000	-569.086982
5.780000	-549.890605
5.790000	-525.198499
5.800000	-495.026072
5.810000	-466.662521
5.820000	-442.814983
5.830000	-418.438109
5.840000	-393.283421
5.850000	-378.244144
5.860000	-386.758851
5.870000	-419.348186
5.880000	-466.206222
5.890000	-514.444212
5.900000	-557.003537
5.910000	-591.888217
5.920000	-616.132402
5.930000	-631.345804
5.940000	-639.597007
5.950000	-643.138506
5.960000	-643.059819
5.970000	-640.599806
5.980000	-638.194223
5.990000	-637.728010
6.000000	-639.994153
6.010000	-644.521372
6.020000	-650.461780
6.030000	-652.972589
6.040000	-651.276159
6.050000	-642.754427
6.060000	-630.107571
6.070000	-615.203152
6.080000	-599.273155
6.090000	-582.317816
6.100000	-562.101990
6.110000	-539.443656
6.120000	-513.596046
6.130000	-486.580007
6.140000	-458.755170
6.150000	-431.722783
6.160000	-402.905882
6.170000	-373.211571
6.180000	-343.726906
6.190000	-316.038255
6.200000	-287.539646
6.210000	-257.874384
6.220000	-227.691781
6.230000	-196.377038
6.240000	-162.177487
6.250000	-129.566852
6.260000	-107.010910
6.270000	-99.751256
6.280000	-107.165031
6.290000	-125.263245
6.300000	-148.317897
6.310000	-169.108012
6.320000	-183.482763
6.330000	-191.969218
6.340000	-195.987026
6.350000	-194.493959
6.360000	-188.166326
6.370000	-177.689059
6.380000	-166.690728
6.390000	-157.885347
6.400000	-150.542717
6.410000	-144.420032
6.420000	-137.059027
6.430000	-128.966612
6.440000	-119.576147
6.450000	-108.183249
6.460000	-96.436843
6.470000	-82.393806
6.480000	-67.310118
6.490000	-48.931856
6.500000	-29.198717
6.510000	-7.132369
6.520000	15.902432
6.530000	38.663633
6.540000	62.339764
6.550000	86.785472
6.560000	113.444288
6.570000	140.227098
6.580000	165.880590
6.590000	191.003286
6.600000	218.318864
6.610000	246.765202
6.620000	275.420305
6.630000	305.863425
6.640000	337.177648
6.650000	365.616618
6.660000	380.913138
6.670000	382.726449
6.680000	374.655469
6.690000	361.167994
6.700000	347.395592
6.710000	334.260587
6.720000	324.469861
6.730000	316.671243
6.740000	308.871546
6.750000	300.414713
6.760000	292.607726
6.770000	289.160510
6.780000	289.661605
6.790000	290.894245
6.800000	293.388036
6.810000	297.289140
6.820000	302.776722
6.830000	306.001752
6.840000	307.840447
6.850000	310.379693
6.860000	312.223218
6.870000	312.754999
6.880000	311.267566
6.890000	306.122847
6.900000	298.314174
6.910000	286.479191
6.920000	273.366971
6.930000	255.145619
6.940000	231.089721
6.950000	203.147404
6.960000	170.131799
6.970000	136.158279
6.980000	104.833596
6.990000	86.181149
7.000000	85.516753
7.010000	106.527086
7.020000	145.507068
7.030000	194.522118
7.040000	247.162201
7.050000	294.504127
7.060000	330.485651
7.070000	349.481042
7.080000	353.824582
7.090000	349.461402
7.100000	340.150947
7.110000	331.440012
7.120000	324.458424
7.130000	319.409223
7.140000	314.754163
7.150000	308.704019
7.160000	303.386831
7.170000	302.328718
7.180000	307.006491
7.190000	314.266542
7.200000	319.614866
7.210000	324.546431
7.220000	330.214469
7.230000	339.155501
7.240000	350.128958
7.250000	361.755994
7.260000	375.041673
7.270000	387.338007
7.280000	398.953934
7.290000	409.910520
7.300000	421.861836
7.310000	435.805584
7.320000	451.423674
7.330000	468.357946
7.340000	485.975352
7.350000	503.901466
7.360000	521.516655
7.370000	540.107033
7.380000	558.374182
7.390000	575.971710
7.400000	592.888964
7.410000	610.496348
7.420000	628.053947
7.430000	646.013414
7.440000	665.208959
7.450000	685.516646
7.460000	706.017065
7.470000	728.682910
7.480000	754.477293
7.490000	776.482226
7.500000	784.917487
7.510000	777.623424
7.520000	756.355843
7.530000	724.756995
7.540000	685.779272
7.550000	640.204679
7.560000	581.502460
7.570000	510.614138
7.580000	432.401626
7.590000	359.119040
7.600000	295.910360
7.610000	238.202502
7.620000	175.901983
7.630000	102.241310
7.640000	20.702421
7.650000	-62.290091
7.660000	-142.892852
7.670000	-210.960660
7.680000	-265.098109
7.690000	-313.985789
7.700000	-362.445538
7.710000	-412.687655
7.720000	-455.445604
7.730000	-488.426414
7.740000	-517.486039
7.750000	-546.177076
7.760000	-571.861270
7.770000	-588.269804
7.780000	-596.943556
7.790000	-603.392600
7.800000	-604.688723
7.810000	-604.553273
7.820000	-603.444760
7.830000	-603.070756
7.840000	-599.873259
7.850000	-592.280826
7.860000	-579.992581
7.870000	-558.500206
7.880000	-533.160060
7.890000	-508.739223
7.900000	-489.681427
7.910000	-466.628626
7.920000	-441.923408
7.930000	-423.555530
7.940000	-419.520905
7.950000	-428.813383
7.960000	-448.803119
7.970000	-475.423300
7.980000	-500.430039
7.990000	-517.060290
8.000000	-524.095352
8.010000	-524.732733
8.020000	-525.794094
8.030000	-532.758447
8.040000	-543.495711
8.050000	-552.131126
8.060000	-557.567840
8.070000	-559.864505
8.080000	-560.334409
8.090000	-558.283493
8.100000	-555.799868
8.110000	-553.389509
8.120000	-547.946900
8.130000	-540.531906
8.140000	-529.444739
8.150000	-514.704187
8.160000	-491.621585
8.170000	-455.568671
8.180000	-403.829152
8.190000	-339.140368
8.200000	-268.036939
8.210000	-192.737909
8.220000	-118.000527
8.230000	-50.663843
8.240000	7.340926
8.250000	54.710733
8.260000	92.683191
8.270000	120.052328
8.280000	138.674176
8.290000	153.041391
8.300000	165.298853
8.310000	173.659707
8.320000	179.906630
8.330000	186.920914
8.340000	195.147499
8.350000	195.796449
8.360000	178.022322
8.370000	142.342698
8.380000	92.545537
8.390000	35.871077
8.400000	-19.623119
8.410000	-70.306918
8.420000	-114.825669
8.430000	-155.857064
8.440000	-193.381985
8.450000	-226.766791
8.460000	-252.959690
8.470000	-273.717852
8.480000	-292.236230
8.490000	-314.036948
8.500000	-339.192870
8.510000	-365.043691
8.520000	-389.513020
8.530000	-411.080619
8.540000	-430.200665
8.550000	-445.474610
8.560000	-458.926606
8.570000	-468.887425
8.580000	-476.021328
8.590000	-478.656263
8.600000	-477.150800
8.610000	-474.795725
8.620000	-470.631226
8.630000	-466.305033
8.640000	-460.131903
8.650000	-453.518956
8.660000	-447.327250
8.670000	-440.423617
8.680000	-431.886100
8.690000	-420.690960
8.700000	-409.150445
8.710000	-397.983628
8.720000	-384.769229
8.730000	-369.980671
8.740000	-354.418697
8.750000	-336.333853
8.760000	-315.769586
8.770000	-297.730511
8.780000	-295.506432
8.790000	-315.805641
8.800000	-355.579709
8.810000	-407.565770
8.820000	-461.340890
8.830000	-510.700741
8.840000	-552.473660
8.850000	-587.877698
8.860000	-619.640504
8.870000	-648.412204
8.880000	-672.163236
8.890000	-687.974168
8.900000	-699.400302
8.910000	-709.899061
8.920000	-724.671997
8.930000	-739.160289
8.940000	-753.319201
8.950000	-764.109697
8.960000	-772.339999
8.970000	-776.749738
8.980000	-777.728258
8.990000	-778.426904
9.000000	-777.132632
9.010000	-775.141744
9.020000	-768.552066
9.030000	-759.235037
9.040000	-746.660751
9.050000	-733.365846
9.060000	-720.126939
9.070000	-705.853769
9.080000	-690.959397
9.090000	-674.366302
9.100000	-656.825473
9.110000	-637.569813
9.120000	-617.390860
9.130000	-596.132298
9.140000	-572.314062
9.150000	-548.066018
9.160000	-523.927417
9.170000	-501.029082
9.180000	-476.223265
9.190000	-447.355644
9.200000	-415.555422
9.210000	-385.385442
9.220000	-365.592725
9.230000	-361.432483
9.240000	-374.647056
9.250000	-398.816957
9.260000	-426.391300
9.270000	-451.231501
9.280000	-472.175237
9.290000	-489.676338
9.300000	-502.981540
9.310000	-512.483162
9.320000	-516.808324
9.330000	-515.317148
9.340000	-510.334883
9.350000	-504.510131
9.360000	-501.221365
9.370000	-498.713406
9.380000	-495.466020
9.390000	-491.611882
9.400000	-486.064451
9.410000	-479.538890
9.420000	-472.017577
9.430000	-464.157581
9.440000	-454.320680
9.450000	-441.467311
9.460000	-425.649287
9.470000	-408.804504
9.480000	-389.992044
9.490000	-371.171491
9.500000	-351.682533
9.510000	-331.227500
9.520000	-309.728081
9.530000	-285.633684
9.540000	-262.140643
9.550000	-237.379688
9.560000	-213.584631
9.570000	-190.137770
9.580000	-166.047252
9.590000	-140.248397
9.600000	-111.862880
9.610000	-84.389958
9.620000	-59.358421
9.630000	-33.536849
9.640000	-6.546616
9.650000	18.622443
9.660000	38.579778
9.670000	51.100881
9.680000	55.693795
9.690000	51.895852
9.700000	43.469455
9.710000	35.678571
9.720000	30.219193
9.730000	26.438971
9.740000	24.622555
9.750000	24.515861
9.760000	29.687971
9.770000	38.229509
9.780000	50.077182
9.790000	62.922633
9.800000	74.452272
9.810000	83.271092
9.820000	88.147540
9.830000	92.953546
9.840000	98.822180
9.850000	104.616911
9.860000	110.487746
9.870000	116.267044
9.880000	125.150437
9.890000	135.224612
9.900000	147.141888
9.910000	159.164239
9.920000	171.126528
9.930000	183.093611
9.940000	195.100441
9.950000	209.017619
9.960000	224.725389
9.970000	243.602485
9.980000	263.998997
9.990000	284.846161
10.000000	304.261152
10.010000	322.085589
10.020000	339.518281
10.030000	358.318031
10.040000	375.420533
10.050000	392.889820
10.060000	412.313627
10.070000	435.120209
10.080000	456.515555
10.090000	472.010908
10.100000	481.054647
10.110000	482.894284
10.120000	478.257908
10.130000	470.779279
10.140000	464.121756
10.150000	457.980747
10.160000	452.313892
10.170000	446.508408
10.180000	444.178920
10.190000	446.691362
10.200000	451.026892
10.210000	454.871417
10.220000	456.872850
10.230000	458.053515
10.240000	458.378264
10.250000	457.564128
10.260000	457.552483
10.270000	459.401844
10.280000	462.050568
10.290000	465.906776
10.300000	470.208775
10.310000	475.411872
10.320000	481.362280
10.330000	488.916863
10.340000	497.843389
10.350000	508.754910
10.360000	519.982438
10.370000	531.595407
10.380000	543.117794
10.390000	553.097825
10.400000	563.594184
10.410000	575.261234
10.420000	589.738246
10.430000	603.074368
10.440000	615.224893
10.450000	626.553924
10.460000	641.722076
10.470000	657.343548
10.480000	671.221455
10.490000	685.143137
10.500000	699.382453
10.510000	714.943926
10.520000	724.854146
10.530000	725.753989
10.540000	716.999380
10.550000	699.233739
10.560000	675.818290
10.570000	650.714741
10.580000	626.299167
10.590000	605.530379
10.600000	587.435660
10.610000	571.012390
10.620000	557.578351
10.630000	547.491624
10.640000	539.717103
10.650000	529.961822
10.660000	517.532344
10.670000	504.439403
10.680000	491.678100
10.690000	478.913315
10.700000	467.495144
10.710000	458.051910
10.720000	450.309714
10.730000	443.522546
10.740000	437.459032
10.750000	433.330473
10.760000	430.269295
10.770000	428.808893
10.780000	429.078412
10.790000	431.621734
10.800000	435.884442
10.810000	440.432066
10.820000	445.026978
10.830000	450.244489
10.840000	456.836492
10.850000	464.721083
10.860000	473.311046
10.870000	482.866394
10.880000	491.780154
10.890000	501.018409
10.900000	511.248031
10.910000	520.496048
10.920000	532.397464
10.930000	546.628913
10.940000	562.211135
10.950000	570.406445
10.960000	565.031064
10.970000	546.534703
10.980000	515.182920
10.990000	475.674160
11.000000	433.335446
11.010000	394.481858
11.020000	360.473136
11.030000	329.947432
11.040000	301.275351
11.050000	276.087126
11.060000	257.078899
11.070000	243.883379
11.080000	231.200439
11.090000	215.348853
11.100000	196.998602
11.110000	178.483463
11.120000	159.788107
11.130000	140.949238
11.140000	123.245271
11.150000	108.079496
11.160000	96.365118
11.170000	88.539032
11.180000	83.812074
11.190000	81.663000
11.200000	80.586578
11.210000	80.788474
11.220000	82.023203
11.230000	84.578658
11.240000	88.121252
11.250000	93.368078
11.260000	99.544773
11.270000	107.491385
11.280000	115.624307
11.290000	123.279770
11.300000	131.370606
11.310000	139.727500
11.320000	151.120509
11.330000	163.156459
11.340000	174.201119
11.350000	186.257242
11.360000	203.282143
11.370000	222.668249
11.380000	237.345707
11.390000	236.730941
11.400000	220.766056
11.410000	190.791889
11.420000	152.191791
11.430000	109.845603
11.440000	68.277232
11.450000	32.227130
11.460000	1.676684
11.470000	-24.400497
11.480000	-46.595856
11.490000	-62.025235
11.500000	-72.889155
11.510000	-82.326143
11.520000	-94.525734
11.530000	-109.957362
11.540000	-126.830101
11.550000	-144.265215
11.560000	-160.472894
11.570000	-176.254577
11.580000	-188.780235
11.590000	-197.591774
11.600000	-204.435078
11.610000	-208.262875
11.620000	-210.103991
11.630000	-207.934083
11.640000	-205.129688
11.650000	-200.601764
11.660000	-193.498230
11.670000	-184.950541
11.680000	-176.209531
11.690000	-167.305179
11.700000	-156.592229
11.710000	-145.343947
11.720000	-133.982149
11.730000	-124.062169
11.740000	-112.368752
11.750000	-98.464584
11.760000	-82.767713
11.770000	-66.546119
11.780000	-48.503190
11.790000	-28.307306
11.800000	-10.596092
11.810000	-3.756008
11.820000	-14.695595
11.830000	-43.864404
11.840000	-85.455457
11.850000	-130.976407
11.860000	-173.229964
11.870000	-210.782103
11.880000	-240.678264
11.890000	-264.946222
11.900000	-284.134010
11.910000	-296.783110
11.920000	-303.607436
11.930000	-305.298413
11.940000	-309.445047
11.950000	-317.475464
11.960000	-329.290559
11.970000	-341.990343
11.980000	-353.483902
11.990000	-360.848633
12.000000	-365.033660
12.010000	-366.718713
12.020000	-367.264565
12.030000	-365.929040
12.040000	-361.506964
12.050000	-354.824450
12.060000	-346.428171
12.070000	-337.735230
12.080000	-326.686208
12.090000	-314.668586
12.100000	-300.951601
12.110000	-287.622918
12.120000	-272.886285
12.130000	-256.929381
12.140000	-239.499830
12.150000	-220.917539
12.160000	-202.462856
12.170000	-183.580882
12.180000	-162.770223
12.190000	-139.928390
12.200000	-118.768438
12.210000	-95.602651
12.220000	-70.123061
12.230000	-44.965500
12.240000	-31.515595
12.250000	-35.660502
12.260000	-55.233305
12.270000	-85.027829
12.280000	-117.625654
12.290000	-148.751211
12.300000	-176.371627
12.310000	-198.823111
12.320000	-217.139218
12.330000	-230.905282
12.340000	-239.921685
12.350000	-242.999056
12.360000	-244.734400
12.370000	-247.768511
12.380000	-252.555529
12.390000	-258.883920
12.400000	-264.719462
12.410000	-270.019303
12.420000	-272.892849
12.430000	-274.845231
12.440000	-275.408725
12.450000	-273.684569
12.460000	-269.608170
12.470000	-263.539703
12.480000	-254.819459
12.490000	-244.413960
12.500000	-232.710491
12.510000	-220.637716
12.520000	-206.609303
12.530000	-191.215478
12.540000	-173.852870
12.550000	-157.484405
12.560000	-140.765981
12.570000	-123.437686
12.580000	-104.692299
12.590000	-86.078817
12.600000	-67.629161
12.610000	-46.727383
12.620000	-24.591260
12.630000	-3.059026
12.640000	19.441305
12.650000	43.257936
12.660000	66.452893
12.670000	79.205218
12.680000	78.802645
12.690000	66.481989
12.700000	47.147782
12.710000	25.744180
12.720000	4.804942
12.730000	-13.342217
12.740000	-28.892849
12.750000	-40.773150
12.760000	-48.941497
12.770000	-49.875877
12.780000	-46.021220
12.790000	-38.991007
12.800000	-36.131374
12.810000	-36.096949
12.820000	-38.926679
12.830000	-40.873841
12.840000	-43.417682
12.850000	-44.990372
12.860000	-45.260087
12.870000	-43.453696
12.880000	-40.455043
12.890000	-35.928333
12.900000	-28.996506
12.910000	-18.750874
12.920000	-6.224622
12.930000	6.408806
12.940000	19.873911
12.950000	33.550153
12.960000	49.966461
12.970000	66.328916
12.980000	83.387450
12.990000	100.088103
13.000000	119.137483
13.010000	137.817774
13.020000	155.879681
13.030000	172.531343
13.040000	188.945998
13.050000	205.895864
13.060000	224.331523
13.070000	245.580136
13.080000	268.361935
13.090000	287.238359
13.100000	298.047888
13.110000	298.888146
13.120000	290.058570
13.130000	275.867614
13.140000	259.718756
13.150000	245.500387
13.160000	233.019688
13.170000	222.118525
13.180000	212.304952
13.190000	205.394896
13.200000	203.576443
13.210000	204.978631
13.220000	207.164867
13.230000	206.544322
13.240000	204.752743
13.250000	201.088661
13.260000	196.663970
13.270000	193.286582
13.280000	191.222598
13.290000	192.808458
13.300000	195.084913
13.310000	198.324070
13.320000	200.592661
13.330000	205.172122
13.340000	212.410427
13.350000	222.003081
13.360000	231.540400
13.370000	241.827480
13.380000	252.317893
13.390000	261.634115
13.400000	272.758496
13.410000	284.079215
13.420000	297.192274
13.430000	309.162848
13.440000	322.291352
13.450000	336.557638
13.460000	350.370251
13.470000	362.270200
13.480000	372.771915
13.490000	387.982067
13.500000	406.470089
13.510000	425.674635
13.520000	435.464538
13.530000	433.371909
13.540000	419.449491
13.550000	394.722019
13.560000	365.097938
13.570000	336.388524
13.580000	312.390762
13.590000	292.359036
13.600000	272.324456
13.610000	254.329020
13.620000	240.240537
13.630000	230.945744
13.640000	222.793489
13.650000	210.874912
13.660000	197.014063
13.670000	181.448749
13.680000	168.227356
13.690000	154.652871
13.700000	142.100539
13.710000	131.838629
13.720000	123.952291
13.730000	119.007416
13.740000	114.109468
13.750000	109.499632
13.760000	106.918802
13.770000	107.638482
13.780000	111.705915
13.790000	116.417470
13.800000	121.146309
13.810000	124.842757
13.820000	129.575946
13.830000	135.911138
13.840000	146.658855
13.850000	158.275720
13.860000	168.726104
13.870000	177.624913
13.880000	186.110826
13.890000	196.289926
13.900000	205.127801
13.910000	213.612234
13.920000	223.793815
13.930000	238.917145
13.940000	253.080570
13.950000	256.523856
13.960000	242.688383
13.970000	213.131655
13.980000	172.282744
13.990000	126.723892
14.000000	83.523492
14.010000	44.947853
14.020000	10.735403
14.030000	-20.854283
14.040000	-49.736515
14.050000	-73.338570
14.060000	-91.905297
14.070000	-105.511655
14.080000	-118.107461
14.090000	-133.707799
14.100000	-150.984635
14.110000	-169.930728
14.120000	-187.209292
14.130000	-202.184505
14.140000	-215.795173
14.150000	-226.789300
14.160000	-236.745997
14.170000	-245.078778
14.180000	-250.719595
14.190000	-254.063167
14.200000	-253.712625
14.210000	-251.748250
14.220000	-247.389065
14.230000	-241.462476
14.240000	-235.091162
14.250000	-228.866877
14.260000	-221.479788
14.270000	-210.961337
14.280000	-198.235007
14.290000	-181.741072
14.300000	-164.361300
14.310000	-148.211023
14.320000	-134.845151
14.330000	-123.366780
14.340000	-114.024798
14.350000	-103.873185
14.360000	-93.573883
14.370000	-87.415852
14.380000	-98.172679
14.390000	-133.972272
14.400000	-191.767396
14.410000	-263.459748
14.420000	-342.845703
14.430000	-429.108318
14.440000	-508.669023
14.450000	-563.779952
14.460000	-594.697705
14.470000	-602.455527
14.480000	-587.399101
14.490000	-549.825111
14.500000	-510.517659
14.510000	-485.208456
14.520000	-474.622711
14.530000	-475.608933
14.540000	-482.415136
14.550000	-494.718903
14.560000	-506.887617
14.570000	-523.551761
14.580000	-546.714303
14.590000	-571.059324
14.600000	-588.227486
14.610000	-595.610920
14.620000	-599.459943
14.630000	-605.522785
14.640000	-615.041709
14.650000	-623.447070
14.660000	-624.981955
14.670000	-617.743706
14.680000	-602.290746
14.690000	-581.408259
14.700000	-555.621810
14.710000	-528.108582
14.720000	-498.972926
14.730000	-472.849841
14.740000	-451.678462
14.750000	-433.943431
14.760000	-416.073494
14.770000	-390.387532
14.780000	-357.519818
14.790000	-319.864904
14.800000	-292.362347
14.810000	-285.023803
14.820000	-301.883498
14.830000	-336.849905
14.840000	-380.089358
14.850000	-424.043882
14.860000	-461.658193
14.870000	-495.291947
14.880000	-526.252330
14.890000	-552.893386
14.900000	-572.538413
14.910000	-583.191427
14.920000	-587.866272
14.930000	-589.851522
14.940000	-592.221453
14.950000	-597.538059
14.960000	-604.594068
14.970000	-612.252510
14.980000	-618.993281
14.990000	-624.330710
15.000000	-624.744991
15.010000	-621.783577
15.020000	-615.519982
15.030000	-606.264334
15.040000	-594.990610
15.050000	-581.101157
15.060000	-567.163546
15.070000	-552.288663
15.080000	-535.696851
15.090000	-518.173757
15.100000	-500.590230
15.110000	-482.748973
15.120000	-463.841531
15.130000	-443.351132
15.140000	-424.128094
15.150000	-404.299534
15.160000	-382.107388
15.170000	-354.603613
15.180000	-328.806194
15.190000	-313.270580
15.200000	-312.519111
15.210000	-324.611508
15.220000	-344.247697
15.230000	-367.313773
15.240000	-388.998962
15.250000	-405.041987
15.260000	-415.787162
15.270000	-424.134681
15.280000	-428.587249
15.290000	-428.921341
15.300000	-424.075335
15.310000	-419.415789
15.320000	-414.570955
15.330000	-411.606720
15.340000	-408.745630
15.350000	-406.493353
15.360000	-404.273248
15.370000	-400.065085
15.380000	-394.162767
15.390000	-384.652776
15.400000	-373.417874
15.410000	-361.593382
15.420000	-349.024209
15.430000	-334.218222
15.440000	-317.322752
15.450000	-299.533441
15.460000	-281.306558
15.470000	-260.862942
15.480000	-237.981521
15.490000	-214.217320
15.500000	-191.343538
15.510000	-169.587024
15.520000	-149.057924
15.530000	-129.307667
15.540000	-106.782704
15.550000	-80.387096
15.560000	-54.875370
15.570000	-38.160129
15.580000	-33.974599
15.590000	-39.265678
15.600000	-50.088980
15.610000	-62.054046
15.620000	-71.890260
15.630000	-79.534825
15.640000	-84.707653
15.650000	-88.368831
15.660000	-89.870227
15.670000	-87.549425
15.680000	-81.052210
15.690000	-72.084601
15.700000	-63.252026
15.710000	-55.964966
15.720000	-47.789529
15.730000	-39.201339
15.740000	-30.006315
15.750000	-20.787409
15.760000	-11.903153
15.770000	-2.717854
15.780000	7.185866
15.790000	20.009952
15.800000	35.254376
15.810000	51.388737
15.820000	67.979935
15.830000	84.421308
15.840000	101.363438
15.850000	118.104885
15.860000	135.071651
15.870000	151.440200
15.880000	167.772398
15.890000	184.430589
15.900000	204.135467
15.910000	225.733070
15.920000	246.149552
15.930000	267.372629
15.940000	289.147539
15.950000	313.007375
15.960000	329.439013
15.970000	336.319794
15.980000	333.727449
15.990000	326.636791
16.000000	316.664665
16.010000	305.946756
16.020000	296.593558
16.030000	288.576124
16.040000	282.516384
16.050000	277.861276
16.060000	274.767032
16.070000	275.812483
16.080000	278.663782
16.090000	285.101442
16.100000	291.539097
16.110000	296.723638
16.120000	300.745116
16.130000	303.004471
16.140000	306.287811
16.150000	307.596976
16.160000	310.175386
16.170000	314.844075
16.180000	322.725209
16.190000	329.738477
16.200000	337.953687
16.210000	347.957405
16.220000	362.182669
16.230000	376.487203
16.240000	390.083288
16.250000	402.346700
16.260000	413.315135
16.270000	426.211175
16.280000	438.861877
16.290000	453.417390
16.300000	469.398077
16.310000	486.286992
16.320000	501.592485
16.330000	516.162873
16.340000	533.457973
16.350000	552.691130
16.360000	569.979125
16.370000	580.213651
16.380000	581.172621
16.390000	573.408327
16.400000	559.035059
16.410000	544.947564
16.420000	531.878779
16.430000	519.482147
16.440000	507.721764
16.450000	495.010980
16.460000	487.584837
16.470000	484.184595
16.480000	485.786166
16.490000	487.006281
16.500000	485.327653
16.510000	481.836898
16.520000	476.531926
16.530000	471.004409
16.540000	464.729639
16.550000	460.513722
16.560000	457.583575
16.570000	456.693343
16.580000	455.762563
16.590000	455.881235
16.600000	457.272118
16.610000	459.734294
16.620000	463.783354
16.630000	467.914895
16.640000	473.635992
16.650000	479.754587
16.660000	486.826638
16.670000	494.591944
16.680000	502.015091
16.690000	511.104289
16.700000	519.524936
16.710000	528.626761
16.720000	539.367061
16.730000	553.484752
16.740000	569.199570
16.750000	578.993709
16.760000	578.708032
16.770000	566.843366
16.780000	544.891434
16.790000	516.365294
16.800000	485.744199
16.810000	456.551292
16.820000	429.589504
16.830000	404.066233
16.840000	379.435457
16.850000	359.259068
16.860000	343.605064
16.870000	332.117292
16.880000	320.764431
16.890000	307.313608
16.900000	291.595917
16.910000	273.509855
16.920000	255.768170
16.930000	239.367717
16.940000	224.939035
16.950000	212.222707
16.960000	200.441336
16.970000	190.414894
16.980000	183.611510
16.990000	178.264239
17.000000	175.455501
17.010000	172.769912
17.020000	173.648123
17.030000	175.926018
17.040000	178.175203
17.050000	180.418488
17.060000	182.367079
17.070000	186.250133
17.080000	190.881774
17.090000	198.757358
17.100000	206.044494
17.110000	211.938238
17.120000	219.215661
17.130000	230.116182
17.140000	242.372923
17.150000	244.266567
17.160000	228.875025
17.170000	195.432118
17.180000	147.721139
17.190000	92.604233
17.200000	37.901249
17.210000	-11.567270
17.220000	-53.594612
17.230000	-91.422607
17.240000	-125.752443
17.250000	-155.609034
17.260000	-179.912423
17.270000	-199.804076
17.280000	-221.087799
17.290000	-244.320705
17.300000	-269.597978
17.310000	-294.834156
17.320000	-318.780001
17.330000	-342.022267
17.340000	-362.290528
17.350000	-379.218691
17.360000	-394.142208
17.370000	-406.412872
17.380000	-417.670101
17.390000	-425.265264
17.400000	-429.877175
17.410000	-433.457910
17.420000	-435.414063
17.430000	-437.660966
17.440000	-436.606052
17.450000	-434.884730
17.460000	-432.126758
17.470000	-430.118089
17.480000	-426.640172
17.490000	-421.026111
17.500000	-410.150595
17.510000	-398.291587
17.520000	-383.648128
17.530000	-363.892776
17.540000	-332.805480
17.550000	-287.506996
17.560000	-226.637539
17.570000	-146.127735
17.580000	-34.876348
17.590000	28.627021
17.600000	54.178779
17.610000	43.775171
17.620000	16.275712
17.630000	-18.438588
17.640000	-53.974187
17.650000	-89.337773
17.660000	-122.224417
17.670000	-149.906401
17.680000	-173.823370
17.690000	-199.490170
17.700000	-229.083772
17.710000	-258.727933
17.720000	-286.353090
17.730000	-313.980886
17.740000	-340.952330
17.750000	-365.568263
17.760000	-387.225188
17.770000	-406.161886
17.780000	-419.827641
17.790000	-429.102176
17.800000	-438.443818
17.810000	-447.366095
17.820000	-454.060221
17.830000	-456.299368
17.840000	-456.693718
17.850000	-453.557955
17.860000	-444.662802
17.870000	-434.505398
17.880000	-424.293193
17.890000	-416.794096
17.900000	-410.916579
17.910000	-405.753516
17.920000	-403.552128
17.930000	-404.042807
17.940000	-403.180706
17.950000	-397.670832
17.960000	-389.159473
17.970000	-394.009166
17.980000	-419.783900
17.990000	-459.644368
18.000000	-503.402154
18.010000	-548.637196
18.020000	-601.045582
18.030000	-660.617155
18.040000	-725.687191
18.050000	-786.577747
18.060000	-827.648308
18.070000	-839.223850
18.080000	-819.299522
18.090000	-774.897005
18.100000	-717.632173
18.110000	-665.589967
18.120000	-630.616277
18.130000	-608.239914
18.140000	-591.261228
18.150000	-577.572056
18.160000	-569.586678
18.170000	-566.229219
18.180000	-569.254367
18.190000	-581.222915
18.200000	-601.246756
18.210000	-624.539926
18.220000	-643.565453
18.230000	-656.539778
18.240000	-664.558934
18.250000	-664.862411
18.260000	-653.883403
18.270000	-627.182342
18.280000	-586.557855
18.290000	-537.177525
18.300000	-489.245283
18.310000	-445.150196
18.320000	-409.270267
18.330000	-381.442289
18.340000	-362.630041
18.350000	-346.044581
18.360000	-323.316761
18.370000	-297.007974
18.380000	-276.018427
18.390000	-269.302172
18.400000	-275.355147
18.410000	-288.916281
18.420000	-304.019944
18.430000	-319.205891
18.440000	-334.685572
18.450000	-350.156774
18.460000	-366.015578
18.470000	-380.764690
18.480000	-390.333854
18.490000	-392.372434
18.500000	-387.989839
18.510000	-383.321956
18.520000	-378.958324
18.530000	-376.936278
18.540000	-373.237425
18.550000	-368.222967
18.560000	-359.502391
18.570000	-349.516097
18.580000	-339.089173
18.590000	-328.132715
18.600000	-317.337172
18.610000	-304.065678
18.620000	-289.587790
18.630000	-271.312999
18.640000	-250.841279
18.650000	-226.876795
18.660000	-202.430758
18.670000	-180.096668
18.680000	-156.995492
18.690000	-133.314977
18.700000	-107.879556
18.710000	-83.199543
18.720000	-55.736195
18.730000	-26.752879
18.740000	-2.261181
18.750000	11.371112
18.760000	13.240758
18.770000	10.195250
18.780000	5.411753
18.790000	1.697788
18.800000	-1.078969
18.810000	-4.122651
18.820000	-6.884632
18.830000	-8.929546
18.840000	-8.338756
18.850000	-4.391989
18.860000	-0.121835
18.870000	5.505030
18.880000	11.103684
18.890000	16.754927
18.900000	20.673205
18.910000	23.026259
18.920000	27.268100
18.930000	32.970219
18.940000	39.880381
18.950000	45.926359
18.960000	52.853936
18.970000	62.233079
18.980000	73.840571
18.990000	87.892621
19.000000	102.506665
19.010000	117.910122
19.020000	133.857231
19.030000	150.949328
19.040000	168.223150
19.050000	184.675012
19.060000	201.615619
19.070000	221.424093
19.080000	243.019316
19.090000	260.514306
19.100000	272.456456
19.110000	276.958187
19.120000	277.262814
19.130000	276.423599
19.140000	276.087622
19.150000	276.908853
19.160000	275.591073
19.170000	274.098302
19.180000	274.785598
19.190000	278.975165
19.200000	287.001242
19.210000	295.532708
19.220000	303.915231
19.230000	310.111020
19.240000	315.530169
19.250000	321.380496
19.260000	329.505476
19.270000	339.335537
19.280000	349.504355
19.290000	359.318419
19.300000	368.530683
19.310000	378.665951
19.320000	389.244849
19.330000	402.380837
19.340000	415.306062
19.350000	430.804979
19.360000	445.711821
19.370000	460.600494
19.380000	474.474579
19.390000	487.092937
19.400000	501.942636
19.410000	520.608751
19.420000	543.436079
19.430000	563.466829
19.440000	576.967560
19.450000	582.694451
19.460000	581.534451
19.470000	574.953401
19.480000	567.807237
19.490000	561.900731
19.500000	557.439228
19.510000	551.536669
19.520000	547.452027
19.530000	545.862941
19.540000	547.161624
19.550000	548.544839
19.560000	548.907103
19.570000	547.926925
19.580000	545.350947
19.590000	542.010307
19.600000	537.824075
19.610000	534.463757
19.620000	531.657250
19.630000	530.285888
19.640000	529.183770
19.650000	529.145827
19.660000	529.405208
19.670000	531.377747
19.680000	534.320146
19.690000	537.977212
19.700000	542.937041
19.710000	549.275011
19.720000	555.917284
19.730000	562.274070
19.740000	570.939628
19.750000	582.634759
19.760000	592.981492
19.770000	595.021967
19.780000	586.737270
19.790000	569.117860
19.800000	545.867655
19.810000	521.583426
19.820000	499.026949
19.830000	478.409326
19.840000	458.549814
19.850000	438.937847
19.860000	421.112471
19.870000	406.834517
19.880000	396.371945
19.890000	387.090843
19.900000	376.666598
19.910000	364.385959
19.920000	352.336676
19.930000	340.710295
19.940000	329.707904
19.950000	319.736347
19.960000	310.444892
19.970000	304.137554
19.980000	299.874186
19.990000	297.909945
20.000000	298.337618
20.010000	301.049717
20.020000	305.166875
20.030000	307.885493
20.040000	310.375008
20.050000	312.084514
20.060000	316.963476
20.070000	323.302638
20.080000	328.584371
20.090000	336.238409
20.100000	345.227639
20.110000	353.205220
20.120000	347.878219
20.130000	327.569141
20.140000	294.908575
20.150000	254.640128
20.160000	211.306292
20.170000	168.743739
20.180000	131.072665
20.190000	96.198137
20.200000	64.881385
20.210000	37.352223
20.220000	14.726998
20.230000	-3.129360
20.240000	-20.404108
20.250000	-39.237600
20.260000	-60.497353
20.270000	-82.972458
20.280000	-103.885311
20.290000	-122.679120
20.300000	-138.237459
20.310000	-152.025287
20.320000	-164.887005
20.330000	-175.665079
20.340000	-184.505941
20.350000	-189.932906
20.360000	-193.766444
20.370000	-194.156511
20.380000	-193.337371
20.390000	-193.679712
20.400000	-193.195560
20.410000	-190.838074
20.420000	-183.346924
20.430000	-170.303504
20.440000	-149.459197
20.450000	-123.080612
20.460000	-87.521178
20.470000	-39.157067
20.480000	19.768104
20.490000	70.755873
20.500000	97.764838
20.510000	100.746774
20.520000	88.152280
20.530000	68.438386
20.540000	44.892880
20.550000	18.156747
20.560000	-9.996063
20.570000	-44.108234
20.580000	-79.826571
20.590000	-116.683224
20.600000	-147.604946
20.610000	-175.919463
20.620000	-203.679171
20.630000	-241.478519
20.640000	-292.031109
20.650000	-352.655449
20.660000	-419.011181
20.670000	-483.121747
20.680000	-531.943354
20.690000	-520.466258
20.700000	-457.516954
20.710000	-378.140173
20.720000	-319.089945
20.730000	-284.648926
20.740000	-262.109764
20.750000	-247.146605
20.760000	-238.437045
20.770000	-247.980057
20.780000	-279.373742
20.790000	-330.095826
20.800000	-392.261472
20.810000	-457.843599
20.820000	-516.775960
20.830000	-565.575104
20.840000	-607.608207
20.850000	-646.940761
20.860000	-682.391564
20.870000	-709.930728
20.880000	-726.142018
20.890000	-736.577346
20.900000	-746.189448
20.910000	-761.526899
20.920000	-776.166394
20.930000	-786.783363
20.940000	-792.448237
20.950000	-799.691881
20.960000	-807.006137
20.970000	-812.229981
20.980000	-809.852776
20.990000	-800.415865
21.000000	-783.661604
21.010000	-763.577678
21.020000	-744.101104
21.030000	-726.028214
21.040000	-709.168446
21.050000	-690.768794
21.060000	-672.879253
21.070000	-654.130110
21.080000	-636.562740
21.090000	-619.112719
21.100000	-598.536575
21.110000	-574.064960
21.120000	-551.491105
21.130000	-539.988988
21.140000	-546.401559
21.150000	-566.511454
21.160000	-596.608711
21.170000	-629.987479
21.180000	-660.779763
21.190000	-685.765517
21.200000	-702.246795
21.210000	-715.860795
21.220000	-724.319537
21.230000	-727.589535
21.240000	-724.349132
21.250000	-720.297733
21.260000	-718.330978
21.270000	-719.627608
21.280000	-723.266553
21.290000	-726.578611
21.300000	-728.833143
21.310000	-727.817657
21.320000	-724.700884
21.330000	-718.676222
21.340000	-710.531023
21.350000	-699.822500
21.360000	-685.984985
21.370000	-666.587545
21.380000	-643.073202
21.390000	-617.644679
21.400000	-594.790748
21.410000	-573.643196
21.420000	-548.450689
21.430000	-521.619630
21.440000	-494.730240
21.450000	-467.211734
21.460000	-436.960186
21.470000	-410.782610
21.480000	-398.485690
21.490000	-399.278049
21.500000	-406.281165
21.510000	-416.069343
21.520000	-431.713865
21.530000	-449.126696
21.540000	-462.761291
21.550000	-468.472969
21.560000	-468.444164
21.570000	-463.098812
21.580000	-451.407106
21.590000	-435.684231
21.600000	-417.317546
21.610000	-402.566062
21.620000	-391.159400
21.630000	-384.401213
21.640000	-379.939858
21.650000	-376.520997
21.660000	-373.670386
21.670000	-368.916194
21.680000	-362.355169
21.690000	-352.587448
21.700000	-342.665313
21.710000	-331.526830
21.720000	-320.594671
21.730000	-300.715847
21.740000	-269.153286
21.750000	-235.550124
21.760000	-205.979641
21.770000	-183.653702
21.780000	-161.721801
21.790000	-142.057633
21.800000	-122.729514
21.810000	-99.731484
21.820000	-73.691849
21.830000	-50.695159
21.840000	-34.589157
21.850000	-22.915573
21.860000	-8.747861
21.870000	5.231010
21.880000	15.819125
21.890000	20.440149
21.900000	21.460917
21.910000	25.054697
21.920000	30.144808
21.930000	38.740123
21.940000	46.875084
21.950000	57.841999
21.960000	75.670959
21.970000	103.338278
21.980000	135.174106
21.990000	163.894867
22.000000	185.752094
22.010000	201.195170
22.020000	212.400729
22.030000	221.227556
22.040000	230.451891
22.050000	241.322804
22.060000	255.571817
22.070000	272.479138
22.080000	294.100896
22.090000	315.685346
22.100000	333.368028
22.110000	344.965493
22.120000	357.062267
22.130000	372.639138
22.140000	390.816333
22.150000	404.366142
22.160000	414.330937
22.170000	423.837053
22.180000	428.563628
22.190000	424.046467
22.200000	402.860769
22.210000	382.396971
22.220000	369.869909
22.230000	367.473975
22.240000	358.233696
22.250000	340.333591
22.260000	329.720915
22.270000	334.580199
22.280000	345.234388
22.290000	342.208875
22.300000	338.579904
22.310000	348.249452
22.320000	370.963164
22.330000	385.643117
22.340000	385.128583
22.350000	384.174562
22.360000	394.028940
22.370000	408.736974
22.380000	416.658875
22.390000	417.743384
22.400000	421.728172
22.410000	433.148283
22.420000	446.850605
22.430000	457.633091
22.440000	465.400738
22.450000	472.204426
22.460000	482.037127
22.470000	494.845858
22.480000	506.410230
22.490000	519.588506
22.500000	536.530105
22.510000	557.073800
22.520000	570.704140
22.530000	577.003028
22.540000	577.967941
22.550000	576.016804
22.560000	569.637931
22.570000	561.124934
22.580000	556.736300
22.590000	555.631301
22.600000	557.587678
22.610000	561.219356
22.620000	566.862241
22.630000	573.890122
22.640000	581.555387
22.650000	586.305661
22.660000	590.684641
22.670000	594.466510
22.680000	599.907176
22.690000	606.707017
22.700000	615.552638
22.710000	626.700096
22.720000	637.611047
22.730000	647.786261
22.740000	656.422965
22.750000	663.629459
22.760000	668.988156
22.770000	675.570471
22.780000	685.973783
22.790000	701.596768
22.800000	717.363708
22.810000	730.718896
22.820000	745.192750
22.830000	763.260682
22.840000	779.422593
22.850000	784.882935
22.860000	778.429590
22.870000	762.939548
22.880000	742.195668
22.890000	721.423508
22.900000	703.044216
22.910000	689.330684
22.920000	679.307578
22.930000	672.663527
22.940000	669.328885
22.950000	670.423685
22.960000	674.433765
22.970000	680.610176
22.980000	684.285535
22.990000	688.241529
23.000000	689.880343
23.010000	687.299345
23.020000	682.911629
23.030000	678.446640
23.040000	674.364178
23.050000	666.004681
23.060000	653.588323
23.070000	639.660684
23.080000	628.909972
23.090000	622.732640
23.100000	622.991265
23.110000	627.552014
23.120000	630.487228
23.130000	630.141571
23.140000	631.092110
23.150000	637.154188
23.160000	640.757553
23.170000	633.255689
23.180000	610.527271
23.190000	579.479327
23.200000	542.041828
23.210000	508.150123
23.220000	478.288922
23.230000	457.926418
23.240000	438.589521
23.250000	423.493259
23.260000	405.620436
23.270000	394.530690
23.280000	382.696118
23.290000	340.422874
23.300000	286.853015
23.310000	247.345183
23.320000	247.881744
23.330000	254.665080
23.340000	259.221836
23.350000	264.440957
23.360000	270.312028
23.370000	279.649275
23.380000	280.452834
23.390000	264.960486
23.400000	230.699369
23.410000	187.396353
23.420000	138.352685
23.430000	91.937179
23.440000	50.413550
23.450000	19.578635
23.460000	-5.464088
23.470000	-24.341292
23.480000	-39.258057
23.490000	-47.490323
23.500000	-54.985209
23.510000	-63.871625
23.520000	-76.622789
23.530000	-90.147183
23.540000	-103.174970
23.550000	-115.334864
23.560000	-125.969409
23.570000	-133.429588
23.580000	-139.349353
23.590000	-144.765881
23.600000	-149.636258
23.610000	-152.006906
23.620000	-148.830191
23.630000	-141.503557
23.640000	-132.938414
23.650000	-124.907260
23.660000	-116.616485
23.670000	-106.552596
23.680000	-96.213148
23.690000	-85.102825
23.700000	-70.046195
23.710000	-53.579198
23.720000	-47.147548
23.730000	-60.962725
23.740000	-94.128981
23.750000	-137.233488
23.760000	-180.353017
23.770000	-217.425570
23.780000	-246.499094
23.790000	-268.536450
23.800000	-286.227412
23.810000	-299.216501
23.820000	-305.863104
23.830000	-306.813769
23.840000	-306.085687
23.850000	-306.652502
23.860000	-310.550052
23.870000	-315.724385
23.880000	-320.927705
23.890000	-324.372549
23.900000	-322.545066
23.910000	-314.271608
23.920000	-299.409743
23.930000	-281.759324
23.940000	-263.848769
23.950000	-244.815579
23.960000	-222.528839
23.970000	-197.456841
23.980000	-171.457264
23.990000	-147.345276
24.000000	-125.289633
24.010000	-101.133042
24.020000	-77.384860
24.030000	-53.824525
24.040000	-29.054736
24.050000	-0.089524
24.060000	28.677241
24.070000	45.714666
24.080000	46.851559
24.090000	34.626078
24.100000	15.792920
24.110000	-1.703780
24.120000	-14.522896
24.130000	-21.283556
24.140000	-23.758574
24.150000	-23.440427
24.160000	-21.237179
24.170000	-13.830220
24.180000	-4.311252
24.190000	2.036744
