2025-07-21 16:20:30    绿光---红外光---红光---X轴---Y轴---Z轴
55467 240228 263050 -9517 12777 -2012
55467 240257 263077 -9518 12800 -1996
55475 240291 263091 -9522 12810 -1993
55463 240259 263024 -9485 12789 -2019
55467 240293 263039 -9456 12771 -2047
55480 240328 263103 -9514 12787 -2019
55475 240225 263014 -9552 12811 -2001
55440 240022 262824 -9530 12791 -2024
55394 239877 262746 -9499 12764 -2034
55345 239813 262755 -9479 12766 -2037
55286 239790 262760 -9517 12777 -2012
55224 239761 262756 -9518 12800 -1996
55170 239765 262760 -9522 12810 -1993
55120 239760 262743 -9485 12789 -2019
55081 239767 262768 -9456 12771 -2047
55043 239786 262801 -9514 12787 -2019
55001 239762 262761 -9552 12811 -2001
54967 239755 262755 -9530 12791 -2024
54939 239787 262795 -9499 12764 -2034
54913 239762 262771 -9479 12766 -2037
54885 239733 262732 -9487 12818 -2000
54848 239700 262707 -9463 12811 -2029
54818 239692 262706 -9450 12801 -2045
54788 239683 262697 -9466 12799 -2043
54761 239698 262707 -9498 12806 -2031
54735 239689 262709 -9517 12809 -2032
54718 239710 262723 -9506 12797 -2050
54703 239733 262739 -9514 12795 -2018
54686 239750 262740 -9526 12792 -1987
54672 239761 262746 -9528 12798 -2002
54659 239774 262738 -9513 12807 -2027
54655 239798 262757 -9484 12803 -2042
54653 239825 262785 -9482 12789 -2033
54648 239844 262792 -9502 12768 -2017
54647 239850 262794 -9528 12767 -1999
54646 239883 262805 -9536 12770 -1994
54649 239906 262815 -9524 12768 -2003
54652 239927 262832 -9518 12759 -2003
54655 239953 262839 -9526 12748 -1998
54662 239978 262852 -9522 12736 -1991
54666 240007 262871 -9525 12741 -1982
54672 240020 262878 -9518 12757 -1996
54677 240026 262862 -9501 12765 -2008
54682 240038 262854 -9497 12766 -2009
54691 240085 262899 -9494 12771 -2018
54703 240101 262897 -9501 12782 -2020
54707 240094 262848 -9501 12781 -2024
54727 240137 262898 -9506 12765 -2035
54750 240161 262948 -9525 12766 -2034
54744 239997 262799 -9534 12775 -2034
54709 239782 262623 -9541 12805 -2030
54664 239671 262559 -9536 12819 -2023
54612 239609 262561 -9510 12787 -2028
54554 239581 262562 -9492 12764 -2038
54505 239583 262586 -9496 12770 -2037
54463 239593 262606 -9487 12773 -2043
54424 239611 262617 -9449 12768 -2079
54394 239631 262641 -9463 12787 -2088
54369 239616 262628 -9547 12817 -2038
54338 239592 262591 -9584 12814 -2007
54322 239598 262600 -9525 12796 -2042
54309 239610 262602 -9482 12770 -2029
54294 239577 262572 -9464 12770 -2023
54268 239529 262515 -9462 12780 -2035
54244 239498 262487 -9449 12786 -2052
54227 239480 262460 -9449 12795 -2060
54207 239467 262461 -9482 12802 -2053
54190 239457 262450 -9518 12798 -2042
54177 239460 262442 -9538 12776 -2044
54170 239474 262446 -9571 12771 -2053
54166 239493 262463 -9579 12787 -2063
54170 239522 262476 -9565 12773 -2067
54170 239536 262485 -9550 12754 -2077
54173 239561 262488 -9552 12746 -2077
54181 239589 262527 -9572 12739 -2071
54194 239649 262587 -9591 12735 -2064
54202 239690 262619 -9596 12726 -2060
54218 239727 262640 -9588 12708 -2063
54231 239741 262653 -9586 12706 -2034
54239 239760 262653 -9595 12720 -1992
54255 239783 262659 -9597 12726 -1982
54268 239806 262676 -9574 12712 -2000
54284 239830 262688 -9539 12704 -2023
54302 239858 262705 -9534 12719 -2034
54320 239904 262749 -9541 12736 -2029
54342 239965 262809 -9551 12749 -2034
54354 239973 262782 -9577 12757 -2043
54369 239972 262749 -9581 12757 -2048
54402 240065 262862 -9563 12762 -2059
54428 240086 262904 -9565 12769 -2066
54436 239942 262775 -9571 12765 -2074
54426 239777 262652 -9563 12756 -2092
54408 239679 262624 -9555 12741 -2095
54381 239629 262623 -9579 12732 -2066
54355 239616 262629 -9601 12735 -2043
54335 239637 262665 -9563 12723 -2063
54322 239673 262711 -9533 12709 -2105
54308 239701 262737 -9591 12733 -2096
54302 239729 262784 -9663 12773 -2059
54297 239732 262762 -9637 12789 -2080
54296 239735 262755 -9574 12776 -2110
54302 239796 262816 -9547 12748 -2095
54310 239811 262824 -9538 12737 -2060
54316 239801 262815 -9526 12737 -2054
54324 239796 262822 -9523 12749 -2078
54328 239789 262823 -9528 12766 -2089
54332 239791 262815 -9540 12765 -2086
54338 239799 262833 -9565 12752 -2082
54344 239820 262849 -9566 12733 -2097
54352 239846 262864 -9580 12711 -2093
54365 239869 262892 -9615 12726 -2064
54381 239893 262915 -9634 12724 -2049
54396 239927 262935 -9641 12736 -2060
54410 239963 262950 -9645 12744 -2065
54428 239992 262964 -9657 12727 -2051
54449 240022 262989 -9659 12708 -2044
54474 240063 263032 -9659 12702 -2033
54495 240114 263062 -9658 12700 -2038
54521 240148 263082 -9669 12697 -2040
54547 240182 263101 -9666 12708 -2030
54572 240213 263123 -9649 12708 -2031
54595 240234 263135 -9638 12691 -2025
54619 240257 263130 -9630 12683 -2026
54644 240278 263139 -9619 12682 -2031
54677 240340 263194 -9610 12684 -2041
54702 240353 263183 -9620 12701 -2046
54719 240343 263136 -9626 12720 -2046
54754 240403 263181 -9620 12722 -2054
54794 240437 263243 -9623 12718 -2043
54813 240310 263132 -9622 12733 -2041
54817 240131 262979 -9604 12727 -2057
54818 240023 262928 -9585 12706 -2067
54818 239973 262943 -9601 12709 -2069
54809 239947 262942 -9629 12717 -2053
54802 239948 262962 -9606 12707 -2067
54794 239978 262985 -9581 12678 -2099
54791 239990 263001 -9623 12674 -2087
54788 239992 263005 -9692 12701 -2048
54791 240013 263019 -9700 12715 -2045
54785 239986 262968 -9658 12708 -2072
54794 239988 262966 -9619 12714 -2082
54805 240019 263018 -9589 12721 -2065
54809 239985 262947 -9569 12720 -2046
54811 239938 262880 -9548 12721 -2054
54813 239915 262856 -9544 12738 -2074
54821 239906 262850 -9555 12751 -2096
54831 239914 262873 -9560 12760 -2103
54836 239943 262904 -9583 12752 -2088
54847 239965 262919 -9598 12722 -2084
54855 239996 262953 -9604 12728 -2094
54868 240036 262981 -9632 12746 -2078
54883 240079 263018 -9645 12731 -2064
54902 240112 263044 -9630 12709 -2067
54916 240130 263045 -9613 12694 -2072
54935 240153 263060 -9606 12688 -2069
54958 240200 263096 -9608 12684 -2060
54979 240235 263123 -9616 12691 -2051
54995 240258 263135 -9618 12703 -2051
55018 240292 263155 -9624 12702 -2058
55040 240339 263181 -9635 12720 -2031
55066 240356 263203 -9638 12721 -2012
55087 240373 263199 -9620 12708 -1994
55107 240386 263180 -9605 12694 -2000
55130 240407 263190 -9600 12697 -2019
55157 240437 263204 -9588 12699 -2014
55182 240499 263258 -9586 12698 -2027
55209 240540 263284 -9605 12704 -2036
55227 240537 263245 -9617 12715 -2034
55261 240592 263314 -9623 12735 -2041
55297 240624 263375 -9643 12742 -2026
55311 240475 263259 -9660 12730 -2024
55311 240291 263111 -9651 12711 -2046
55313 240190 263071 -9638 12694 -2062
55313 240167 263107 -9643 12698 -2050
55312 240156 263119 -9635 12720 -2035
55308 240149 263134 -9587 12706 -2055
55303 240179 263162 -9567 12691 -2092
55300 240196 263179 -9623 12721 -2088
55301 240209 263206 -9678 12754 -2042
55302 240219 263217 -9665 12746 -2024
55298 240191 263174 -9629 12716 -2045
55297 240190 263166 -9616 12708 -2047
55310 240251 263226 -9610 12709 -2039
55320 240266 263243 -9588 12721 -2044
55319 240238 263213 -9561 12745 -2062
55324 240210 263188 -9547 12751 -2077
55330 240226 263200 -9551 12754 -2079
55333 240232 263231 -9583 12759 -2079
55340 240254 263224 -9619 12744 -2072
55344 240266 263227 -9636 12687 -2076
55352 240284 263253 -9668 12696 -2064
55364 240304 263269 -9688 12710 -2055
55372 240341 263301 -9667 12706 -2065
55388 240379 263334 -9639 12700 -2086
55399 240401 263347 -9632 12693 -2102
55414 240414 263344 -9650 12699 -2097
55423 240432 263351 -9674 12702 -2084
55442 240468 263374 -9686 12686 -2074
55456 240483 263381 -9690 12687 -2036
55470 240508 263381 -9686 12689 -2033
55486 240522 263390 -9663 12692 -2040
55499 240549 263398 -9650 12696 -2028
55517 240572 263427 -9645 12713 -2024
55535 240594 263442 -9626 12720 -2050
55553 240611 263437 -9617 12710 -2059
55566 240619 263422 -9641 12697 -2053
55584 240659 263453 -9674 12684 -2054
55599 240686 263470 -9698 12692 -2048
55611 240677 263421 -9702 12709 -2043
55628 240698 263434 -9699 12706 -2051
55657 240738 263492 -9697 12692 -2056
55669 240618 263401 -9687 12687 -2065
55665 240427 263230 -9657 12686 -2073
55657 240275 263118 -9641 12689 -2083
55653 240231 263129 -9648 12701 -2081
55649 240215 263144 -9633 12692 -2085
55642 240218 263145 -9615 12678 -2110
55634 240235 263174 -9653 12702 -2091
55633 240250 263180 -9718 12737 -2025
55631 240266 263212 -9733 12738 -2019
55623 240268 263220 -9687 12710 -2059
55615 240238 263175 -9647 12680 -2058
55613 240235 263169 -9639 12671 -2030
55610 240262 263189 -9615 12683 -2032
55609 240268 263195 -9578 12699 -2065
55600 240230 263147 -9567 12719 -2091
55596 240203 263115 -9583 12735 -2103
55592 240210 263122 -9624 12744 -2103
55590 240214 263129 -9648 12757 -2084
55590 240214 263128 -9647 12746 -2075
55587 240212 263119 -9656 12718 -2093
55588 240209 263115 -9679 12706 -2073
55585 240232 263116 -9691 12697 -2034
55583 240240 263101 -9663 12693 -2029
55584 240253 263110 -9629 12681 -2022
55586 240257 263101 -9629 12670 -2003
55595 240268 263108 -9651 12684 -1996
55603 240295 263123 -9666 12691 -2000
55618 240330 263140 -9670 12676 -1975
55629 240362 263165 -9676 12671 -1980
55643 240384 263176 -9672 12679 -1991
55657 240405 263196 -9669 12677 -1993
55670 240446 263225 -9665 12678 -2000
55687 240476 263258 -9649 12679 -2007
55697 240496 263262 -9625 12683 -2024
55706 240516 263271 -9628 12699 -2038
55720 240531 263279 -9645 12699 -2044
55730 240542 263275 -9667 12714 -2072
55745 240586 263289 -9681 12714 -2077
55763 240636 263339 -9701 12725 -2087
55776 240647 263322 -9721 12719 -2074
55788 240651 263296 -9726 12701 -2048
55814 240701 263382 -9701 12691 -2050
55831 240681 263374 -9653 12675 -2058
55828 240489 263202 -9632 12663 -2049
55816 240315 263057 -9622 12671 -2034
55804 240234 263036 -9599 12682 -2019
55790 240216 263046 -9562 12682 -2036
55772 240211 263055 -9575 12683 -2070
55755 240223 263065 -9675 12708 -2056
55743 240233 263062 -9728 12728 -2042
55731 240244 263094 -9694 12710 -2065
55724 240275 263111 -9657 12704 -2075
55716 240256 263102 -9627 12725 -2054
55705 240254 263086 -9604 12739 -2030
55704 240291 263129 -9579 12748 -2045
55706 240330 263177 -9562 12752 -2067
55698 240298 263130 -9577 12751 -2082
55691 240270 263101 -9616 12749 -2099
55685 240272 263110 -9664 12738 -2083
55678 240279 263109 -9674 12707 -2085
55673 240279 263113 -9662 12683 -2115
55668 240293 263112 -9684 12690 -2096
55666 240304 263115 -9711 12701 -2062
55667 240319 263136 -9688 12697 -2073
55664 240338 263136 -9649 12690 -2093
55661 240341 263126 -9648 12686 -2083
55660 240344 263126 -9670 12699 -2036
55660 240356 263127 -9683 12692 -2058
55663 240367 263121 -9691 12688 -2063
55666 240383 263131 -9710 12691 -2044
55671 240405 263138 -9719 12695 -2017
55675 240414 263126 -9700 12692 -2001
55681 240434 263139 -9686 12683 -2001
55687 240457 263149 -9686 12662 -2000
55696 240467 263164 -9681 12646 -2008
55701 240486 263161 -9656 12673 -2013
55711 240513 263177 -9653 12686 -2048
55719 240543 263188 -9675 12685 -2056
55729 240560 263201 -9702 12677 -2045
55738 240572 263212 -9715 12683 -2047
55748 240596 263218 -9708 12688 -2068
55763 240651 263274 -9694 12678 -2079
55773 240665 263257 -9695 12679 -2063
55783 240660 263221 -9693 12687 -2051
55801 240702 263270 -9669 12686 -2035
55817 240693 263280 -9672 12694 -2025
55816 240531 263138 -9671 12698 -2031
55793 240347 262961 -9640 12681 -2077
55771 240241 262902 -9662 12687 -2113
55745 240217 262930 -9757 12706 -2077
55721 240214 262936 -9811 12707 -2038
55692 240211 262949 -9778 12690 -2045
55667 240206 262931 -9706 12677 -2060
55644 240214 262941 -9670 12685 -2048
55624 240222 262979 -9670 12706 -2017
55602 240226 262961 -9654 12717 -2015
55578 240197 262933 -9630 12711 -2049
55566 240227 262949 -9627 12694 -2078
55554 240255 262985 -9650 12689 -2068
55536 240219 262950 -9685 12696 -2037
55515 240167 262885 -9703 12685 -2026
55490 240155 262872 -9699 12682 -2057
55470 240143 262866 -9709 12703 -2075
55453 240155 262873 -9730 12706 -2067
55438 240149 262876 -9701 12668 -2057
55425 240165 262882 -9724 12652 -2044
55408 240175 262880 -9739 12656 -2045
55399 240172 262880 -9748 12675 -2033
55390 240195 262896 -9768 12677 -2015
55386 240206 262906 -9777 12670 -2011
55374 240222 262903 -9775 12669 -2011
55373 240249 262922 -9767 12660 -2012
55369 240274 262937 -9732 12649 -2016
55369 240295 262948 -9668 12647 -2000
55366 240302 262943 -9679 12659 -2006
55365 240310 262944 -9681 12681 -2024
55366 240329 262953 -9677 12693 -2044
55366 240342 262944 -9690 12690 -2051
55363 240330 262923 -9703 12681 -2056
55365 240338 262915 -9707 12689 -2055
55362 240358 262939 -9707 12694 -2054
55367 240376 262934 -9711 12671 -2069
55370 240379 262914 -9690 12673 -2061
55373 240399 262924 -9676 12691 -2067
55379 240443 262973 -9666 12698 -2074
55385 240441 262940 -9681 12689 -2078
55384 240428 262898 -9708 12695 -2074
55404 240485 262969 -9706 12698 -2076
55418 240494 262997 -9651 12673 -2112
55412 240344 262857 -9655 12660 -2126
55383 240164 262713 -9763 12677 -2091
55346 240064 262646 -9808 12702 -2064
55300 240005 262623 -9759 12706 -2086
55253 239982 262627 -9707 12692 -2097
55212 239974 262621 -9681 12671 -2078
55171 239986 262643 -9681 12656 -2067
55136 239983 262632 -9669 12664 -2061
55107 239988 262659 -9641 12684 -2061
55077 239983 262642 -9628 12687 -2080
55042 239968 262627 -9663 12678 -2090
55026 240005 262656 -9699 12681 -2077
55009 240038 262701 -9690 12679 -2076
54988 240003 262668 -9685 12677 -2084
54966 239979 262652 -9724 12689 -2073
54935 239968 262648 -9760 12693 -2073
54911 239957 262640 -9764 12690 -2099
54885 239947 262633 -9752 12694 -2116
54861 239958 262638 -9749 12691 -2091
54842 239962 262647 -9756 12685 -2074
54824 239979 262656 -9743 12668 -2088
54809 239994 262661 -9742 12653 -2084
54798 240003 262669 -9741 12654 -2071
54786 240010 262668 -9724 12653 -2083
54780 240024 262671 -9724 12659 -2073
54772 240038 262674 -9708 12654 -2065
54769 240052 262675 -9679 12665 -2047
54768 240099 262723 -9645 12677 -2044
54768 240128 262748 -9637 12675 -2050
54767 240125 262732 -9661 12693 -2032
54770 240149 262743 -9665 12714 -2016
54768 240174 262773 -9624 12709 -2055
54774 240201 262794 -9650 12779 -2072
54774 240210 262778 -9654 12786 -2100
54779 240199 262752 -9670 12749 -2113
54781 240216 262759 -9689 12712 -2114
54787 240240 262778 -9731 12692 -2109
54784 240222 262716 -9769 12674 -2081
54788 240228 262715 -9753 12647 -2077
54802 240261 262750 -9763 12624 -2086
54807 240221 262731 -9853 12625 -2068
54796 240088 262610 -9902 12658 -2022
54756 239942 262479 -9853 12689 -1971
54704 239803 262381 -9800 12688 -1960
54648 239729 262350 -9758 12669 -1968
54596 239712 262355 -9720 12658 -1961
54554 239728 262379 -9683 12671 -1959
54513 239716 262367 -9647 12700 -1974
54479 239706 262360 -9612 12712 -1994
54453 239727 262395 -9594 12695 -2011
54425 239712 262389 -9624 12676 -2012
54403 239712 262365 -9644 12670 -2010
54391 239748 262416 -9630 12679 -2041
54381 239778 262471 -9621 12706 -2079
54362 239760 262433 -9644 12737 -2093
54343 239728 262406 -9681 12730 -2095
54326 239723 262403 -9712 12704 -2094
54308 239710 262396 -9727 12700 -2083
54294 239716 262425 -9723 12697 -2081
54282 239744 262446 -9713 12693 -2076
54275 239769 262473 -9702 12697 -2054
54270 239793 262505 -9693 12701 -2029
54270 239817 262522 -9657 12719 -2003
54271 239840 262539 -9630 12715 -2011
54276 239871 262573 -9625 12715 -2012
54282 239888 262588 -9630 12715 -2014
54291 239911 262598 -9645 12709 -2014
54300 239930 262599 -9656 12702 -2003
54312 239971 262633 -9643 12690 -2006
54323 239998 262668 -9648 12680 -2009
54337 240028 262700 -9677 12686 -2010
54354 240060 262724 -9693 12695 -1980
54372 240095 262754 -9697 12704 -1982
54389 240127 262772 -9682 12721 -1974
54406 240151 262796 -9654 12723 -1970
54427 240159 262796 -9648 12719 -1947
54443 240180 262813 -9640 12710 -1945
54463 240218 262833 -9645 12698 -1971
54492 240278 262896 -9692 12694 -1986
54513 240295 262886 -9713 12681 -2000
54531 240306 262875 -9767 12656 -2009
54563 240369 262951 -9881 12675 -1956
54592 240340 262952 -9916 12664 -1931
54588 240169 262786 -9855 12639 -1944
54563 239987 262648 -9792 12644 -1945
54535 239917 262625 -9757 12665 -1923
54505 239902 262675 -9722 12679 -1915
54472 239893 262687 -9690 12673 -1922
54444 239885 262691 -9676 12663 -1931
54419 239893 262702 -9665 12671 -1936
54404 239916 262748 -9679 12716 -1927
54392 239938 262784 -9722 12732 -1925
54381 239932 262788 -9739 12703 -1936
54358 239890 262738 -9727 12686 -1959
54351 239912 262766 -9758 12690 -1955
54360 239970 262855 -9800 12704 -1923
54353 239971 262853 -9783 12703 -1930
54344 239933 262800 -9744 12678 -1949
54336 239913 262776 -9725 12666 -1944
54335 239922 262804 -9730 12680 -1935
54335 239949 262845 -9725 12687 -1905
54337 239968 262864 -9733 12680 -1885
54339 239978 262869 -9747 12664 -1908
54342 240004 262897 -9741 12666 -1935
54357 240045 262941 -9739 12684 -1949
54368 240080 262966 -9738 12694 -1946
54379 240093 262982 -9738 12695 -1935
54392 240126 262997 -9727 12687 -1929
54407 240132 263002 -9713 12682 -1933
54424 240137 262991 -9705 12696 -1943
54438 240167 263014 -9699 12700 -1939
54458 240196 263044 -9709 12680 -1938
54473 240219 263045 -9745 12657 -1955
54492 240253 263077 -9783 12637 -1973
54517 240297 263127 -9809 12624 -1982
54544 240348 263179 -9840 12631 -1989
54572 240419 263249 -9864 12643 -1984
54600 240460 263292 -9860 12651 -1972
54626 240504 263341 -9838 12656 -1968
54651 240534 263362 -9804 12647 -1979
54680 240586 263405 -9800 12645 -1955
54722 240672 263501 -9794 12642 -1974
54754 240726 263546 -9764 12632 -2007
54787 240767 263566 -9805 12635 -2004
54829 240825 263634 -9887 12657 -1983
54868 240832 263671 -9904 12675 -1980
54882 240713 263585 -9856 12658 -1997
54879 240554 263464 -9819 12637 -1991
54868 240464 263420 -9803 12638 -1951
54861 240445 263446 -9762 12654 -1936
54848 240449 263464 -9703 12671 -1949
54838 240442 263474 -9675 12668 -1968
54826 240436 263470 -9685 12664 -1963
54818 240439 263488 -9708 12684 -1955
54816 240459 263504 -9733 12713 -1960
54807 240439 263506 -9738 12715 -1955
54796 240412 263468 -9730 12691 -1973
54798 240431 263489 -9747 12677 -1976
54805 240489 263564 -9767 12685 -1954
54810 240492 263570 -9762 12688 -1956
54810 240476 263547 -9738 12672 -1954
54812 240469 263534 -9740 12660 -1948
54816 240468 263538 -9771 12655 -1957
54824 240483 263562 -9812 12651 -1964
54830 240495 263590 -9824 12657 -1978
54837 240516 263588 -9808 12658 -1986
54844 240536 263611 -9820 12663 -1958
54858 240559 263623 -9823 12667 -1935
54863 240584 263644 -9796 12659 -1945
54878 240592 263647 -9773 12655 -1949
54891 240605 263653 -9738 12672 -1954
54904 240636 263670 -9740 12660 -1948
54924 240660 263695 -9771 12655 -1957
54940 240681 263713 -9812 12651 -1964
54960 240714 263727 -9824 12657 -1978
54978 240730 263724 -9808 12658 -1986
54999 240756 263744 -9820 12663 -1958
55016 240774 263757 -9823 12667 -1935
55035 240786 263759 -9796 12659 -1945
55050 240796 263759 -9773 12655 -1949
55071 240825 263771 -9766 12647 -1926
55092 240850 263788 -9777 12646 -1919
55113 240871 263798 -9791 12642 -1931
55133 240885 263789 -9817 12639 -1931
55161 240943 263847 -9834 12631 -1944
55187 240986 263873 -9843 12623 -1966
55202 240987 263834 -9860 12633 -1967
55227 240995 263832 -9864 12640 -1959
55250 241009 263838 -9876 12628 -1968
55265 240919 263769 -9879 12630 -1965
55263 240736 263609 -9859 12638 -1964
55253 240589 263509 -9848 12632 -1977
55246 240552 263507 -9838 12614 -1975
55239 240543 263534 -9846 12616 -1974
55226 240525 263524 -9843 12635 -1987
55213 240522 263516 -9798 12640 -2009
55207 240526 263521 -9792 12635 -2024
55199 240524 263522 -9863 12640 -2001
55187 240508 263515 -9925 12637 -1966
55181 240498 263496 -9870 12605 -1959
55181 240518 263536 -9829 12619 -1971
55190 240601 263644 -9807 12632 -1975
55214 240715 263792 -9776 12641 -1986
55227 240770 263855 -9752 12647 -1991
55230 240747 263829 -9733 12660 -2004
55227 240701 263771 -9734 12665 -2013
55228 240671 263734 -9779 12659 -2003
55233 240674 263727 -9829 12650 -1992
55232 240645 263681 -9847 12636 -1992
55233 240647 263673 -9831 12650 -2011
55249 240714 263769 -9845 12671 -2000
55273 240822 263912 -9864 12666 -1982
55301 240943 264060 -9824 12656 -1985
55331 241063 264217 -9766 12653 -1982
55355 241133 264295 -9731 12654 -1966
55373 241154 264300 -9752 12657 -1942
55348 240962 264004 -9770 12648 -1933
55330 240803 263785 -9786 12632 -1948
55351 240829 263798 -9822 12625 -1992
55375 240901 263888 -9834 12612 -1994
55409 240999 264013 -9875 12607 -2008
55425 241030 264020 -9923 12610 -1998
55445 241066 264064 -9918 12610 -1987
55465 241127 264131 -9887 12626 -1991
55484 241163 264176 -9884 12628 -2011
55493 241174 264180 -9889 12607 -2028
55506 241167 264147 -9884 12601 -2036
55519 241183 264170 -9891 12591 -2034
55533 241227 264193 -9875 12580 -2019
55550 241258 264223 -9878 12586 -2040
55567 241294 264233 -9926 12586 -2047
55580 241284 264193 -9954 12586 -2049
55602 241317 264224 -9948 12597 -2067
55626 241330 264248 -9924 12599 -2065
55639 241225 264170 -9907 12599 -2047
55631 241061 264029 -9904 12589 -2033
55622 240949 263955 -9909 12585 -2030
55613 240913 263949 -9910 12585 -2028
55604 240909 263965 -9889 12567 -2047
55596 240939 264002 -9856 12559 -2064
55596 240962 264051 -9878 12596 -2062
55598 241011 264102 -9942 12643 -2045
55602 241059 264171 -9965 12640 -2020
55601 241069 264189 -9946 12609 -2034
55600 241060 264179 -9906 12598 -2040
55594 241068 264180 -9868 12601 -2029
55599 241121 264233 -9832 12611 -2038
55603 241126 264265 -9799 12625 -2051
55598 241101 264211 -9776 12632 -2047
55589 241057 264162 -9761 12634 -2041
55588 241049 264146 -9801 12643 -2046
55591 241064 264166 -9866 12652 -2043
55588 241074 264170 -9882 12642 -2050
55588 241063 264152 -9854 12629 -2054
55586 241069 264141 -9842 12631 -2044
55590 241091 264168 -9842 12643 -2022
55592 241096 264161 -9820 12653 -2016
55596 241102 264141 -9797 12635 -2018
55598 241095 264116 -9800 12628 -1961
55606 241107 264117 -9834 12636 -1963
55616 241154 264151 -9856 12637 -1974
55627 241165 264164 -9849 12642 -1994
55637 241182 264167 -9849 12646 -2011
55650 241205 264165 -9848 12650 -2005
55666 241233 264175 -9840 12648 -1988
55677 241254 264197 -9835 12639 -1975
55693 241279 264212 -9809 12624 -1980
55706 241301 264223 -9784 12621 -1972
55722 241320 264233 -9781 12626 -1971
55738 241328 264220 -9805 12641 -1979
55752 241337 264214 -9832 12644 -1989
55765 241356 264221 -9850 12651 -1998
55784 241374 264229 -9854 12662 -1997
55804 241430 264261 -9872 12662 -1990
55828 241480 264309 -9883 12662 -1995
55840 241479 264264 -9872 12652 -1999
55859 241496 264266 -9842 12645 -1993
55886 241540 264319 -9808 12636 -1974
55905 241478 264266 -9803 12624 -1957
55899 241309 264111 -9813 12619 -1965
55892 241181 264001 -9836 12625 -1964
55883 241109 263984 -9855 12637 -1963
55875 241100 263997 -9816 12636 -1988
55867 241108 264010 -9802 12630 -2003
55857 241116 264014 -9885 12645 -1965
55852 241131 264028 -9945 12659 -1929
55853 241147 264055 -9911 12651 -1954
55853 241172 264097 -9843 12658 -1971
55850 241151 264062 -9806 12667 -1956
55842 241149 264032 -9791 12658 -1950
55853 241201 264095 -9778 12657 -1968
55858 241217 264119 -9754 12650 -1994
55857 241204 264101 -9741 12636 -2008
55856 241185 264061 -9770 12643 -2015
55857 241178 264061 -9815 12667 -2006
55859 241192 264084 -9814 12668 -2008
55861 241196 264088 -9796 12647 -2035
55864 241207 264088 -9813 12649 -2029
55870 241235 264119 -9845 12659 -1993
55874 241263 264139 -9862 12657 -1990
55884 241298 264173 -9850 12650 -2011
55892 241326 264186 -9846 12640 -2022
55900 241335 264185 -9866 12634 -2022
55906 241363 264183 -9878 12623 -2011
55917 241389 264215 -9876 12616 -2011
55928 241411 264223 -9891 12613 -2007
55938 241427 264228 -9910 12608 -2008
55956 241469 264266 -9873 12616 -2020
55966 241487 264285 -9858 12633 -2030
55976 241492 264255 -9861 12629 -2035
55989 241519 264279 -9854 12609 -2048
56003 241551 264301 -9864 12599 -2037
56018 241573 264310 -9880 12602 -2034
56030 241603 264325 -9883 12602 -2051
56049 241627 264350 -9880 12603 -2046
56064 241678 264397 -9874 12611 -2048
56076 241680 264370 -9868 12598 -2064
56080 241666 264315 -9862 12585 -2063
56107 241734 264395 -9872 12596 -2067
56129 241766 264438 -9904 12617 -2077
56137 241664 264342 -9918 12615 -2076
56131 241519 264202 -9931 12605 -2081
56118 241411 264130 -9943 12610 -2073
56100 241344 264085 -9893 12599 -2065
56083 241328 264092 -9836 12580 -2066
56061 241325 264107 -9866 12586 -2062
56051 241356 264142 -9934 12605 -2053
56039 241382 264174 -9934 12625 -2053
56031 241419 264208 -9896 12647 -2077
56022 241423 264202 -9872 12648 -2092
56010 241414 264184 -9854 12630 -2086
56009 241441 264219 -9848 12611 -2068
56010 241485 264262 -9845 12612 -2056
56006 241471 264244 -9834 12627 -2052
55999 241457 264214 -9818 12632 -2052
55992 241449 264225 -9826 12649 -2058
55980 241443 264218 -9821 12659 -2050
55971 241449 264213 -9802 12610 -2056
55965 241461 264221 -9839 12635 -2051
55957 241472 264236 -9867 12648 -2049
55949 241490 264240 -9880 12635 -2063
55948 241503 264248 -9886 12620 -2052
55946 241509 264239 -9905 12617 -2026
55941 241501 264212 -9913 12623 -2019
55936 241506 264192 -9904 12619 -2017
55936 241534 264211 -9893 12606 -2019
55939 241549 264211 -9840 12596 -1984
55942 241566 264231 -9869 12609 -2000
55949 241608 264269 -9887 12607 -2019
55958 241647 264302 -9880 12597 -2025
55969 241689 264345 -9878 12598 -2017
55978 241729 264387 -9880 12613 -2012
55990 241771 264414 -9865 12617 -2009
55999 241787 264445 -9843 12614 -2020
56011 241837 264480 -9847 12614 -2011
56024 241876 264506 -9846 12628 -1987
56040 241931 264555 -9829 12647 -1998
56053 241976 264610 -9835 12642 -2030
56061 241995 264598 -9865 12635 -2041
56072 242010 264611 -9892 12636 -2028
56089 242054 264663 -9899 12643 -2017
56096 242001 264610 -9903 12640 -2018
56080 241832 264458 -9917 12622 -2016
56048 241684 264349 -9899 12605 -2022
56012 241625 264333 -9843 12593 -2037
55967 241596 264336 -9844 12603 -2042
55920 241574 264337 -9891 12622 -2005
55882 241586 264360 -9914 12625 -1992
55848 241597 264381 -9902 12624 -2033
55814 241580 264374 -9894 12611 -2040
55785 241585 264378 -9905 12603 -2024
55754 241583 264380 -9898 12612 -2018
55725 241570 264361 -9865 12619 -2030
55701 241574 264366 -9828 12618 -2038
55686 241616 264411 -9809 12625 -2029
55662 241589 264388 -9792 12638 -2041
55636 241540 264341 -9781 12643 -2028
55605 241518 264308 -9804 12639 -2024
55582 241521 264321 -9827 12629 -2066
55561 241535 264341 -9853 12627 -2082
55535 241517 264327 -9900 12644 -2069
55515 241509 264302 -9922 12646 -2056
55494 241511 264295 -9897 12631 -2060
55477 241501 264278 -9877 12619 -2060
55460 241463 264215 -9893 12616 -2043
55431 241381 264091 -9900 12627 -2028
55412 241340 264022 -9855 12605 -2037
55398 241330 264011 -9884 12614 -2028
55388 241323 263980 -9908 12628 -2007
55383 241332 263987 -9897 12631 -1982
55385 241355 264012 -9894 12618 -1966
55389 241368 264025 -9905 12597 -1957
55397 241412 264065 -9896 12593 -1960
55411 241493 264181 -9876 12598 -1979
55432 241590 264309 -9881 12603 -1998
55447 241654 264378 -9892 12605 -1989
55459 241694 264418 -9891 12583 -1983
55471 241726 264457 -9917 12567 -2006
55485 241801 264526 -9932 12573 -2008
55504 241854 264587 -9956 12589 -2006
55494 241797 264500 -9964 12607 -2015
55486 241764 264431 -9929 12620 -2019
55502 241861 264559 -9891 12625 -2038
55506 241834 264555 -9863 12629 -2057
55455 241555 264246 -9873 12646 -2037
55382 241272 263977 -9865 12659 -2030
55314 241162 263917 -9804 12616 -2066
55248 241124 263925 -9838 12581 -2076
55181 241093 263916 -9950 12603 -2017
55127 241086 263924 -9999 12621 -1976
55070 241044 263876 -9961 12614 -1995
55023 241046 263904 -9905 12596 -2013
54992 241069 263959 -9899 12600 -2014
54955 241030 263903 -9898 12620 -2026
54910 240927 263767 -9861 12636 -2056
54882 240914 263750 -9826 12650 -2056
54875 240983 263840 -9810 12635 -2037
54850 240964 263851 -9841 12610 -2030
54809 240900 263757 -9920 12611 -2028
54765 240857 263720 -9935 12627 -2015
54734 240897 263823 -9896 12630 -2030
54706 240977 263933 -9901 12617 -2060
54682 241027 264024 -9954 12609 -2044
54650 241053 264059 -9955 12604 -2017
54630 241067 264073 -9905 12602 -2034
54610 241073 264068 -9895 12590 -2059
54598 241072 264059 -9950 12594 -2020
54596 241124 264117 -9954 12604 -2028
54612 241200 264219 -9947 12604 -2033
54624 241263 264288 -9944 12596 -2029
54638 241312 264334 -9947 12594 -2007
54648 241359 264370 -9920 12598 -2010
54656 241360 264357 -9892 12599 -2022
54669 241376 264363 -9895 12596 -2024
54682 241408 264396 -9901 12598 -2043
54698 241457 264432 -9873 12587 -2030
54717 241480 264447 -9877 12592 -2010
54731 241497 264465 -9880 12597 -2027
54746 241521 264480 -9888 12604 -2041
54763 241565 264520 -9920 12612 -2029
54780 241586 264549 -9944 12614 -2024
54798 241630 264581 -9923 12613 -2030
54822 241685 264639 -9892 12617 -2033
54840 241716 264655 -9884 12606 -2038
54854 241703 264599 -9833 12592 -2059
54873 241712 264606 -9855 12601 -2052
54895 241715 264610 -9888 12617 -2035
54890 241578 264474 -9871 12616 -2040
54865 241399 264314 -9851 12613 -2063
54821 241245 264209 -9883 12634 -2046
54775 241166 264169 -9917 12656 -2004
54729 241143 264186 -9913 12644 -2023
54689 241134 264188 -9911 12619 -2039
54654 241122 264187 -9884 12605 -2023
54628 241121 264187 -9839 12603 -2001
54606 241127 264213 -9812 12626 -2008
54585 241127 264228 -9792 12655 -2035
54560 241082 264168 -9777 12652 -2045
54537 241057 264138 -9789 12647 -2054
54526 241079 264160 -9851 12655 -2041
54521 241104 264200 -9903 12654 -2027
54511 241079 264179 -9894 12629 -2045
54496 241051 264133 -9885 12603 -2066
54489 241048 264133 -9898 12607 -2048
54485 241039 264144 -9888 12610 -2018
54478 241043 264141 -9877 12617 -2019
54476 241037 264132 -9872 12619 -2024
54473 241054 264148 -9874 12612 -2016
54475 241076 264170 -9881 12617 -2025
54481 241091 264177 -9884 12628 -2035
54484 241088 264143 -9883 12618 -2039
54491 241096 264141 -9901 12605 -2029
54505 241102 264147 -9947 12613 -2003
54518 241151 264191 -9961 12616 -1993
54541 241184 264229 -9858 12561 -1981
54553 241199 264210 -9823 12569 -1986
54561 241188 264175 -9809 12601 -1996
54573 241171 264145 -9814 12631 -2007
54590 241188 264154 -9836 12652 -2015
54606 241209 264165 -9874 12657 -2016
54622 241217 264171 -9933 12644 -2021
54651 241269 264247 -9981 12631 -2040
54686 241370 264359 -10001 12629 -2045
54714 241409 264392 -9954 12600 -2037
54725 241419 264413 -9934 12592 -1990
54734 241411 264386 -9901 12590 -1976
54757 241472 264463 -9854 12612 -1965
54804 241649 264704 -9833 12623 -1963
54850 241791 264843 -9864 12620 -1984
54886 241854 264916 -9922 12622 -1964
54890 241721 264725 -9911 12607 -1976
54875 241473 264453 -9855 12585 -2066
54873 241325 264336 -9850 12577 -2111
54865 241250 264306 -9946 12576 -2098
54861 241250 264361 -10063 12547 -2096
54851 241245 264378 -10102 12511 -2110
54826 241167 264281 -10100 12508 -2122
54815 241131 264238 -10090 12519 -2118
54822 241211 264340 -10103 12538 -2101
54823 241180 264309 -10097 12516 -2084
54818 241083 264182 -10076 12468 -2073
54828 241036 264114 -10040 12487 -2055
54855 241089 264173 -9997 12517 -2043
54877 241164 264272 -9967 12479 -2076
54876 241098 264181 -9958 12460 -2135
54865 241031 264102 -10003 12496 -2160
54858 241063 264161 -10050 12533 -2143
54866 241204 264381 -10057 12540 -2149
54883 241387 264636 -10075 12537 -2191
54881 241446 264729 -10146 12536 -2214
54877 241394 264634 -10199 12526 -2183
54879 241354 264561 -10220 12545 -2123
54906 241426 264646 -10215 12554 -2077
54941 241524 264765 -10137 12488 -2083
54968 241560 264781 -10064 12440 -2115
54992 241565 264768 -10077 12477 -2095
55018 241607 264799 -10096 12518 -2040
55046 241670 264864 -10055 12530 -2031
55074 241709 264908 -10001 12532 -2072
55093 241727 264905 -9977 12551 -2087
55109 241730 264891 -9993 12574 -2085
55128 241749 264891 -10031 12587 -2096
55146 241747 264860 -10042 12602 -2116
55163 241742 264836 -10012 12573 -2126
55180 241699 264763 -10013 12577 -2119
55196 241654 264681 -10015 12579 -2123
55218 241636 264624 -10014 12571 -2124
55235 241597 264559 -10007 12561 -2131
55252 241516 264428 -10021 12556 -2136
55260 241400 264252 -10038 12548 -2136
55276 241395 264233 -10052 12543 -2123
55312 241540 264420 -10048 12555 -2133
55352 241737 264703 -10007 12547 -2173
55392 241894 264949 -9960 12499 -2226
55405 241854 264969 -9993 12485 -2248
55376 241624 264731 -10077 12534 -2205
55320 241263 264302 -10062 12577 -2182
55260 240942 263914 -9976 12593 -2199
55237 240828 263787 -9899 12602 -2204
55218 240761 263704 -9865 12622 -2182
55212 240727 263670 -9856 12642 -2156
55216 240783 263747 -9837 12653 -2146
55230 240868 263870 -9807 12657 -2153
55235 240911 263935 -9813 12660 -2152
55252 241032 264101 -9896 12665 -2107
55292 241223 264332 -9973 12638 -2059
55328 241351 264498 -9996 12567 -2040
55338 241333 264489 -10020 12513 -2035
55348 241318 264455 -10038 12518 -2036
55347 241267 264394 -10055 12535 -2045
55349 241226 264337 -10063 12520 -2067
55363 241252 264363 -10035 12510 -2107
55387 241310 264448 -10009 12513 -2143
55415 241375 264526 -9973 12494 -2155
55438 241401 264538 -9983 12479 -2173
55460 241442 264583 -10049 12480 -2201
55484 241500 264636 -10065 12488 -2242
55507 241545 264677 -10028 12528 -2300
55523 241553 264665 -9988 12574 -2333
55537 241578 264690 -9963 12626 -2342
55555 241623 264724 -9927 12663 -2354
55568 241619 264699 -9842 12673 -2372
55573 241584 264630 -9745 12700 -2378
55593 241617 264673 -9704 12744 -2348
55616 241681 264740 -9744 12686 -2351
55631 241685 264706 -9821 12652 -2322
55640 241653 264646 -9933 12636 -2262
55654 241663 264651 -9996 12609 -2201
55681 241705 264700 -9968 12569 -2173
55699 241733 264709 -9927 12558 -2166
55717 241734 264709 -9919 12571 -2158
55740 241782 264743 -9931 12573 -2151
55757 241794 264722 -9969 12540 -2090
55771 241782 264687 -10004 12546 -2092
55801 241830 264725 -9990 12541 -2116
55826 241847 264753 -10017 12532 -2118
55833 241705 264615 -10102 12546 -2080
55815 241496 264419 -10156 12566 -2044
55804 241378 264336 -10124 12566 -2067
55792 241319 264302 -10063 12548 -2100
55782 241288 264300 -10024 12519 -2109
55781 241332 264366 -9980 12478 -2112
55786 241402 264444 -9956 12467 -2106
55784 241429 264485 -9990 12512 -2097
55782 241417 264466 -10024 12551 -2107
55784 241435 264479 -10031 12570 -2142
55784 241447 264495 -10025 12587 -2166
55788 241482 264515 -10013 12592 -2161
55794 241497 264527 -10013 12587 -2158
55797 241502 264520 -9998 12584 -2155
55808 241513 264553 -9959 12584 -2162
55818 241531 264571 -9947 12601 -2169
55810 241470 264491 -9947 12627 -2142
55808 241452 264465 -9924 12618 -2139
55832 241584 264634 -9871 12580 -2190
55849 241659 264736 -9896 12574 -2206
55844 241608 264656 -10018 12630 -2158
55841 241557 264563 -10089 12653 -2094
55865 241672 264716 -10005 12590 -2101
55896 241811 264877 -9872 12551 -2142
55903 241807 264853 -9871 12612 -2111
55895 241730 264717 -9935 12695 -2038
55911 241764 264746 -9886 12690 -1994
55935 241850 264848 -9755 12627 -2021
55950 241890 264875 -9712 12612 -2044
55956 241850 264814 -9772 12634 -2004
55971 241868 264809 -9821 12633 -1964
55993 241942 264888 -9799 12606 -1973
56008 241959 264890 -9801 12598 -1989
56025 241973 264890 -9875 12622 -1967
56036 241976 264879 -9940 12633 -1964
56052 241991 264878 -9946 12624 -1982
56074 242059 264940 -9840 12561 -1956
56099 242118 264996 -9923 12576 -1912
56105 242017 264876 -10031 12613 -1874
56093 241840 264691 -10047 12613 -1873
56084 241734 264615 -9987 12593 -1916
56068 241660 264578 -9971 12593 -1946
56048 241584 264526 -9995 12603 -1919
56031 241546 264479 -9992 12587 -1891
56022 241561 264512 -9967 12550 -1884
56012 241597 264547 -9929 12483 -1816
56007 241604 264550 -9909 12529 -1845
56012 241692 264655 -9905 12599 -1848
56017 241758 264735 -9923 12658 -1767
56019 241781 264738 -9922 12680 -1721
56032 241844 264816 -9898 12705 -1693
56026 241818 264741 -9847 12726 -1676
56021 241769 264678 -9770 12737 -1721
56014 241708 264584 -9716 12733 -1770
56015 241666 264546 -9725 12708 -1784
56007 241625 264480 -9792 12667 -1751
56003 241601 264452 -9904 12612 -1698
55996 241577 264398 -9994 12535 -1673
55996 241566 264372 -10033 12466 -1667
55998 241570 264363 -10047 12452 -1664
56000 241573 264349 -10041 12481 -1686
56006 241559 264304 -10046 12531 -1714
56008 241532 264238 -10064 12565 -1748
56006 241484 264164 -10083 12582 -1772
56013 241464 264115 -10047 12599 -1795
56022 241493 264130 -9953 12627 -1796
56039 241514 264152 -9880 12673 -1796
56048 241537 264168 -9853 12703 -1813
56067 241592 264212 -9839 12705 -1815
56084 241655 264266 -9861 12716 -1812
56096 241677 264267 -9875 12714 -1817
56116 241741 264332 -9803 12677 -1852
56146 241858 264497 -9795 12657 -1858
56161 241886 264528 -9898 12653 -1796
56151 241748 264416 -9965 12640 -1741
56128 241627 264306 -9846 12590 -1770
56109 241548 264269 -9796 12620 -1776
56086 241522 264262 -9795 12645 -1769
56065 241511 264269 -9805 12659 -1769
56047 241513 264292 -9802 12670 -1771
56027 241520 264274 -9794 12666 -1781
56007 241520 264269 -9789 12662 -1781
55998 241547 264303 -9793 12672 -1768
55988 241550 264302 -9771 12680 -1786
55976 241550 264281 -9965 12640 -1741
55966 241562 264280 -9846 12590 -1770
55954 241511 264183 -9796 12620 -1776
55938 241427 264077 -9795 12645 -1769
55922 241380 264013 -9805 12659 -1769
55908 241345 263975 -9802 12670 -1771
55898 241315 263940 -9794 12666 -1781
55879 241250 263830 -9789 12662 -1781
55858 241153 263698 -9793 12672 -1768
55843 241090 263586 -9771 12680 -1786
55834 241051 263529 -9776 12690 -1790
55829 241056 263519 -9808 12691 -1759
55827 241051 263501 -9816 12686 -1761
55818 241030 263450 -9807 12688 -1766
55819 241016 263432 -9800 12685 -1740
55823 241046 263454 -9793 12675 -1729
55827 241097 263527 -9794 12666 -1741
55841 241166 263599 -9797 12669 -1745
55855 241247 263694 -9793 12674 -1743
55871 241325 263787 -9784 12668 -1730
55892 241416 263894 -9780 12666 -1706
55904 241471 263938 -9791 12676 -1696
55909 241488 263931 -9791 12671 -1710
55924 241575 264032 -9795 12651 -1716
55943 241659 264156 -9810 12648 -1730
55942 241610 264124 -9824 12660 -1741
55910 241448 263989 -9823 12667 -1739
55860 241304 263885 -9827 12655 -1754
55815 241278 263917 -9839 12636 -1748
55766 241281 263947 -9837 12640 -1726
55705 241196 263864 -9825 12673 -1736
55637 241094 263731 -9785 12684 -1769
55587 241076 263697 -9765 12660 -1806
55563 241166 263848 -9827 12669 -1803
55558 241310 264049 -9890 12694 -1757
55533 241286 264008 -9878 12684 -1747
55506 241242 263917 -9825 12665 -1787
55503 241261 263942 -9787 12653 -1782
55508 241272 263939 -9760 12655 -1753
55514 241284 263935 -9740 12680 -1751
55529 241324 264003 -9733 12710 -1785
55564 241490 264241 -9730 12716 -1840
55594 241691 264510 -9743 12704 -1882
55616 241873 264754 -9791 12691 -1896
55625 242026 264972 -9833 12684 -1877
55627 242118 265067 -9838 12670 -1872
55611 242121 265074 -9836 12646 -1882
55588 242098 265031 -9857 12641 -1852
55552 242049 264960 -9862 12641 -1842
55521 242005 264910 -9833 12655 -1863
55484 241946 264832 -9788 12644 -1885
55460 241886 264740 -9809 12652 -1869
55433 241837 264660 -9832 12660 -1855
55423 241820 264633 -9819 12666 -1835
55410 241801 264583 -9798 12665 -1829
55388 241737 264501 -9795 12662 -1821
55367 241673 264400 -9799 12667 -1792
55353 241659 264360 -9797 12661 -1799
55351 241668 264372 -9800 12655 -1821
55340 241642 264302 -9789 12651 -1825
55342 241633 264268 -9780 12654 -1831
55352 241667 264338 -9800 12654 -1832
55339 241579 264244 -9821 12657 -1842
55292 241374 264041 -9814 12667 -1855
55227 241210 263915 -9797 12667 -1873
55165 241133 263881 -9805 12655 -1890
55104 241092 263856 -9833 12647 -1882
55048 241074 263835 -9836 12664 -1869
54998 241042 263809 -9804 12659 -1877
54947 241009 263768 -9774 12640 -1914
54910 240985 263754 -9806 12659 -1917
54880 240991 263768 -9875 12689 -1880
54846 240981 263745 -9882 12684 -1878
54824 241003 263765 -9830 12658 -1910
54819 241083 263872 -9790 12641 -1900
54810 241125 263932 -9764 12644 -1857
54797 241134 263940 -9724 12661 -1853
54781 241142 263955 -9691 12672 -1886
54770 241159 263981 -9668 12683 -1928
54749 241163 263982 -9668 12704 -1941
54738 241163 263979 -9700 12729 -1923
54720 241161 263979 -9728 12744 -1912
54709 241192 264007 -9748 12713 -1925
54708 241223 264060 -9769 12665 -1937
54707 241269 264100 -9783 12651 -1916
54706 241271 264076 -9788 12664 -1895
54707 241257 264042 -9767 12680 -1908
54711 241260 264035 -9735 12687 -1912
54720 241276 264037 -9735 12680 -1888
54728 241278 264026 -9745 12677 -1879
54744 241317 264061 -9769 12674 -1874
54758 241368 264114 -9818 12668 -1865
54764 241321 264043 -9861 12682 -1853
54766 241243 263896 -9897 12690 -1818
54772 241184 263800 -9898 12666 -1817
54780 241129 263709 -9870 12639 -1853
54798 241142 263694 -9860 12603 -1884
54809 241134 263661 -9876 12574 -1933
54813 241081 263570 -9892 12565 -1997
54830 241111 263597 -10010 12478 -1911
54842 241104 263619 -10107 12466 -1787
54821 240966 263482 -10068 12507 -1729
54769 240778 263306 -9874 12587 -1739
54708 240629 263194 -9682 12674 -1756
54643 240524 263116 -9602 12765 -1753
54568 240401 262980 -9576 12833 -1748
54507 240362 262957 -9552 12840 -1750
54485 240527 263198 -9571 12854 -1732
54485 240719 263467 -9654 12877 -1645
54490 240871 263674 -9724 12825 -1580
54501 240995 263845 -9769 12736 -1583
54483 240964 263780 -9784 12677 -1588
54425 240640 263328 -9772 12654 -1559
54400 240536 263206 -9782 12647 -1519
54412 240606 263322 -9799 12624 -1559
54401 240617 263333 -9821 12587 -1599
54383 240635 263395 -9818 12623 -1601
54401 240804 263623 -9820 12696 -1624
54421 240913 263768 -9848 12697 -1655
54428 240850 263646 -9795 12693 -1681
54431 240740 263490 -9757 12721 -1716
54450 240761 263511 -9808 12691 -1786
54477 240822 263575 -9865 12604 -1797
54490 240868 263624 -9918 12548 -1772
54503 240903 263665 -9922 12525 -1805
54503 240907 263658 -9936 12510 -1839
54514 240966 263752 -9995 12473 -1845
54536 241097 263923 -10014 12474 -1874
54559 241200 264045 -10016 12513 -1900
54569 241198 264021 -10013 12499 -1921
54583 241158 263946 -10007 12510 -1968
54608 241130 263890 -10002 12566 -2007
54634 241151 263890 -9960 12601 -2030
54674 241205 263960 -9889 12621 -2056
54706 241268 264001 -9838 12629 -2105
54725 241245 263949 -9828 12632 -2148
54762 241311 264028 -9859 12639 -2148
54793 241338 264052 -9898 12656 -2139
54796 241243 263975 -9893 12663 -2155
54778 241054 263782 -9863 12612 -2192
54746 240901 263658 -9889 12589 -2181
54721 240855 263661 -9917 12599 -2164
54695 240845 263662 -9910 12614 -2157
54676 240828 263652 -9853 12604 -2157
54660 240827 263659 -9848 12598 -2158
54655 240827 263665 -9926 12614 -2132
54655 240880 263728 -9969 12633 -2114
54660 240897 263737 -9945 12640 -2120
54663 240897 263730 -9887 12622 -2125
54670 240922 263752 -9857 12596 -2099
54674 240925 263758 -9856 12596 -2060
54680 240914 263751 -9829 12605 -2056
54680 240887 263719 -9796 12613 -2073
54683 240869 263692 -9782 12623 -2089
54683 240858 263684 -9798 12651 -2093
54690 240864 263698 -9823 12673 -2098
54698 240889 263715 -9848 12672 -2110
54709 240909 263736 -9873 12669 -2101
54723 240914 263737 -9869 12653 -2080
54734 240931 263740 -9855 12634 -2064
54750 240967 263769 -9832 12633 -2050
54768 240994 263788 -9808 12634 -2045
54785 241012 263800 -9775 12633 -2054
54804 241044 263821 -9740 12635 -2061
54818 241045 263819 -9757 12644 -2058
54842 241080 263842 -9823 12657 -2067
54858 241070 263810 -9874 12658 -2083
54867 241020 263723 -9886 12649 -2082
54873 240915 263548 -9879 12629 -2077
54890 240877 263470 -9879 12607 -2047
54913 240860 263441 -9881 12599 -2026
54943 240930 263492 -9864 12607 -2039
54968 240946 263491 -9829 12610 -2076
54996 240963 263497 -9808 12597 -2110
55034 241035 263569 -9833 12599 -2120
55061 241051 263608 -9882 12612 -2107
55066 240913 263464 -9923 12615 -2079
55049 240717 263270 -9936 12611 -2083
55040 240620 263225 -9924 12613 -2085
55029 240574 263208 -9898 12610 -2070
55021 240558 263201 -9834 12606 -2086
55018 240560 263197 -9776 12601 -2121
55018 240575 263225 -9843 12609 -2117
55023 240614 263264 -9970 12633 -2061
55030 240635 263281 -10014 12639 -2041
55035 240640 263279 -9969 12610 -2061
55044 240658 263297 -9955 12583 -2052
55060 240723 263381 -9972 12580 -2004
55074 240761 263404 -9929 12601 -1984
55074 240693 263310 -9851 12604 -2012
55077 240653 263261 -9789 12594 -2060
55084 240672 263287 -9785 12602 -2090
55097 240673 263289 -9860 12616 -2066
55105 240688 263315 -9915 12600 -2048
55116 240702 263299 -9929 12567 -2048
55133 240731 263341 -9986 12558 -2030
55150 240770 263381 -10043 12586 -1994
55163 240777 263359 -10004 12617 -2016
55173 240766 263336 -9831 12642 -2118
55191 240781 263336 -9891 12626 -2109
55212 240821 263369 -9997 12605 -2077
55233 240834 263369 -10057 12565 -2056
55256 240863 263401 -10082 12539 -2041
55280 240903 263419 -10098 12551 -2014
55297 240935 263437 -10069 12572 -2014
55320 240958 263457 -9994 12584 -2051
55344 240980 263466 -9916 12588 -2097
55372 241030 263515 -9886 12585 -2115
55390 241016 263473 -9913 12550 -2108
55411 241037 263472 -9993 12523 -2096
55439 241082 263521 -10058 12530 -2088
55453 241030 263471 -10079 12523 -2082
55434 240802 263214 -10062 12528 -2085
55405 240604 263028 -10028 12557 -2105
55397 240615 263119 -10007 12584 -2124
55393 240692 263254 -9968 12597 -2146
55392 240757 263358 -9928 12585 -2163
55395 240868 263515 -9990 12561 -2130
55409 241013 263707 -10083 12540 -2050
55427 241123 263863 -10100 12528 -2015
55438 241174 263929 -10052 12528 -2060
55408 240992 263640 -9953 12559 -2097
55372 240694 263200 -9844 12616 -2118
55378 240636 263152 -9787 12656 -2138
55403 240719 263261 -9803 12683 -2138
55413 240661 263185 -9810 12680 -2121
55454 240758 263336 -9792 12654 -2100
55519 241004 263657 -9822 12651 -2101
55544 241056 263728 -9827 12705 -2100
55518 240836 263409 -9805 12781 -2136
55511 240788 263347 -9799 12794 -2242
55569 241129 263823 -9849 12733 -2309
55629 241401 264175 -9959 12646 -2283
55654 241349 264072 -9976 12520 -2264
55647 241094 263709 -9980 12414 -2289
55656 241001 263559 -10068 12408 -2285
55688 241075 263654 -10116 12451 -2264
55714 241166 263764 -10110 12486 -2309
55726 241205 263810 -10291 12181 -2389
55735 241253 263870 -10363 12108 -2309
55750 241337 263972 -10405 12208 -2295
55763 241342 263949 -10425 12253 -2313
55766 241247 263772 -10450 12168 -2336
55777 241147 263620 -10476 12078 -2322
55800 241122 263579 -10478 12058 -2287
55808 241050 263501 -10435 12074 -2262
55802 240918 263366 -10363 12119 -2246
55798 240851 263357 -10299 12188 -2221
55798 240847 263398 -10237 12240 -2197
55794 240869 263455 -10201 12310 -2213
55794 240929 263560 -10210 12408 -2237
55791 240981 263620 -10222 12463 -2248
55785 240967 263589 -10219 12494 -2262
55777 240968 263603 -10167 12520 -2275
55775 241002 263641 -10084 12543 -2308
55765 240972 263579 -10041 12561 -2329
55762 240955 263554 -10017 12562 -2333
55768 241017 263638 -9991 12572 -2355
55766 240998 263593 -9972 12586 -2369
55753 240915 263512 -9957 12570 -2379
55746 240896 263458 -9979 12557 -2396
55750 240907 263495 -10044 12571 -2379
55753 240937 263518 -10090 12564 -2366
55752 240939 263539 -10082 12532 -2398
55761 240979 263584 -10105 12518 -2389
55767 241005 263603 -10179 12515 -2329
55770 241009 263590 -10196 12501 -2306
55780 241029 263619 -10151 12478 -2324
55785 241051 263631 -10140 12398 -2337
55798 241062 263632 -10187 12435 -2318
55809 241091 263664 -10219 12452 -2316
55818 241110 263676 -10249 12450 -2297
55828 241132 263685 -10251 12450 -2278
55837 241170 263714 -10229 12454 -2292
55854 241200 263742 -10232 12459 -2287
55865 241234 263765 -10237 12458 -2261
55872 241217 263725 -10232 12452 -2255
55880 241208 263696 -10223 12419 -2248
55903 241269 263764 -10206 12394 -2248
55915 241243 263751 -10193 12406 -2253
55893 241049 263550 -10196 12417 -2240
55857 240853 263358 -10215 12437 -2221
55828 240758 263276 -10209 12457 -2222
55807 240755 263307 -10157 12456 -2243
55791 240767 263338 -10112 12443 -2267
55777 240773 263357 -10142 12474 -2271
55765 240787 263379 -10205 12526 -2242
55754 240811 263415 -10136 12474 -2304
55744 240825 263416 -10071 12466 -2309
55724 240789 263380 -10040 12503 -2303
55717 240802 263386 -10026 12534 -2293
55718 240849 263446 -10012 12546 -2291
55719 240876 263467 -10010 12552 -2297
55707 240850 263437 -10020 12557 -2290
55696 240806 263379 -10026 12569 -2283
55685 240799 263364 -10005 12575 -2284
55684 240823 263402 -9958 12565 -2308
55684 240845 263429 -9939 12546 -2327
55680 240861 263443 -9982 12545 -2307
55673 240876 263449 -10049 12554 -2290
55672 240896 263466 -10076 12533 -2298
55681 240934 263525 -10082 12510 -2299
55683 240978 263556 -10105 12500 -2294
55679 240966 263526 -10145 12504 -2288
55677 240926 263453 -10176 12511 -2282
55687 240975 263506 -10180 12505 -2277
55699 241055 263601 -10161 12485 -2267
55702 241054 263574 -10114 12455 -2265
55714 241084 263603 -10097 12475 -2255
55719 241110 263614 -10083 12516 -2239
55722 241111 263609 -10013 12502 -2262
55736 241153 263644 -9951 12488 -2315
55736 241151 263612 -9973 12513 -2324
55746 241186 263642 -10034 12535 -2284
55763 241233 263710 -10051 12543 -2266
55760 241187 263669 -10049 12567 -2281
55721 240954 263407 -10025 12584 -2306
55665 240733 263190 -9917 12614 -2333
55631 240673 263168 -9883 12584 -2329
55603 240712 263250 -9934 12573 -2304
55565 240688 263230 -10060 12601 -2263
55529 240628 263156 -10144 12623 -2221
55504 240625 263158 -10113 12589 -2221
55490 240666 263218 -10020 12539 -2247
55470 240692 263253 -9997 12544 -2245
55445 240668 263220 -10048 12578 -2214
55427 240674 263218 -9945 12558 -2237
55421 240733 263298 -9890 12564 -2262
55412 240770 263339 -9888 12621 -2259
55395 240742 263304 -9910 12685 -2249
55377 240696 263244 -9888 12713 -2265
55358 240682 263225 -9841 12708 -2302
55355 240747 263337 -9877 12714 -2306
55348 240801 263397 -9949 12727 -2272
55335 240802 263401 -9972 12721 -2239
55320 240788 263368 -9929 12676 -2230
55310 240801 263373 -9872 12620 -2218
55308 240851 263441 -9903 12642 -2174
55309 240920 263523 -9993 12707 -2107
55305 240900 263493 -10043 12720 -2022
55302 240898 263475 -10017 12691 -1950
55303 240940 263525 -9959 12660 -1889
55312 241002 263609 -9934 12664 -1810
55320 241074 263700 -9928 12713 -1683
55322 241119 263761 -9899 12740 -1566
55325 241152 263801 -9868 12727 -1493
55336 241224 263898 -9889 12686 -1398
55341 241256 263936 -10009 12619 -1222
55338 241208 263853 -10172 12561 -965
55340 241140 263740 -10278 12496 -702
55352 241117 263700 -10340 12441 -506
55358 241078 263631 -10379 12465 -383
55365 241002 263509 -10356 12545 -305
55347 240780 263246 -10258 12601 -319
55308 240504 262944 -10152 12618 -426
55265 240275 262717 -10136 12625 -549
55217 240114 262601 -10218 12653 -726
55182 240043 262546 -10398 12604 -654
55148 239943 262444 -10534 12526 -627
55114 239838 262329 -10585 12496 -620
55077 239692 262159 -10509 12535 -621
55035 239477 261872 -10387 12582 -631
54983 239178 261486 -10347 12617 -635
54932 238909 261146 -10320 12645 -640
54908 238781 260994 -10218 12641 -620
54895 238734 260918 -10051 12593 -590
54862 238580 260720 -9959 12489 -546
54820 238411 260508 -9949 12252 -443
54784 238321 260403 -9936 11953 -324
54763 238348 260462 -9972 11819 -213
54749 238446 260593 -9986 11867 -134
54738 238548 260727 -9888 11937 -146
54737 238666 260875 -9769 11951 -221
54749 238874 261141 -9734 11983 -292
54764 239082 261405 -9771 12094 -345
54759 239180 261515 -9948 12275 -488
54744 239193 261513 -10122 12327 -535
54731 239232 261551 -10269 12403 -554
54726 239317 261660 -10349 12505 -539
54727 239411 261773 -10371 12581 -547
54726 239482 261830 -10352 12586 -598
54719 239505 261845 -10347 12539 -631
54716 239532 261863 -10359 12519 -624
54716 239586 261921 -10351 12546 -622
54718 239632 261957 -10252 12560 -692
54702 239612 261897 -10243 12548 -708
54693 239578 261849 -10266 12545 -709
54686 239544 261770 -10288 12583 -706
54668 239433 261640 -10259 12616 -713
54637 239320 261545 -10183 12604 -727
54603 239225 261492 -10165 12571 -737
54559 239191 261501 -10232 12540 -716
54527 239247 261616 -10291 12517 -669
54500 239334 261755 -10270 12485 -646
54483 239463 261934 -10211 12429 -664
54468 239548 262052 -10205 12383 -684
54443 239579 262108 -10231 12343 -690
54418 239595 262113 -10259 12333 -675
54400 239602 262130 -10283 12387 -656
54392 239681 262209 -10285 12454 -657
54387 239757 262308 -10266 12482 -675
54375 239756 262303 -10246 12469 -699
54352 239702 262225 -10273 12465 -739
54331 239662 262190 -10350 12474 -775
54311 239689 262227 -10400 12453 -791
54293 239710 262262 -10413 12412 -784
54276 239725 262285 -10431 12349 -787
54264 239758 262319 -10451 12310 -803
54256 239824 262411 -10476 12341 -796
54256 239917 262505 -10502 12380 -788
54256 239972 262583 -10501 12394 -795
54252 239976 262571 -10469 12389 -818
54249 239988 262584 -10445 12392 -831
54249 240016 262599 -10424 12414 -827
54251 240042 262600 -10394 12376 -826
54257 240036 262577 -10390 12334 -829
54271 240096 262638 -10398 12358 -841
54291 240189 262736 -10386 12398 -856
54319 240303 262888 -10368 12416 -865
54349 240438 263066 -10354 12385 -875
54381 240590 263259 -10351 12384 -888
54400 240668 263334 -10343 12429 -900
54414 240711 263393 -10337 12454 -892
54433 240763 263438 -10348 12442 -856
54446 240780 263478 -10326 12311 -866
54435 240704 263437 -10240 12332 -908
54409 240617 263411 -10170 12342 -954
54365 240533 263350 -10189 12343 -951
54325 240492 263326 -10242 12340 -921
54294 240524 263390 -10291 12384 -937
54269 240546 263424 -10312 12484 -1030
54249 240578 263484 -10273 12556 -1161
54227 240580 263484 -10237 12615 -1264
54201 240549 263444 -10165 12834 -1497
54177 240513 263407 -10197 12961 -1600
54156 240532 263430 -10230 12971 -1656
54150 240575 263491 -10239 12861 -1627
54135 240557 263441 -10243 12738 -1549
54122 240529 263403 -10250 12696 -1479
54125 240582 263486 -10205 12692 -1426
54125 240653 263588 -10129 12628 -1393
54126 240688 263645 -10117 12532 -1331
54126 240708 263662 -10133 12497 -1219
54132 240752 263715 -10077 12516 -1164
54144 240796 263778 -9979 12573 -1186
54155 240856 263846 -9928 12617 -1216
54169 240918 263914 -9963 12621 -1218
54179 240924 263915 -10038 12615 -1198
54188 240928 263911 -10094 12611 -1178
54196 240926 263890 -10135 12606 -1145
54208 240909 263859 -10173 12580 -1111
54231 240934 263879 -10174 12568 -1090
54267 241023 263989 -10123 12594 -1091
54303 241110 264083 -9987 12647 -1134
54342 241210 264211 -9870 12695 -1172
54379 241287 264283 -9837 12719 -1185
54410 241323 264317 -9821 12720 -1180
54427 241311 264284 -9849 12687 -1162
54464 241362 264333 -9913 12643 -1145
54511 241408 264371 -9963 12623 -1119
54575 241489 264450 -10003 12609 -1090
54643 241612 264613 -10005 12605 -1066
54686 241627 264630 -9934 12627 -1095
54699 241536 264545 -9826 12710 -1195
54691 241425 264469 -9849 12707 -1160
54669 241307 264367 -9853 12676 -1171
54641 241282 264371 -9822 12688 -1216
54619 241276 264395 -9781 12694 -1249
54597 241252 264363 -9752 12660 -1257
54573 241199 264311 -9748 12653 -1224
54550 241149 264242 -9755 12675 -1213
54536 241121 264215 -9730 12687 -1257
54526 241091 264180 -9664 12818 -1394
54513 241040 264100 -9630 12893 -1439
54506 241011 264060 -9611 12886 -1475
54508 240998 264042 -9619 12834 -1488
54508 240960 263986 -9657 12785 -1492
54506 240912 263916 -9696 12746 -1488
54507 240912 263921 -9693 12716 -1500
54515 240955 263996 -9672 12691 -1521
54529 241024 264082 -9637 12699 -1527
54539 241065 264129 -9594 12793 -1540
54550 241075 264140 -9570 12784 -1567
54565 241116 264182 -9568 12749 -1596
54578 241167 264246 -9580 12757 -1608
54589 241194 264252 -9573 12803 -1617
54597 241171 264224 -9560 12817 -1623
54610 241177 264214 -9545 12835 -1639
54624 241170 264194 -9508 12893 -1671
54632 241167 264164 -9461 12955 -1720
54641 241156 264135 -9417 13031 -1746
54648 241150 264100 -9387 13097 -1738
54658 241172 264115 -9347 13117 -1747
54665 241173 264086 -9294 13126 -1766
54672 241169 264043 -9271 13082 -1764
54679 241161 264008 -9295 12976 -1749
54691 241172 264001 -9325 12922 -1728
54705 241210 264020 -9321 12928 -1746
54725 241256 264059 -9332 12951 -1755
54736 241244 264019 -9337 12961 -1753
54749 241252 263994 -9284 12973 -1781
54763 241240 263991 -9271 13014 -1774
54759 241154 263906 -9344 13017 -1702
54737 240993 263744 -9388 12974 -1639
54711 240864 263639 -9351 12970 -1676
54693 240814 263610 -9276 13038 -1784
54686 240845 263662 -9211 13112 -1869
54694 240888 263732 -9220 13126 -1879
54703 240926 263761 -9264 13096 -1851
54706 240926 263752 -9264 13085 -1826
54711 240896 263714 -9224 13109 -1840
54715 240875 263706 -9249 13021 -1787
54727 240898 263734 -9317 12923 -1717
54747 240946 263796 -9322 12972 -1717
54762 240911 263734 -9219 13018 -1773
54775 240897 263726 -9185 12923 -1779
54809 240979 263847 -9298 12818 -1704
54837 241058 263948 -9376 12844 -1664
54862 241102 264003 -9326 12997 -1728
54872 241058 263931 -9241 13022 -1839
54898 241142 264047 -9593 12678 -1476
54940 241325 264301 -9728 12771 -1295
54972 241452 264441 -9540 13053 -1367
54989 241444 264394 -9234 13130 -1598
54986 241310 264198 -9173 12940 -1633
55023 241438 264355 -9334 12830 -1473
55072 241593 264560 -9389 12923 -1458
55106 241657 264618 -9269 13037 -1616
55122 241591 264487 -9230 12951 -1712
55145 241586 264474 -9402 12818 -1590
55182 241636 264532 -9584 12770 -1419
55206 241596 264432 -9591 12816 -1369
55224 241482 264235 -9445 12858 -1407
55231 241377 264064 -9345 12787 -1371
55262 241420 264132 -9346 12692 -1269
55293 241492 264209 -9321 12650 -1263
55316 241529 264254 -9202 12719 -1387
55339 241590 264317 -9081 12861 -1562
55361 241657 264411 -9081 12943 -1647
55380 241682 264465 -9135 12955 -1679
55378 241570 264374 -9170 12992 -1750
55373 241484 264313 -9161 13071 -1864
55387 241536 264431 -9142 13107 -1964
55409 241617 264563 -9196 13085 -1993
55436 241683 264645 -9314 13056 -2011
55466 241758 264730 -9405 12992 -2057
55467 241598 264441 -9426 12908 -2078
55460 241240 263865 -9439 12904 -2090
55485 240892 263285 -9400 12959 -2128
55474 240408 262530 -9364 12998 -2185
55535 240503 262590 -9170 12992 -1750
55681 241383 263672 -9161 13071 -1864
55782 242293 264843 -9142 13107 -1964
55770 242681 265328 -9196 13085 -1993
55720 242823 265491 -9314 13056 -2011
55657 242710 265278 -9405 12992 -2057
55589 242300 264725 -9426 12908 -2078
55596 242069 264418 -9439 12904 -2090
55628 241776 263940 -9400 12959 -2128
55471 240567 262273 -9364 12998 -2185
55175 238752 259783 -9487 12894 -2299
54841 236641 256930 -9606 12793 -2278
54586 235155 254979 -9588 12747 -2235
54421 234390 254008 -9441 12787 -2225
54289 233765 253208 -9392 12787 -2226
54030 232220 251074 -9426 12759 -2187
53739 230589 248911 -9431 12820 -2119
53514 229401 247243 -9470 12891 -2023
53372 228725 246289 -9533 12911 -1972
53279 229116 246881 -9460 12889 -1977
53122 228374 245901 -9398 12848 -1978
52790 226819 243783 -9383 12933 -1916
52841 227993 245734 -9343 13010 -1863
52915 228558 246650 -9356 12922 -1833
52761 227953 245850 -9375 12895 -1789
52506 226338 243668 -9319 12981 -1749
52299 225181 242322 -9263 12997 -1664
52079 224265 241292 -9102 12900 -1822
51678 223427 240486 -9134 12939 -1697
51229 223004 240292 -9410 12952 -1491
50846 222650 240150 -9495 12871 -1541
50530 221942 239375 -9478 12841 -1596
50231 220130 236771 -9368 12912 -1675
49992 217802 233421 -9505 12938 -1514
49730 215700 230346 -9653 12877 -1410
49523 214415 228585 -9536 12861 -1480
49404 213828 227780 -9465 12844 -1533
49145 212552 226058 -9401 12867 -1605
48857 211464 224800 -9346 12917 -1582
48594 210674 223991 -9272 13004 -1431
48129 208525 221113 -9184 13082 -1338
47619 205913 217707 -9204 13100 -1273
47221 204114 215291 -9323 13084 -1280
46869 202520 213260 -9291 13143 -1253
46530 200858 211213 -9221 13046 -1356
46133 198849 208680 -9219 12996 -1432
45658 196337 205560 -9238 13163 -1219
45213 193974 202792 -9281 13138 -1134
44912 192497 201145 -9330 12972 -1124
44555 190881 199244 -9455 12935 -887
43882 187554 195142 -9567 12960 -721
42982 183344 190265 -9617 12888 -746
41897 178720 185314 -9647 12842 -644
40960 174815 181271 -9599 12876 -452
38126 163442 168129 -9574 12849 -309
32687 143905 148469 -9685 12704 -251
31218 137267 143520 -9648 12726 -195
31278 134605 143453 -9546 12804 -166
31900 133558 145141 -9643 12753 -59
32515 132876 147173 -9737 12801 374
33167 131477 149546 -9721 12811 683
33156 127117 148365 -9708 12707 698
31093 118759 141549 -9673 12631 708
29730 112503 138327 -9739 12579 1002
29404 107226 137461 -10027 12196 1530
30851 103322 138719 -10071 12174 1876
31214 95915 132004 -9994 12382 1920
25620 71660 103861 -10079 12272 2014
17413 42566 68916 -10204 12236 2398
10748 22836 42814 -10487 11899 2901
7153 14064 29337 -11034 10328 3920
4918 10118 20922 -11255 10163 4308
4290 11924 19727 -11787 9921 4954
2892 7645 12417 -12131 9018 5769
1710 4468 7355 -12375 8128 6392
1288 3510 5538 -12481 7472 6858
1060 2979 4537 -12383 6510 7520
917 2606 3857 -12629 5280 8425
786 2172 3163 -12834 4155 9552
702 1884 2754 -13051 2526 10292
758 2103 3200 -12820 1614 12160
954 2914 4376 -13608 1202 11265
843 2373 3681 -13190 464 7324
764 2158 3300 -11989 1807 7093
687 1857 2701 -12765 3125 8831
553 1319 1957 -13004 2693 9517
580 1464 2133 -12830 2303 9539
546 1311 1887 -12618 1536 9846
488 1111 1538 -12264 1422 10336
427 927 1157 -11127 2578 12339
386 826 922 -10530 2046 13223
383 853 930 -11023 -98 7474
385 875 919 -14208 -617 2465
369 832 831 -15539 274 2626
356 793 767 -13881 1615 5185
355 786 743 -13334 3054 8404
358 785 737 -11327 4020 7529
360 788 735 -10469 4911 5627
362 792 738 -10948 5323 6529
360 790 738 -10556 5394 9404
362 788 742 -9519 6484 11778
363 790 747 -8408 6492 7233
363 791 753 -8528 6843 4863
362 789 753 -8550 7163 6343
364 789 767 -7953 7839 8357
375 802 801 -6637 8551 9446
395 821 873 -4436 9080 9178
412 837 956 -2503 9929 8297
415 838 937 -1102 10711 7237
424 855 952 403 12668 6034
461 888 1100 666 12865 5939
487 886 1241 865 12502 5413
496 922 1194 1262 12110 5056
510 974 1199 2450 11392 6244
546 1038 1319 4406 10374 9316
582 1031 1492 6381 9855 12634
567 964 1483 7316 9809 14037
580 1012 1452 7380 9271 13024
617 1099 1546 12546 6494 14882
610 1060 1514 14988 5682 16534
602 1011 1545 13839 5025 12888
639 1061 1785 11827 4162 8796
614 1046 1670 12164 3365 8837
709 1291 2010 14978 1731 14941
780 1494 2252 15927 1145 17879
774 1658 2403 13459 812 14494
782 1765 2463 10386 220 11429
697 1444 1987 7745 268 11081
665 1236 1684 6864 520 13475
590 1094 1366 7832 765 16409
442 967 939 7884 692 16056
364 863 757 8085 444 12987
349 824 731 8945 763 11506
351 817 726 8715 1729 12696
350 810 726 7753 2590 14115
352 807 725 5866 3481 13105
353 821 730 3548 4039 10828
356 854 741 1483 4146 9311
361 887 751 -148 4269 8900
362 919 761 -715 4247 9230
362 940 763 -486 4234 10495
363 944 758 -213 4032 12908
364 966 756 -14 3624 15671
369 1026 767 299 2803 17798
374 1090 781 312 2150 18658
378 1124 785 -215 2141 17940
382 1180 800 -858 2164 16173
397 1311 846 -1176 2480 14811
413 1472 899 478 2310 16500
425 1591 932 2920 1367 17381
432 1673 943 5590 460 17526
438 1748 947 7742 -734 17460
450 1889 970 9202 -1774 17155
478 2173 1040 9696 -2245 16631
517 2581 1160 9196 -2756 16068
560 3025 1301 8410 -3022 15362
598 3423 1415 7822 -2852 14911
618 3677 1445 7681 -2640 14978
620 3784 1416 8151 -2840 15205
614 3809 1367 9021 -3255 15165
611 3853 1328 9903 -3609 14440
612 3984 1316 10304 -3788 13281
632 4305 1371 9971 -3908 12428
677 4912 1523 9156 -3925 12126
730 5613 1705 8579 -3221 12046
765 6132 1819 8952 -2325 11690
778 6397 1841 10174 -2226 11037
786 6548 1862 11618 -2694 10387
812 6850 1965 12787 -3486 9906
865 7417 2174 13375 -4508 9676
929 8081 2436 13213 -5178 9721
991 8667 2693 12501 -5163 9975
1021 8867 2804 11859 -4699 10094
1038 8942 2884 11923 -4266 9674
1082 9270 3134 12731 -4633 8954
1132 9575 3425 13633 -5790 8359
1168 9700 3603 14033 -6809 7791
1189 9706 3668 13859 -7098 7113
1187 9512 3624 13389 -6674 6582
1151 9082 3485 12991 -6180 6270
1085 8389 3236 12984 -6516 5801
1008 7521 2979 13309 -7410 5012
924 6534 2713 13363 -7933 4144
830 5474 2402 12996 -7736 3173
765 4751 2208 12666 -7535 2142
773 4829 2264 12910 -8074 1785
865 5814 2598 13514 -8609 1974
955 6731 2924 14032 -9173 2050
962 6809 2932 14861 -12127 2240
899 6117 2688 14637 -13719 1872
829 5337 2486 14369 -14226 429
767 4586 2293 14220 -14596 -1511
700 3711 2059 14046 -14776 -2575
643 3147 1855 13789 -14439 -1545
617 2914 1749 12802 -13609 868
644 3014 1797 10295 -12085 2751
660 3111 1871 9211 -11101 2556
655 3398 1942 10220 -11560 1115
683 3868 1977 10903 -12126 116
725 4294 2113 10605 -12954 -520
792 4947 2376 9514 -14537 -1383
839 5426 2492 8849 -15013 -2722
826 5308 2403 8453 -14455 -3395
766 4704 2201 7929 -13706 -2881
704 4101 1969 7861 -13279 -2167
679 3906 1874 9016 -13590 -1993
707 4183 1991 10441 -14167 -1869
755 4639 2187 10919 -14134 -898
783 4915 2278 11000 -13328 733
777 4847 2235 11257 -12573 1985
743 4510 2115 11151 -12511 2099
704 4144 1978 10622 -13162 984
685 3958 1919 10470 -13969 -637
695 4055 1972 10553 -14254 -1545
726 4355 2096 10309 -13787 -1101
751 4601 2182 10180 -12944 102
751 4589 2164 10566 -12400 1120
723 4314 2056 10950 -12302 1394
690 4002 1942 10907 -12567 839
677 3858 1896 10599 -13086 -201
685 3951 1937 10260 -13376 -1086
711 4182 2028 10032 -13265 -1145
730 4380 2103 10061 -12922 -337
734 4425 2121 10395 -12518 687
725 4313 2078 10744 -12356 1220
709 4186 2023 10872 -12526 925
706 4151 2007 10794 -12836 50
712 4225 2042 10562 -13137 -738
726 4351 2094 10365 -13278 -883
736 4435 2126 10283 -13036 -417
737 4442 2126 10312 -12625 244
729 4360 2093 10464 -12391 640
720 4295 2065 10674 -12387 508
721 4303 2066 10921 -12634 79
728 4369 2093 11099 -12860 -272
735 4439 2124 11093 -12882 -316
739 4471 2130 10942 -12805 -61
740 4480 2134 10735 -12644 261
740 4497 2132 10385 -12519 277
736 4454 2114 10421 -12561 -79
733 4420 2121 10627 -12562 -336
731 4405 2106 10879 -12486 -350
729 4393 2092 11052 -12443 -168
728 4372 2092 11209 -12457 -2
729 4382 2091 11118 -12367 13
733 4420 2102 10679 -12348 67
736 4446 2125 10544 -12335 37
737 4445 2123 10714 -12477 -32
731 4407 2094 11110 -12568 -39
728 4345 2079 11168 -12648 -32
726 4350 2090 10902 -12598 -39
732 4402 2101 10840 -12580 -32
736 4445 2120 10850 -12503 30
735 4441 2115 10724 -12391 140
731 4405 2101 10759 -12462 213
726 4371 2089 11004 -12573 91
729 4394 2098 11020 -12620 -86
735 4438 2114 10944 -12619 -135
738 4458 2123 10922 -12509 -70
735 4430 2113 10738 -12436 86
728 4383 2091 10597 -12487 150
727 4357 2085 10649 -12482 18
727 4370 2090 10773 -12498 -106
732 4412 2109 10956 -12519 -89
734 4437 2121 11091 -12501 51
735 4432 2117 11093 -12456 169
731 4408 2104 10986 -12410 132
726 4361 2086 10813 -12483 -2
723 4319 2074 10666 -12620 -104
724 4325 2073 10633 -12616 -115
729 4369 2091 10767 -12472 -48
734 4417 2112 10947 -12428 93
734 4436 2116 11071 -12425 178
733 4410 2107 11058 -12445 160
729 4376 2094 10824 -12529 70
727 4356 2086 10564 -12554 -90
727 4365 2088 10579 -12551 -194
730 4386 2099 10886 -12550 53
730 4385 2099 10970 -12466 185
727 4361 2090 10967 -12473 205
726 4338 2079 10881 -12562 125
726 4361 2090 10795 -12607 20
733 4414 2110 10787 -12561 -30
740 4474 2134 10830 -12505 22
741 4491 2139 10879 -12520 116
739 4467 2128 10899 -12583 115
736 4443 2119 10887 -12632 5
738 4462 2126 10846 -12697 -87
744 4519 2149 10834 -12647 -91
748 4564 2166 10875 -12502 2
749 4569 2169 10880 -12428 117
745 4531 2154 10856 -12424 115
741 4487 2134 10871 -12471 -12
738 4458 2127 10893 -12523 -128
738 4463 2133 10927 -12519 -101
742 4497 2149 11009 -12459 44
744 4519 2159 11071 -12428 189
743 4499 2150 11038 -12422 228
737 4435 2121 10935 -12454 126
732 4390 2110 10820 -12506 -21
736 4431 2134 10766 -12536 -112
749 4549 2178 10891 -12500 -108
759 4645 2211 11091 -12438 30
756 4628 2203 11135 -12462 208
746 4523 2160 11011 -12511 204
736 4437 2128 10796 -12544 -13
736 4443 2132 10617 -12540 -248
745 4517 2159 10659 -12492 -258
751 4580 2183 10884 -12364 4
751 4584 2187 11083 -12226 331
749 4556 2176 11178 -12209 404
748 4558 2173 11223 -12295 147
752 4599 2189 11208 -12397 -177
756 4633 2203 11091 -12452 -307
754 4614 2191 10916 -12419 -189
749 4555 2170 10801 -12319 4
747 4531 2161 10778 -12321 74
749 4559 2171 10864 -12366 -11
753 4586 2182 11040 -12362 -101
753 4573 2179 11171 -12342 -57
747 4524 2160 11218 -12324 102
739 4471 2136 11244 -12330 161
737 4442 2128 11238 -12382 42
738 4461 2137 11160 -12440 -91
743 4506 2156 11071 -12413 -92
745 4533 2167 11029 -12331 24
742 4512 2157 11036 -12271 110
737 4463 2137 11068 -12362 -13
736 4428 2125 11020 -12412 -155
738 4451 2134 11017 -12410 -198
744 4516 2158 11083 -12380 -88
748 4561 2178 11146 -12345 90
748 4556 2174 11123 -12327 187
744 4510 2154 11069 -12362 118
740 4475 2140 11030 -12421 -64
740 4486 2146 10990 -12434 -195
746 4531 2164 11044 -12309 60
750 4569 2181 11129 -12273 206
749 4564 2181 11212 -12332 161
745 4521 2161 11215 -12406 -3
741 4479 2146 11116 -12427 -133
740 4473 2144 11013 -12397 -147
743 4492 2153 11003 -12356 -19
747 4524 2169 11055 -12313 144
749 4552 2179 11113 -12306 182
751 4566 2184 11145 -12336 72
751 4574 2185 11121 -12417 -61
754 4577 2182 11051 -12470 -123
748 4559 2175 10983 -12446 -115
747 4537 2170 10979 -12382 -68
747 4533 2168 11053 -12323 -25
747 4547 2172 11142 -12298 -4
749 4564 2180 11167 -12302 20
750 4579 2186 11115 -12323 25
751 4589 2188 11022 -12344 -11
751 4581 2184 10946 -12365 -81
748 4548 2173 10950 -12398 -131
744 4509 2158 11030 -12403 -106
740 4475 2145 11118 -12363 -47
739 4463 2141 11177 -12364 35
739 4471 2145 11208 -12366 111
741 4482 2150 11173 -12342 140
744 4510 2160 11109 -12315 111
748 4547 2175 11069 -12333 38
750 4571 2184 11028 -12394 -44
750 4559 2177 10964 -12424 -90
746 4528 2165 10957 -12436 -94
742 4499 2152 11071 -12396 -89
739 4478 2142 11140 -12351 -12
740 4477 2144 11142 -12312 97
742 4490 2150 11106 -12302 143
741 4497 2154 11071 -12331 100
741 4488 2149 11042 -12373 28
740 4468 2141 11018 -12404 -35
738 4456 2137 11025 -12394 -80
740 4458 2138 11101 -12357 43
743 4472 2146 11081 -12331 69
743 4488 2150 11035 -12329 24
742 4489 2148 10975 -12359 -27
739 4476 2141 10960 -12403 -58
738 4461 2135 11008 -12421 -46
739 4456 2135 11065 -12412 13
738 4466 2138 11065 -12397 79
741 4477 2143 11033 -12390 89
740 4468 2140 11014 -12400 55
738 4448 2130 11008 -12430 28
735 4435 2126 11019 -12450 19
738 4447 2130 11043 -12410 34
738 4466 2137 11053 -12367 66
738 4464 2135 11045 -12371 59
737 4448 2130 11037 -12380 4
737 4440 2126 11034 -12376 -41
737 4451 2130 11025 -12357 0
738 4458 2132 11035 -12336 91
735 4436 2123 11099 -12367 117
731 4388 2104 11179 -12440 110
728 4357 2093 11209 -12446 105
729 4368 2098 11158 -12395 135
731 4397 2109 11018 -12364 200
731 4396 2107 10882 -12361 192
728 4348 2088 10874 -12372 68
722 4302 2066 10984 -12386 -47
722 4295 2065 11137 -12380 -33
726 4344 2086 11242 -12351 105
733 4410 2110 11201 -12328 216
735 4433 2114 10758 -12315 -54
732 4385 2091 10661 -12320 -191
722 4300 2055 10829 -12292 -143
715 4236 2028 11100 -12258 113
715 4236 2029 11300 -12210 368
720 4291 2052 11294 -12235 433
727 4342 2070 11160 -12331 304
725 4341 2068 11052 -12448 94
719 4274 2041 11011 -12517 -11
713 4209 2016 11021 -12522 128
712 4213 2017 11049 -12486 407
718 4276 2043 11050 -12447 609
724 4323 2060 11027 -12469 563
722 4307 2053 11005 -12544 305
717 4255 2032 11010 -12592 117
714 4226 2018 11033 -12549 159
715 4254 2027 11032 -12451 354
721 4300 2047 11012 -12359 459
725 4328 2057 10978 -12336 344
721 4309 2047 10964 -12365 147
717 4265 2030 11020 -12389 71
715 4242 2024 11123 -12330 162
717 4276 2040 11181 -12283 344
725 4344 2065 11159 -12301 470
728 4374 2077 11090 -12336 415
722 4335 2061 11011 -12399 249
716 4255 2028 11000 -12413 139
710 4194 2007 11063 -12375 217
710 4203 2012 11117 -12294 436
718 4283 2042 11120 -12205 593
728 4367 2072 11099 -12221 537
729 4383 2079 11106 -12336 277
724 4326 2056 11104 -12411 -4
715 4249 2026 11061 -12411 -73
710 4198 2005 11015 -12347 142
709 4189 2002 11038 -12271 480
710 4214 2015 11152 -12242 674
714 4236 2025 11272 -12284 624
714 4238 2027 11302 -12375 409
711 4217 2018 11207 -12442 204
708 4186 2002 10792 -12412 196
707 4161 1990 10810 -12299 266
708 4158 1990 10999 -12245 330
711 4188 2004 11201 -12253 336
712 4230 2020 11279 -12314 297
713 4234 2020 11231 -12387 223
708 4188 2000 11128 -12410 160
700 4114 1972 11045 -12365 211
696 4088 1964 11040 -12326 405
703 4134 1985 11023 -12322 597
711 4201 2009 11028 -12407 377
711 4205 2011 11096 -12448 125
706 4155 1995 11121 -12427 114
698 4094 1961 11140 -12366 347
697 4078 1957 11124 -12289 529
702 4123 1985 10932 -12300 528
708 4192 2006 10884 -12374 350
712 4218 2009 11054 -12473 149
706 4169 1995 11124 -12372 324
700 4106 1971 11155 -12281 592
696 4087 1961 11113 -12290 652
701 4126 1987 11034 -12336 456
709 4201 2011 11138 -12417 206
710 4209 1999 11248 -12419 75
706 4162 1992 11028 -12338 233
703 4116 1984 10920 -12231 471
705 4151 1987 11006 -12225 489
712 4199 2000 11012 -12277 282
715 4223 2021 11078 -12315 144
708 4184 2003 11290 -12366 250
702 4130 1982 11324 -12368 494
699 4103 1967 11176 -12372 642
700 4114 1970 11112 -12333 481
704 4160 1993 10874 -12382 269
711 4219 2022 10716 -12418 133
717 4268 2038 10832 -12357 98
715 4239 2017 11139 -12336 205
705 4158 1989 11445 -12258 430
696 4070 1961 11506 -12265 723
695 4061 1956 11441 -12313 780
700 4113 1968 11209 -12380 521
709 4200 2009 10844 -12467 154
716 4267 2040 10545 -12472 -63
720 4293 2045 10542 -12402 -42
716 4255 2023 10810 -12302 173
707 4180 1997 11228 -12229 480
700 4112 1974 11617 -12222 744
698 4089 1965 11744 -12293 797
701 4114 1975 10988 -12506 341
705 4158 1994 10536 -12483 92
715 4224 2023 10362 -12447 5
720 4268 2033 10571 -12385 56
717 4262 2029 10977 -12321 250
711 4216 2013 11437 -12253 488
705 4158 1988 11690 -12248 657
700 4113 1973 11573 -12290 650
698 4100 1969 11253 -12329 473
702 4124 1979 10573 -12459 158
706 4167 1996 10565 -12431 116
711 4206 2014 10861 -12359 170
711 4211 2011 11173 -12320 345
707 4181 1996 11376 -12315 500
704 4158 1992 11423 -12330 481
706 4169 1996 11312 -12360 353
706 4181 1996 11118 -12366 304
706 4161 1992 10962 -12351 368
703 4131 1981 10874 -12343 418
700 4115 1974 10846 -12386 383
704 4135 1982 10956 -12441 277
706 4173 1996 11122 -12417 199
711 4197 2004 11188 -12360 268
709 4180 1998 11177 -12322 429
704 4145 1986 11130 -12317 519
702 4121 1977 11038 -12357 469
705 4135 1984 10965 -12400 320
708 4183 2004 10973 -12437 189
712 4225 2018 11014 -12441 201
712 4216 2014 11033 -12385 365
708 4169 1994 11060 -12324 539
702 4128 1977 11097 -12297 559
704 4127 1978 11122 -12326 412
705 4161 1990 11112 -12372 239
709 4188 2002 11050 -12371 179
709 4186 2001 10998 -12331 261
706 4161 1992 11010 -12296 393
702 4133 1980 11074 -12289 467
701 4123 1975 11121 -12323 442
701 4126 1978 11104 -12393 369
702 4136 1984 11049 -12420 317
704 4142 1985 11011 -12401 313
702 4131 1980 11015 -12384 362
702 4118 1973 11050 -12355 405
700 4107 1970 11075 -12339 406
700 4106 1968 11079 -12338 372
700 4109 1972 11094 -12361 344
701 4114 1974 11126 -12379 340
702 4114 1973 11147 -12358 351
700 4108 1968 11029 -12323 425
699 4093 1964 10943 -12344 423
699 4085 1964 10940 -12361 368
701 4103 1971 11035 -12355 280
702 4125 1977 11134 -12343 285
702 4121 1975 11174 -12335 399
701 4093 1967 11145 -12348 474
698 4083 1963 11075 -12382 416
700 4107 1968 11034 -12403 306
702 4127 1975 11087 -12304 424
701 4118 1972 11107 -12274 515
697 4085 1957 11096 -12297 482
695 4057 1946 11074 -12328 346
696 4065 1951 11060 -12348 240
698 4095 1964 11086 -12355 280
701 4119 1974 11136 -12344 418
702 4115 1973 11139 -12332 529
697 4090 1962 11078 -12349 529
696 4062 1953 11020 -12387 416
698 4067 1955 10999 -12414 299
702 4104 1970 11038 -12419 291
704 4130 1977 11105 -12376 393
701 4119 1974 11161 -12317 497
698 4091 1965 11192 -12298 470
697 4075 1957 11170 -12307 344
696 4079 1958 11096 -12328 260
698 4096 1966 11010 -12316 276
698 4100 1969 10981 -12294 344
699 4088 1965 11029 -12311 388
697 4072 1957 11074 -12345 379
698 4073 1957 11090 -12390 326
697 4086 1963 11109 -12406 294
700 4104 1973 11118 -12413 317
702 4121 1979 11100 -12398 368
704 4130 1983 11073 -12372 417
703 4134 1986 11099 -12393 454
702 4130 1985 11192 -12408 456
704 4131 1988 11295 -12390 435
705 4140 1991 11312 -12356 434
704 4136 1992 11091 -12274 454
700 4106 1982 11117 -12252 297
700 4103 1983 11251 -12344 173
703 4136 1997 11279 -12357 201
704 4155 2004 11182 -12286 246
709 4165 2010 11065 -12170 258
705 4161 2010 11049 -12173 299
705 4134 2002 11199 -12227 286
702 4112 1995 11389 -12265 239
701 4098 1989 11341 -12306 214
702 4093 1987 11167 -12252 201
700 4078 1985 11119 -12161 164
695 4051 1979 11242 -12204 180
693 4035 1974 11409 -12274 219
690 4001 1961 11484 -12251 122
683 3942 1938 11379 -12291 -58
678 3891 1922 11192 -12197 -195
676 3876 1923 11062 -12048 -151
679 3896 1932 11094 -11979 59
681 3901 1935 11258 -11948 238
678 3861 1921 11434 -12013 212
668 3788 1891 11513 -12144 10
661 3722 1862 11451 -12213 -173
659 3697 1857 11375 -12238 -181
660 3715 1864 11388 -12229 -8
663 3736 1876 11515 -12181 168
662 3715 1866 11767 -12117 65
657 3663 1842 12079 -12237 -181
658 3682 1847 12181 -12335 -116
666 3782 1886 11779 -12154 368
673 3848 1909 11032 -11766 826
667 3785 1885 10695 -11444 734
651 3630 1826 11290 -11569 192
640 3511 1782 12444 -12073 -204
639 3521 1787 13313 -12500 -83
648 3608 1817 13271 -12455 437
654 3661 1842 12392 -12039 964
650 3595 1833 11526 -11649 1027
636 3438 1791 11654 -11615 502
625 3296 1757 11779 -12154 368
621 3247 1762 11032 -11766 826
623 3252 1785 10695 -11444 734
619 3194 1781 11290 -11569 192
603 3015 1728 12444 -12073 -204
579 2766 1636 13313 -12500 -83
547 2467 1521 13271 -12455 437
518 2179 1414 12392 -12039 964
498 2011 1346 11526 -11649 1027
492 1968 1314 11654 -11615 502
475 1797 1254 13932 -12627 -198
460 1606 1198 14253 -12573 236
455 1595 1175 13674 -11729 844
442 1474 1112 12950 -10724 1180
420 1278 1025 13024 -10674 966
406 1135 962 13837 -11333 141
401 1074 934 14557 -12249 -853
393 990 897 14739 -13999 -1101
385 899 852 15019 -14323 -1191
384 844 818 15316 -12290 -1676
378 816 791 15174 -11686 -1210
382 805 776 15658 -12574 -131
388 814 773 16095 -13400 133
402 840 789 15553 -12852 -1086
415 875 813 14762 -12265 -2516
433 923 859 14723 -12526 -3026
459 985 942 15343 -12184 -2975
484 1047 1038 15712 -11400 -2651
503 1096 1130 15840 -10422 -2476
522 1111 1184 14967 -10054 -3215
509 1063 1155 14027 -9661 -4248
470 885 1040 13176 -8943 -5189
404 712 866 12963 -8773 -5640
350 680 745 13502 -8876 -5913
333 680 705 13998 -8973 -6225
334 675 694 14122 -8820 -6674
330 680 685 13711 -8428 -7073
330 675 684 12737 -7643 -7323
330 672 681 11639 -6740 -7681
335 673 679 11932 -6482 -7961
332 675 681 12216 -6315 -8148
331 672 678 12081 -6044 -8304
328 672 680 11282 -5444 -8664
332 672 681 10109 -5098 -9262
335 671 680 9301 -5054 -10041
330 675 683 9202 -5049 -10712
327 672 679 9556 -5137 -10850
335 673 678 10769 -4598 -10580
333 676 679 10894 -4388 -10632
329 675 677 10809 -4612 -10913
336 671 678 10800 -5155 -11420
329 679 678 10668 -4974 -12089
328 672 678 10233 -4091 -12368
339 671 679 9854 -3064 -11755
329 675 680 9614 -1701 -10689
327 670 677 8855 -446 -9851
331 676 677 7805 411 -9676
330 670 680 7351 1017 -9951
332 671 674 7354 1047 -10297
330 674 677 7750 297 -10945
326 674 676 8377 -484 -11879
331 677 676 8510 -682 -12587
325 672 679 8195 -1343 -12584
330 673 676 8105 -2073 -12594
331 670 680 7976 -2516 -12945
337 676 674 7736 -3045 -13085
329 677 673 7689 -3121 -12862
330 667 683 7751 -3307 -12459
327 680 676 5995 -4769 -13347
332 670 679 5530 -6035 -15394
325 675 677 6645 -5361 -15625
334 666 679 6026 -3774 -13148
332 673 674 6302 -2510 -11192
325 679 676 6936 -4242 -12006
331 671 675 6445 -7114 -14141
328 674 677 5073 -8461 -14978
329 675 677 3936 -8615 -14280
334 679 673 3523 -7153 -13797
328 676 674 3898 -6074 -14497
327 675 680 4093 -5089 -14775
331 672 673 4288 -4165 -14512
329 677 678 3974 -3880 -13949
331 674 676 3413 -4147 -13782
329 668 679 3450 -4460 -14259
331 676 673 3280 -4860 -14558
331 676 678 2719 -4869 -14211
329 674 675 2964 -4429 -13422
325 671 686 3265 -4254 -12589
335 671 675 4605 -4559 -12555
334 667 676 6597 -5785 -14536
328 676 675 7404 -6905 -15545
331 671 678 7263 -6310 -13914
330 672 673 6813 -4896 -12002
330 668 681 7105 -4293 -12054
338 672 670 8275 -4578 -13614
331 672 679 9098 -5112 -14656
340 672 674 9355 -4956 -14477
331 672 676 9043 -4523 -13799
328 676 672 9117 -4438 -13741
333 674 675 9765 -4521 -14410
324 674 674 9995 -4801 -14689
329 668 679 9432 -5270 -14267
328 673 677 8530 -5710 -13759
334 670 675 8663 -5251 -13773
332 670 675 9349 -4845 -13898
328 678 676 9312 -5114 -13609
333 671 675 9155 -5253 -13250
323 671 679 9188 -5534 -13039
330 677 677 9171 -5931 -12898
330 671 675 9557 -6038 -12772
326 675 676 9600 -6451 -12599
328 669 677 9036 -7055 -12390
331 671 675 8900 -6972 -12083
323 672 679 9205 -6762 -11723
336 670 670 9655 -7005 -11624
325 674 674 9764 -7421 -11721
333 665 673 9541 -6990 -11663
331 675 675 9635 -6837 -11741
336 669 677 9754 -6856 -11900
330 671 677 9871 -6791 -11928
332 671 675 9675 -6934 -11872
336 669 674 9466 -6948 -12028
331 676 680 9270 -6785 -12128
333 679 673 8936 -6650 -12117
328 671 683 8676 -6620 -12164
327 670 678 8956 -6091 -12323
333 670 674 8893 -6060 -12249
327 670 682 8627 -6219 -12154
328 672 675 8412 -6367 -12160
333 667 677 8322 -6370 -12198
331 670 672 8353 -6208 -12226
323 677 676 8180 -6299 -12160
335 668 678 7898 -6492 -12057
328 673 671 7643 -6625 -12000
332 674 672 7831 -6458 -12275
322 675 673 7896 -5737 -12240
325 676 675 7800 -4947 -11447
330 669 681 8147 -4400 -10406
327 671 673 9000 -4442 -9760
333 667 675 10649 -4530 -9768
329 671 676 12153 -4419 -10001
332 674 670 12363 -5039 -10240
329 669 675 12195 -5541 -10629
330 674 676 12533 -5407 -10751
328 667 676 12449 -4924 -10575
331 671 671 11711 -4036 -10287
334 666 677 10648 -3936 -10126
328 679 671 10063 -5372 -11444
332 676 671 10103 -7178 -13918
327 687 675 9575 -6903 -14053
328 680 677 8333 -6126 -13463
332 683 674 7043 -6050 -14065
331 677 676 5924 -5748 -14636
325 674 679 5118 -4737 -14767
334 672 682 3907 -4332 -14854
330 665 674 2624 -4031 -14708
333 673 679 1817 -3223 -14748
329 667 678 1401 -2623 -15203
335 671 677 3114 -1060 -14657
329 674 673 4183 -50 -14787
329 663 680 4340 582 -15631
333 678 671 4984 1300 -15683
326 675 671 4551 1585 -15250
333 669 678 4716 2026 -14759
327 672 672 6688 3702 -15436
334 672 673 6979 4264 -15902
332 669 675 7088 4556 -15930
332 674 672 6745 4618 -15792
330 679 669 6500 4877 -15680
331 671 672 6070 5305 -15695
329 675 675 5579 5656 -15746
332 675 676 5546 5840 -15789
328 674 671 5622 6015 -15852
329 675 676 4783 6595 -15569
330 670 682 4021 6698 -15146
328 668 686 3410 6657 -14800
326 672 679 3187 6737 -14709
332 669 681 3163 7017 -14798
325 674 675 3293 7151 -14940
333 670 677 3482 7063 -15063
326 672 675 3572 6960 -15096
336 675 676 3582 6965 -14993
327 670 674 3298 6724 -14843
331 671 684 3106 6625 -14800
325 671 671 3179 7005 -14794
330 672 671 3172 7291 -14648
331 673 679 3140 7169 -14683
328 673 675 3052 6798 -14840
331 673 672 3034 6755 -14857
330 676 673 3058 7009 -14842
331 672 678 3160 7176 -14860
328 668 681 3385 7240 -14815
328 673 675 3670 7322 -14728
330 666 682 3931 7355 -14673
325 673 673 4026 7335 -14623
332 673 673 3987 7321 -14570
329 667 677 3908 7329 -14445
325 669 674 3796 7319 -14305
331 677 671 3703 7230 -14208
333 674 678 3671 7065 -14199
324 667 678 3723 7039 -14222
325 674 672 3773 7158 -14222
330 674 670 3797 7248 -14302
330 673 678 3793 7155 -14339
325 669 674 3706 7087 -14309
331 669 671 3624 7088 -14237
329 673 677 3517 7083 -14240
329 672 679 3368 7025 -14256
326 667 679 3259 6992 -14254
332 671 673 3288 7000 -14339
328 669 674 3369 7003 -14417
328 671 669 3416 7023 -14449
332 673 671 3430 7120 -14507
331 673 672 3431 7230 -14563
327 674 675 3421 7225 -14551
333 673 672 3413 7145 -14490
332 673 673 3437 7103 -14446
333 675 674 3475 7130 -14424
336 671 678 3484 7183 -14399
324 672 674 3416 7184 -14328
328 669 670 3319 7164 -14246
328 671 673 3225 7144 -14186
333 671 675 3138 7075 -14191
323 671 673 3140 6987 -14245
330 670 680 3192 6938 -14309
327 672 677 3221 6947 -14392
328 670 670 3241 6964 -14443
333 673 672 3321 6957 -14499
325 672 670 3422 6948 -14570
330 672 670 3467 6974 -14601
332 670 669 3436 6987 -14578
330 672 671 3386 6916 -14543
328 669 670 3385 6819 -14526
334 672 672 3413 6851 -14542
325 670 672 3444 6951 -14590
330 670 672 3418 6973 -14576
322 673 673 3363 6944 -14509
328 673 676 3327 6936 -14489
326 667 668 3305 6917 -14483
330 671 677 3331 6863 -14459
325 671 674 3371 6870 -14440
331 672 671 3375 6910 -14424
333 671 673 3352 6910 -14423
324 670 673 3363 6801 -14432
327 671 671 3379 6804 -14491
329 674 674 3372 6908 -14576
331 673 682 3373 6999 -14618
329 673 670 3368 7030 -14611
328 671 675 3359 7010 -14575
330 671 671 3342 6928 -14542
324 674 676 3354 6858 -14536
327 670 677 3397 6823 -14571
327 668 667 3373 6910 -14593
328 667 670 3283 6978 -14577
331 664 671 3232 7035 -14558
328 674 670 3264 7038 -14556
330 673 678 3308 6988 -14569
328 669 674 3294 6905 -14576
321 671 671 3277 6813 -14579
330 670 670 3296 6744 -14583
323 673 669 3346 6752 -14605
326 669 672 3286 7077 -14633
334 669 671 3211 7158 -14579
325 672 672 3166 7057 -14486
326 673 674 3170 6892 -14439
328 672 674 3208 6859 -14464
324 667 672 3292 6911 -14534
320 668 671 3367 6975 -14586
324 668 673 3341 7071 -14574
328 670 672 3242 7152 -14495
325 669 670 3153 7124 -14410
330 669 674 3144 7030 -14405
327 668 674 3157 6958 -14423
328 673 676 3167 6876 -14383
323 677 679 3235 6830 -14465
326 673 673 3310 6893 -14588
325 668 672 3281 6981 -14582
333 665 671 3233 7013 -14552
328 668 672 3248 7087 -14548
333 670 673 3244 7142 -14550
329 663 672 3225 7138 -14530
324 670 670 3216 7118 -14521
329 669 670 3245 7032 -14546
329 668 671 3313 6983 -14598
329 671 672 3345 6907 -14603
328 672 672 3355 6802 -14596
326 670 675 3345 6787 -14610
326 667 674 3306 6841 -14606
331 665 670 3254 6926 -14576
332 671 671 3204 6936 -14546
329 663 672 3236 6847 -14548
333 665 672 3285 6802 -14574
331 668 675 3317 6839 -14608
333 667 672 3334 6843 -14614
326 671 674 3297 6857 -14606
324 668 671 3245 6980 -14617
334 669 671 3231 7078 -14637
331 670 670 3238 7036 -14641
327 669 674 3238 6965 -14611
328 674 670 3260 6949 -14584
327 674 670 3231 6977 -14564
329 668 675 3180 6974 -14515
333 669 671 3242 6898 -14505
325 672 673 3286 6797 -14481
330 674 667 3296 6769 -14465
327 668 673 3290 6840 -14474
325 673 671 3228 6911 -14472
329 666 672 3132 6915 -14473
332 670 669 3060 6922 -14481
325 674 675 3052 6971 -14529
325 672 673 3118 7001 -14591
331 670 667 3184 7012 -14626
327 675 667 3227 7037 -14642
327 667 673 3228 7048 -14626
328 667 676 3163 7026 -14588
330 666 671 3149 6956 -14549
332 670 672 3201 6906 -14555
327 673 672 3246 6922 -14605
323 672 673 3255 6954 -14621
329 674 670 3189 6970 -14590
330 669 674 3154 6957 -14591
326 672 672 3181 6940 -14623
325 678 668 3209 6957 -14645
324 678 671 3218 6995 -14645
327 667 674 3248 7012 -14632
322 679 671 3273 7006 -14622
327 665 676 3200 6994 -14591
326 672 672 3099 6985 -14541
331 666 676 3055 6961 -14470
330 668 672 3053 6946 -14431
334 668 666 3104 6956 -14435
328 673 673 3102 6895 -14524
323 672 675 3137 6926 -14530
331 670 671 3147 6951 -14546
325 665 679 3142 6953 -14577
327 668 676 3151 6938 -14591
329 668 671 3196 6956 -14609
328 671 672 3223 6984 -14635
326 666 677 3228 6978 -14645
327 667 676 3235 6992 -14657
336 664 668 3217 7030 -14621
332 674 670 3207 6954 -14600
326 680 672 3188 6906 -14578
330 670 669 3183 6944 -14555
322 670 679 3208 6989 -14569
327 671 672 3231 7006 -14603
331 663 676 3243 6984 -14608
326 671 671 3239 6926 -14588
328 676 669 3260 6911 -14593
328 672 674 3222 6955 -14593
324 669 679 3165 6965 -14552
329 669 671 3170 6924 -14520
331 669 668 3143 6917 -14524
328 667 674 3122 6942 -14542
329 669 668 3129 6980 -14545
327 668 672 3104 6961 -14547
324 669 675 3074 6900 -14564
321 671 681 3078 6905 -14585
331 664 679 3113 6933 -14612
329 666 672 3151 6897 -14645
331 667 667 3183 6885 -14671
333 671 666 3245 6923 -14700
327 671 675 3276 6928 -14703
333 665 671 3258 6925 -14681
327 674 675 3241 6887 -14653
338 665 676 3226 6824 -14627
334 670 670 3218 6802 -14603
333 664 669 3194 6789 -14570
329 671 668 3145 6796 -14547
324 664 677 3095 6825 -14539
328 667 671 3183 6885 -14671
325 668 677 3245 6923 -14700
327 672 672 3276 6928 -14703
329 672 667 3258 6925 -14681
321 671 677 3241 6887 -14653
326 668 677 3226 6824 -14627
332 661 672 3218 6802 -14603
327 669 672 3194 6789 -14570
332 668 668 3145 6796 -14547
331 666 672 3095 6825 -14539
323 679 670 3029 6787 -14528
326 675 668 3083 6812 -14596
327 663 677 3126 6940 -14656
325 667 675 3149 7025 -14684
336 666 668 3173 6969 -14677
326 673 670 3174 6874 -14652
323 672 674 3143 6827 -14633
329 668 673 3126 6818 -14631
332 669 669 3125 6817 -14639
330 674 675 3110 6818 -14635
329 671 674 3092 6841 -14612
329 669 672 3122 6859 -14613
334 662 673 3162 6852 -14631
331 670 670 3160 6875 -14628
326 674 665 3144 6886 -14609
324 668 674 3138 6863 -14594
331 667 670 3115 6866 -14601
327 668 675 3083 6837 -14592
328 666 672 3083 6779 -14554
332 665 670 3140 6936 -14571
330 667 678 3129 6971 -14573
332 670 665 3108 6932 -14549
324 673 670 3096 6892 -14540
325 674 671 3102 6877 -14584
331 669 670 3104 6850 -14618
322 670 679 3124 6837 -14631
332 669 676 3163 6858 -14666
329 667 674 3210 6844 -14714
331 666 671 3228 6847 -14750
326 676 669 3205 6887 -14757
325 669 673 3207 6875 -14753
333 670 669 3240 6845 -14754
327 671 670 3229 6844 -14733
324 674 676 3218 6853 -14702
329 669 671 3227 6884 -14690
327 671 670 3175 6868 -14646
325 674 672 3123 6829 -14589
327 670 678 3072 6865 -14560
328 667 676 3003 6890 -14526
326 666 674 2957 6856 -14488
330 671 670 2968 6796 -14505
326 670 670 3056 6725 -14564
331 673 667 3162 6694 -14612
326 672 667 3226 6727 -14665
328 674 669 3232 6754 -14696
328 664 672 3215 6769 -14709
328 672 667 3201 6815 -14730
327 672 674 3202 6936 -14741
327 667 677 3159 7061 -14701
327 666 671 3013 6921 -14521
329 668 672 3034 6822 -14516
331 673 669 3076 6733 -14548
333 668 671 3067 6683 -14590
330 667 671 3093 6709 -14665
327 670 671 3123 6780 -14714
326 673 669 3118 6860 -14710
328 669 672 3084 6911 -14686
329 675 669 3089 6900 -14663
331 665 677 3191 6952 -14593
328 670 672 3177 7014 -14562
327 668 670 3104 6929 -14503
330 673 669 3064 6828 -14499
329 676 668 3036 6775 -14539
326 665 677 3050 6790 -14606
326 671 673 3107 6879 -14685
328 669 673 3172 6968 -14756
329 671 665 3239 7033 -14801
327 672 672 3285 7071 -14817
325 669 675 3335 7043 -14802
328 668 677 3408 7028 -14807
330 668 671 3498 7068 -14846
326 665 673 3563 7112 -14882
329 669 673 3563 7082 -14867
330 668 668 3520 6944 -14791
324 670 670 3445 6819 -14713
330 674 668 3391 6757 -14671
329 671 676 3357 6877 -14691
328 676 668 3378 7051 -14717
326 668 678 3420 7071 -14692
328 670 676 3407 7001 -14666
332 672 674 3378 6901 -14664
328 665 672 3386 6838 -14656
329 672 668 3430 6850 -14633
327 672 673 3424 6926 -14610
326 670 674 3400 7029 -14591
329 673 666 3404 7047 -14590
330 668 672 3415 6919 -14582
328 671 673 3430 6807 -14554
327 667 678 3339 6983 -14497
326 670 672 3322 6999 -14512
323 667 674 3385 6827 -14507
330 669 668 3481 6650 -14510
327 672 669 3557 6600 -14513
331 670 672 3566 6625 -14522
327 670 671 3543 6635 -14560
329 676 665 3570 6599 -14599
329 664 675 3751 6543 -14656
332 678 669 4119 6535 -14697
331 675 670 4214 6476 -14675
327 674 672 4265 6393 -14632
327 671 672 4205 6375 -14656
330 669 667 4146 6478 -14621
330 674 670 4257 6528 -14506
326 671 676 4508 6298 -14446
325 674 680 4688 5856 -14340
330 672 666 4801 5443 -14273
335 674 672 4987 5159 -14293
329 675 679 5414 5025 -14359
330 672 676 5963 5169 -14512
332 672 670 6186 5370 -14585
330 673 667 6221 5235 -14560
327 669 672 6437 4832 -14594
330 672 673 6727 4397 -14620
328 673 678 6941 4031 -14590
326 671 675 7012 3669 -14428
326 669 677 7087 3303 -14275
332 672 675 7223 3010 -14184
330 677 672 7414 2856 -14109
330 675 669 7607 2887 -14151
329 674 677 7607 3161 -14228
326 674 679 7526 3519 -14298
331 671 674 7504 3636 -14296
325 677 678 7407 3485 -14130
324 677 680 7169 3314 -13924
330 670 671 7014 3184 -13815
322 672 678 6885 3130 -13749
330 673 671 6741 3280 -13732
328 675 670 6709 3464 -13754
328 672 677 6697 3538 -13786
328 672 669 6735 3518 -13782
325 673 672 6955 3398 -13797
328 672 676 7269 3216 -13878
328 669 669 7527 3052 -13934
331 674 674 7714 2927 -13930
335 674 669 7789 2835 -13835
326 676 675 7778 2789 -13749
330 671 672 7748 2769 -13753
330 672 669 7716 2648 -13761
324 673 678 7811 2511 -13690
327 676 677 7995 2451 -13713
330 672 670 8203 2451 -13820
322 671 672 8346 2387 -13904
332 672 670 8467 2279 -13959
328 672 671 8575 2212 -13963
331 670 672 8670 2163 -13931
324 672 678 8707 2110 -13886
326 670 671 8701 1999 -13786
330 672 671 8755 1957 -13716
334 670 669 8810 1930 -13645
333 675 678 8910 1886 -13598
330 667 669 9074 1866 -13593
333 669 674 9121 1941 -13625
331 671 667 9022 2074 -13627
327 670 671 8959 2230 -13597
326 670 674 8960 2377 -13565
331 670 670 9018 2502 -13584
331 672 668 9110 2665 -13635
325 674 673 9256 2757 -13645
331 665 672 9388 2678 -13597
330 671 676 9440 2593 -13522
324 671 678 9471 2570 -13457
329 669 667 9412 2575 -13395
331 674 670 9233 2548 -13314
325 670 675 9133 2438 -13255
327 670 674 9214 2293 -13237
328 669 671 9372 2143 -13242
330 668 670 9455 2004 -13260
332 672 674 9476 1894 -13222
331 671 670 9523 1851 -13144
325 671 676 9560 1930 -13120
328 676 675 9571 2127 -13149
327 673 674 9564 2345 -13170
331 668 670 9572 2465 -13153
328 668 673 9581 2465 -13105
327 672 672 9605 2396 -13062
330 671 673 9652 2354 -13064
324 668 669 9738 2492 -13203
328 672 669 9814 2400 -13174
330 672 669 9898 2309 -13169
325 673 675 9913 2229 -13145
324 668 673 9853 2224 -13111
321 671 673 9763 2314 -13089
332 667 669 9680 2395 -13066
330 671 672 9639 2384 -13055
331 673 669 9638 2303 -13040
327 669 673 9676 2254 -13040
327 669 673 9739 2255 -13071
329 672 668 9796 2242 -13081
330 665 672 9823 2200 -13073
325 674 674 9851 2155 -13069
328 670 671 9905 2147 -13050
324 668 670 9924 2151 -13025
324 673 675 9888 2140 -12995
321 672 672 9832 2141 -12970
330 673 668 9816 2153 -12965
329 669 676 9836 2192 -12968
327 663 673 9877 2224 -12971
327 667 667 9911 2201 -12967
323 668 673 9923 2186 -12960
327 669 671 9944 2209 -12963
325 677 679 9947 2214 -12974
330 666 672 9949 2191 -12976
324 675 673 9929 2166 -12961
328 673 670 9874 2141 -12935
323 675 670 9839 2119 -12907
330 668 669 9862 2118 -12902
327 670 673 9946 2141 -12925
331 668 669 9999 2157 -12940
327 674 672 9970 2167 -12942
331 673 669 9929 2164 -12935
324 671 673 9920 2146 -12925
326 674 670 9910 2151 -12919
331 661 672 9882 2146 -12897
331 669 670 9857 2122 -12868
329 665 671 9852 2112 -12853
330 669 674 9847 2117 -12843
334 669 668 9786 2199 -12862
331 665 674 9840 2152 -12860
326 675 671 9915 2130 -12855
325 666 674 9943 2174 -12851
329 665 673 9909 2234 -12844
329 665 672 9853 2235 -12827
329 668 671 9814 2189 -12823
330 670 670 9819 2178 -12835
324 668 675 9842 2185 -12860
325 670 671 9906 2136 -12899
330 664 673 9907 2123 -12920
324 668 670 9916 2119 -12923
330 666 671 9911 2119 -12915
331 670 669 9929 2138 -12923
325 671 673 9949 2182 -12930
325 671 672 9917 2193 -12916
332 670 672 9855 2168 -12894
328 672 673 9803 2137 -12867
333 659 673 9838 2125 -12883
330 670 668 9893 2162 -12912
328 668 671 9899 2168 -12930
329 676 664 9859 2161 -12928
323 666 676 9876 2164 -12935
324 671 670 9909 2169 -12944
325 665 672 9889 2194 -12933
330 668 669 9839 2227 -12905
333 664 672 9780 2236 -12874
328 674 672 9777 2227 -12846
323 673 673 9814 2232 -12821
327 666 674 9847 2236 -12835
320 669 678 9876 2212 -12865
328 666 673 9889 2181 -12875
327 666 674 9889 2164 -12872
332 664 672 9898 2170 -12888
328 665 673 9903 2193 -12920
327 673 670 9889 2214 -12939
326 669 670 9893 2223 -12950
331 669 665 9879 2241 -12958
324 669 669 9785 2340 -12972
325 669 672 9795 2298 -12976
325 670 671 9863 2262 -12999
329 670 667 9921 2237 -13000
324 669 672 9938 2228 -12993
328 665 672 9917 2230 -13001
326 670 673 9880 2209 -12998
324 671 675 9821 2126 -12967
325 672 680 9768 2005 -12930
333 670 672 9657 1797 -12871
326 674 670 9662 1724 -12860
326 666 676 9684 1712 -12863
327 671 673 9712 1701 -12873
330 665 671 9773 1638 -12874
328 673 667 9837 1598 -12889
328 669 672 9884 1650 -12911
326 672 672 9895 1720 -12928
329 667 674 9887 1777 -12946
327 673 670 9967 1962 -13017
329 671 670 9935 2026 -13026
322 672 671 9879 2054 -12997
327 670 673 9839 2065 -12969
328 666 670 9823 2071 -12950
333 666 670 9819 2096 -12943
328 670 669 9793 2129 -12935
329 668 669 9749 2145 -12921
327 672 669 9723 2134 -12917
325 671 673 9724 2092 -12927
329 668 671 9770 2041 -12961
331 667 672 9833 2004 -13012
334 668 667 9844 1996 -13044
324 672 671 9850 2001 -13049
325 669 674 9869 1991 -13044
326 667 681 9866 1971 -13035
329 669 675 9846 1939 -13004
324 667 678 9821 1917 -12974
329 665 675 9798 1897 -12957
329 671 669 9774 1891 -12918
330 668 674 9751 1899 -12904
330 667 669 9765 1909 -12923
326 670 670 9844 1948 -12938
327 673 671 9927 2003 -12941
322 677 665 9919 2059 -12916
324 673 673 9862 2104 -12887
329 665 675 9834 2132 -12880
324 670 674 9828 2154 -12894
329 670 670 9832 2167 -12907
328 665 677 9837 2169 -12927
331 667 675 9869 2157 -12957
333 665 668 9904 2118 -12982
328 670 671 9918 2082 -13008
323 675 665 9950 2054 -13027
327 667 677 9966 2018 -13020
328 664 673 9963 1997 -12995
320 674 671 9966 1998 -12981
330 670 673 9939 1990 -12966
329 668 671 9879 1965 -12942
325 675 671 9821 1934 -12916
326 668 670 9777 1858 -12933
326 669 673 9809 1848 -12938
327 668 673 9815 1889 -12944
323 672 670 9807 1935 -12953
325 670 672 9806 1953 -12960
330 669 673 9790 1975 -12945
327 669 671 9797 2015 -12953
330 676 668 9798 2044 -12956
324 672 675 9810 2046 -12943
324 674 669 9824 2054 -12961
324 669 673 9809 2075 -12973
327 671 671 9813 2062 -12957
333 663 675 9838 2021 -12927
329 669 671 9864 1987 -12909
328 671 670 9858 1980 -12910
327 669 672 9827 1986 -12908
327 672 670 9804 1994 -12897
330 666 673 9798 2010 -12887
324 670 674 9812 2028 -12898
325 665 676 9845 2042 -12926
329 670 668 9856 2038 -12946
330 666 673 9812 2021 -12951
330 672 669 9779 1993 -12943
330 672 675 9814 1949 -12954
329 673 675 9892 1935 -12975
325 668 673 9927 1968 -12986
329 666 673 9888 1985 -12981
328 668 672 9855 1968 -12975
326 670 672 9840 1962 -12977
329 666 675 9848 1970 -12991
326 671 670 9898 1930 -13030
320 668 675 9891 1926 -13019
329 673 669 9875 1901 -12990
321 672 673 9855 1880 -12963
329 672 669 9849 1912 -12970
330 672 667 9856 1951 -12977
322 673 669 9861 1957 -12949
329 669 664 9861 1968 -12923
327 667 672 9852 1991 -12909
327 668 671 9818 1932 -12913
326 668 670 9813 1907 -12902
328 665 676 9816 1890 -12895
328 670 670 9878 1927 -12922
325 671 669 9961 2001 -12974
325 668 673 9982 2065 -12999
324 667 675 9957 2103 -12993
326 666 671 9915 2096 -12957
328 668 668 9874 2067 -12918
331 670 668 9850 2044 -12906
323 673 671 9845 2035 -12917
326 668 673 9843 2047 -12922
330 667 671 9847 2059 -12923
328 673 671 9853 2063 -12914
328 674 672 9846 2069 -12898
330 672 669 9846 2062 -12899
326 669 671 9857 2044 -12905
322 664 676 9860 2037 -12907
326 665 673 9860 2035 -12900
325 664 678 9858 2002 -12884
325 668 670 9870 1957 -12863
327 667 670 9871 1977 -12868
327 668 666 9862 2034 -12898
330 666 672 9866 2026 -12918
326 672 669 9866 1967 -12903
327 669 671 9876 1959 -12887
328 665 668 9876 1993 -12895
324 667 675 9895 1985 -12890
328 668 675 9921 1948 -12886
324 670 671 9928 1939 -12895
330 675 668 9960 1936 -12903
328 669 669 9974 1925 -12901
326 669 670 9975 1938 -12903
329 668 673 9998 1942 -12900
328 665 669 9995 1929 -12876
327 668 668 9975 1941 -12866
326 671 673 9980 1978 -12871
326 668 673 10016 1985 -12856
326 667 664 10027 1952 -12826
327 666 671 9978 1951 -12812
331 675 667 9993 1986 -12813
333 672 667 10036 1955 -12796
329 675 675 9991 1916 -12745
329 667 671 10145 1962 -12682
323 668 673 10283 2004 -12673
326 667 672 10268 2042 -12702
331 673 663 10245 2113 -12713
331 666 671 10226 2155 -12708
330 670 669 10270 2152 -12697
326 668 667 10270 2133 -12702
328 672 668 10317 2186 -12700
328 672 670 10247 2170 -12708
327 665 671 10257 2166 -12749
323 665 675 10299 2235 -12759
329 669 667 10266 2342 -12743
327 670 671 10247 2410 -12774
330 669 669 10184 2416 -12766
325 667 669 10217 2434 -12770
330 667 668 10352 2436 -12811
327 669 673 10467 2578 -12965
327 669 669 10369 2751 -13038
329 670 673 10117 2815 -12976
325 670 671 9887 2802 -12978
327 669 669 9785 2783 -13056
327 670 670 9728 2970 -13220
330 673 670 9623 3153 -13341
328 671 676 9621 3263 -13502
329 671 666 9578 3286 -13671
325 671 671 9489 3126 -13729
330 669 671 9285 2955 -13808
325 672 674 9041 2827 -13838
326 672 671 8400 2647 -14185
324 671 673 8931 2476 -14102
325 673 672 10314 2376 -13414
328 669 671 10176 2198 -13560
328 673 674 9876 2099 -13697
327 668 671 9985 1954 -13449
323 672 674 9866 1704 -13395
329 669 669 9816 1468 -13401
326 669 677 9978 1035 -13354
327 668 670 10598 546 -13259
328 670 671 10484 386 -13183
329 669 671 10353 231 -13046
328 670 672 10382 39 -12922
324 669 671 10500 -230 -12748
324 670 671 10475 -381 -12626
328 668 668 10074 -469 -12454
326 670 673 9851 -669 -12328
325 670 673 10242 -686 -12376
323 668 667 11121 -939 -12297
321 669 674 11010 -1120 -12302
324 668 668 10470 -809 -12267
331 668 673 10294 -990 -12093
333 667 667 10382 -1640 -12078
327 669 673 9529 -2529 -12326
325 671 673 8953 -3062 -12525
329 672 673 9343 -2883 -12609
323 668 673 9334 -2964 -12709
323 667 675 8987 -3538 -12530
331 671 672 8750 -4037 -12316
327 674 695 8799 -4064 -12281
336 689 728 9135 -3871 -12211
342 739 820 9495 -3572 -12234
379 855 1006 9781 -3312 -12223
440 1084 1365 9982 -3221 -12030
553 1563 2103 10209 -3137 -11906
752 2412 3407 10652 -2852 -11909
906 2835 4180 11232 -2352 -11830
819 2318 3605 11501 -2037 -11893
718 1843 2997 11590 -1893 -11841
692 1690 2821 11952 -1603 -11306
708 1689 2871 12043 -1428 -10922
740 1744 3036 11883 480 -11371
793 1891 3305 12321 -384 -11176
879 2199 3712 13079 -1692 -9999
983 2601 4189 13880 120 -9232
1053 2846 4495 14170 -179 -9989
1008 2754 4221 13900 -271 -10380
901 2496 3650 13758 685 -9088
934 2785 3731 11590 -1893 -11841
1123 3617 4440 11952 -1603 -11306
1456 4940 5710 12043 -1428 -10922
1888 6498 7349 11883 480 -11371
2324 8028 8841 12321 -384 -11176
2781 9670 10353 13079 -1692 -9999
3078 10705 11041 13880 120 -9232
3014 10441 10427 14170 -179 -9989
2288 7868 7855 13900 -271 -10380
1541 5207 5664 13758 685 -9088
1303 4367 5076 13990 2033 -7539
1238 4158 5106 14204 3273 -7060
1290 4402 5286 14173 4047 -6552
1062 3551 4300 14333 4592 -6017
902 2855 3856 14438 5225 -5449
927 2931 4092 14500 5716 -4946
1320 4423 5806 14764 6222 -4458
1697 5755 7392 14922 6887 -3698
2256 7626 9553 14328 7554 -2915
2609 8756 10867 13449 8737 -2278
2880 9636 11966 12806 8659 -1953
3196 10620 13260 11106 7664 627
3225 10651 13427 14461 8121 1848
3213 10580 13411 16904 7906 -1730
3284 10808 13717 14142 7361 -4312
3413 11213 14209 13920 7988 -3536
3544 11625 14697 14380 8360 -2107
3657 11991 15172 13979 8728 -1497
3957 12933 16388 13239 9522 -1206
4349 14142 17953 12680 10445 -1518
4663 15098 19188 12428 11100 -1861
4829 15590 19903 12220 11005 -2198
5114 16495 21209 12165 10493 -2387
5504 17691 22931 12276 10249 -2550
6261 20021 26230 12377 10718 -2729
7043 22272 29426 12410 10970 -2749
7448 23367 31130 12261 10572 -2455
7691 23975 32246 11952 10279 -2005
7919 24554 33326 11973 10171 -1827
8251 25392 34673 12374 10275 -2028
9237 28238 38880 12510 10399 -2188
11358 34273 47264 12336 10078 -2082
11875 35438 49658 12289 9603 -1869
13192 38761 55632 12365 9536 -1669
14074 40552 59452 12365 9562 -1610
15459 43609 65267 12246 9401 -1733
16391 45414 68777 12063 9599 -1854
17894 49237 75251 11806 9883 -2029
19428 53114 79965 12200 10037 -3135
15839 43267 65434 13169 10177 -3239
13091 36416 55690 13168 9676 -3625
13626 38398 58548 12760 9100 -4060
12314 34720 53221 12575 8849 -4266
10353 28869 45103 12458 8833 -4408
7399 20339 33156 12195 8794 -4442
5731 15318 26045 12240 8820 -4796
4065 10411 18583 12266 9047 -5378
2395 5675 10741 11760 8845 -5884
1584 3363 6963 11248 8603 -6457
1535 2977 6738 10770 8828 -6920
1677 2885 7228 11032 8966 -7134
1585 2320 6579 11214 9050 -7171
1458 1968 5949 10785 9303 -7305
1452 1939 5911 10125 9765 -7453
1570 2138 6384 9370 10348 -7749
1738 2447 7063 9113 10239 -8289
1875 2716 7578 9250 9677 -8570
1877 2753 7519 9291 9664 -8508
1812 2686 7299 9120 10045 -8496
1306 1837 5164 9029 10726 -8312
848 1237 3466 9150 11128 -7808
1305 2254 6287 9213 10964 -7678
1563 2815 7900 9164 10899 -7819
1201 1713 5826 9324 10840 -7887
599 817 2378 9354 11055 -7866
371 719 975 9232 11447 -7661
339 710 720 9637 11371 -7364
333 707 708 10139 12077 -6567
339 698 703 9348 10552 -8448
332 699 698 9201 11521 -7007
329 688 701 10173 10964 -7838
332 687 694 9714 10581 -8097
328 689 690 8443 10286 -8668
329 684 683 7064 9977 -9538
327 683 685 6054 9690 -10336
328 682 683 5556 9564 -10826
328 676 685 4771 9360 -11306
328 670 685 2151 8919 -12457
328 672 685 1563 8825 -12796
330 675 678 1198 8725 -12870
330 674 680 641 8614 -12849
330 676 680 -165 8517 -12914
325 677 682 -1062 8402 -13281
325 676 689 -1834 8305 -13963
332 681 688 -2238 8262 -14766
337 683 693 -2435 8271 -15564
335 694 699 -2649 8285 -16427
343 702 703 -2827 8325 -17181
339 716 716 -2624 8450 -17735
346 728 728 -2429 8615 -18224
347 747 741 -2693 8834 -18733
348 763 750 -2420 9188 -18796
343 779 763 -1358 9643 -18328
344 797 773 -89 10034 -18152
348 810 783 1529 10308 -18539
348 823 790 2449 10580 -17832
354 835 799 2173 10865 -15385
357 846 808 2096 11313 -12034
359 854 812 2599 11893 -8339
361 860 815 3535 12314 -5298
359 861 816 4191 12517 -3101
358 861 810 3824 12547 -2015
359 851 800 3166 12548 -2271
353 839 789 2908 12669 -2604
346 826 783 2852 12837 -2261
342 814 779 3001 13013 -1686
340 803 775 2817 13171 -815
339 791 766 1237 13139 433
333 772 765 594 13055 516
337 760 755 683 13212 627
347 750 745 1001 13279 404
354 737 731 1729 13097 -597
352 725 726 2558 12901 -1560
352 715 713 3398 12699 -2679
349 703 709 3541 12290 -4027
348 695 701 2754 11648 -5226
333 687 697 1828 10146 -8222
332 678 692 1596 9485 -9728
323 679 687 1315 8936 -11148
321 673 683 340 8481 -12323
325 670 677 -177 8022 -13625
324 673 675 553 7823 -14508
330 670 671 1854 7910 -14629
328 672 671 1984 8174 -14414
324 674 669 -22 7434 -14700
329 669 672 -1828 6382 -15592
325 666 672 -3382 6069 -15985
326 668 671 -5338 5577 -16163
328 669 670 -6274 5127 -16459
328 669 668 -6981 4698 -16770
328 670 670 -7322 4499 -16897
325 672 668 -7455 4542 -16451
329 674 671 -8554 4355 -15746
330 671 669 -9417 4037 -15414
326 670 668 -10117 3701 -15416
327 669 671 -10593 3489 -15290
325 669 671 -10737 3383 -14995
329 667 670 -11014 3303 -14606
324 672 668 -11076 3331 -14054
329 666 667 -10865 3382 -13653
327 671 670 -10487 3424 -13446
328 672 670 -10360 3449 -13380
328 673 669 -10400 3479 -13431
327 671 671 -10253 3540 -13494
327 670 673 -10145 3588 -13429
327 669 671 -10179 3625 -13205
330 669 667 -10238 3620 -12950
326 667 670 -10166 3645 -12796
325 671 670 -9919 3774 -12775
327 672 669 -9688 3874 -12730
327 671 673 -9938 3821 -12869
323 672 679 -10305 3736 -13146
328 673 681 -9924 3767 -13390
329 675 689 -9239 3865 -13588
333 692 693 -9307 3737 -14215
335 702 704 -9928 3393 -15714
335 720 722 -10024 3183 -17858
339 739 742 -9724 3079 -20511
344 775 766 -8686 3200 -22886
353 821 807 -5432 4021 -23875
366 899 865 -709 5586 -23997
383 1008 967 3195 7197 -24287
414 1181 1134 4092 8227 -23490
462 1449 1423 2781 8475 -21684
542 1850 1875 2369 8450 -18794
655 2399 2503 3570 8818 -14287
823 3178 3424 3480 9891 -6113
1103 4389 4882 2295 10066 -4150
1486 5944 6898 1602 10305 -2607
1893 7531 9148 915 10592 -1391
2269 8927 11352 164 10990 -737
2567 10035 13202 -405 11564 -329
2757 10519 14272 -552 12080 86
2931 11105 15101 -327 12498 659
3155 11780 15947 -108 12842 982
3410 12992 17002 -449 13078 829
3849 14839 18975 -1263 13321 687
4308 16537 21287 -2278 13366 670
4641 18052 23051 -3482 13440 550
4968 19889 24790 -4914 13210 -283
5329 21752 26453 -6081 12858 -512
5732 23633 28116 -6520 12966 401
5974 24800 29039 -6799 13063 1296
6271 26309 30374 -7298 12984 2013
6852 28960 32978 -7891 12881 2128
7682 32230 36636 -8088 12940 1827
8740 35881 41158 -7781 12994 1309
10357 40924 48253 -7371 13062 895
14724 54176 66545 -7461 12989 523
24326 81744 103929 -7936 12822 61
39648 130211 159146 -8353 12808 -150
34638 137095 144800 -8662 12761 2
26645 110880 108244 -9106 12473 461
22776 95613 91775 -9637 12075 387
19824 77876 81984 -9649 12068 310
18579 68523 79022 -9331 12355 748
18029 62900 76624 -9033 12864 1227
15452 53427 67710 -8451 13710 2681
10836 43990 53411 -8292 13986 3016
9011 43516 47757 -8603 13778 1680
8777 45013 47044 -8577 13587 783
9165 47667 48530 -8288 13540 220
10354 53757 53204 -7655 13794 164
11540 59384 57892 -5902 13876 531
12989 66239 64596 -4999 14054 535
14953 75052 73802 -5039 14738 464
16457 81658 81486 -3452 15726 722
18189 88725 90047 -3791 15805 1188
20629 98017 101043 -4485 15859 1732
23221 107551 111845 -4249 15630 1271
25714 116613 122148 -4798 15575 1636
27609 123598 129855 -5335 15505 2127
28945 128552 135496 -4960 15265 1234
30011 132590 140348 -4801 15190 302
31055 136645 145462 -5085 15060 -391
32058 140702 150567 -5906 15029 -1630
32460 142909 153425 -6131 15102 -2020
33196 146665 158051 -6276 14995 -2423
34125 152371 164614 -6214 14751 -2896
36332 164237 178239 -6042 14529 -3195
39133 176345 191542 -5982 14451 -3307
43382 190825 208490 -5836 14374 -3444
47980 204674 225245 -5644 14119 -3673
51187 214123 237258 -5838 14095 -3661
54650 225663 252268 -6364 14418 -3140
58291 240847 270581 -6593 14591 -2675
63740 266553 303045 -6612 14791 -2182
66695 285549 327531 -6758 14890 -1761
68463 301385 347831 -6824 14819 -1659
68325 301344 347076 -6703 14777 -1557
67198 292129 334226 -6716 14969 -1316
63378 270315 304899 -6892 14999 -1266
55523 235095 259925 -7006 14787 -1243
55735 231975 258609 -7113 14674 -941
55147 228578 255363 -7183 14562 -776
54740 226327 252451 -7163 14572 -756
55919 230104 258184 -7281 14537 -728
63440 258314 294644 -7657 14213 -1053
69918 289981 334188 -7235 14057 -1752
71553 305657 353987 -6784 14231 -1983
71566 309683 359077 -7098 14321 -1757
71436 315423 367082 -7000 14053 -2254
68477 325862 381021 -7084 14012 -2406
62282 329169 384182 -7509 14282 -1624
58554 330257 385120 -7615 14421 -816
55212 331580 386417 -7511 14539 -946
51624 332808 387450 -7421 14369 -1238
48018 334127 387712 -7582 14221 -1071
46294 334130 387143 -7851 14143 -1140
45931 333894 386444 -8033 14033 -1420
46547 333835 386395 -8211 13938 -1639
48005 334174 387221 -8203 13802 -1685
50705 335260 388647 -8106 13732 -1678
57138 339117 395018 -8174 13865 -1721
70880 344667 404227 -8285 13883 -1643
75830 333195 387646 -8272 13938 -1489
75409 330305 384110 -8323 14097 -1187
75179 327304 380099 -8405 14206 -727
75060 325359 377568 -8001 13657 -1831
74640 325110 378187 -7729 13489 -2882
71967 333929 391282 -7917 13883 -2491
67543 335859 393670 -7917 13929 -2324
64666 335815 393135 -7930 13562 -2673
59843 334177 390498 -7945 13679 -2671
55135 333305 388525 -7968 14046 -2048
51896 333812 387746 -8016 13878 -1983
49362 334531 386898 -7982 13866 -2164
46439 335202 385714 -7918 13914 -2194
44188 335680 384376 -7907 13962 -2138
43528 336200 383803 -7919 13997 -2128
43632 337047 383576 -7971 13900 -2268
44214 338382 383584 -8034 13834 -2251
45380 340545 384111 -8106 13907 -2087
46678 342554 385034 -8166 13870 -2161
47715 343347 385285 -8193 13826 -2359
48310 342975 384993 -8175 13825 -2526
48379 341062 383930 -8152 13874 -2590
48158 336579 382117 -8192 13893 -2559
50704 334971 385258 -8250 13814 -2511
63898 343696 399883 -8261 13700 -2487
75663 339833 393723 -8228 13665 -2421
77369 335036 388252 -8187 13742 -2246
77119 332316 384987 -8269 13887 -1928
77028 330096 382459 -8295 13959 -1870
76699 329235 382245 -7844 13636 -3474
75826 329968 384316 -7767 13861 -2819
73425 331212 385775 -7873 13795 -2642
66425 332098 385603 -7814 13579 -2753
58111 331173 383265 -7845 13614 -2720
50549 330328 380438 -7959 13837 -2962
46933 331870 379081 -7953 13995 -3129
45414 333135 378302 -7851 13930 -2970
44740 334838 377742 -7744 13831 -2918
45146 338108 377874 -7783 13977 -2781
46674 341969 379204 -7931 14001 -2893
48501 344836 381107 -8064 13915 -3127
50300 347271 383197 -8088 13754 -3308
52131 349627 385416 -8038 13619 -3340
54021 351797 387750 -8024 13563 -3384
55528 353172 389492 -8070 13582 -3492
56645 354090 390714 -8103 13588 -3589
57334 354541 391308 -8095 13540 -3628
57734 354614 391415 -8093 13523 -3665
57846 354197 390939 -8106 13545 -3711
57430 352692 389043 -8104 13571 -3734
55887 348047 384330 -8118 13546 -3786
53041 337692 377173 -8162 13512 -3811
52762 330681 376913 -8161 13478 -3752
68085 347402 409157 -8141 13495 -3585
83981 361428 429423 -8150 13547 -3417
86972 359260 423931 -8197 13580 -3311
84788 350661 411652 -8214 13590 -3165
83670 344808 403801 -8248 13497 -3423
82880 341548 399452 -8344 13455 -3866
82211 339420 396766 -8399 13512 -3307
78363 339906 398567 -8325 13486 -2828
72614 339983 398672 -8251 13470 -2924
68768 341176 399947 -8258 13515 -2819
65973 340794 399418 -8122 13276 -3491
60779 338412 395543 -8076 13501 -3381
56099 336830 391870 -8122 13843 -2582
52864 337142 388847 -8116 13760 -2616
50353 337677 386385 -8118 13693 -2811
48931 338667 384753 -8120 13615 -2938
48340 340664 383934 -8161 13681 -2903
48862 343406 383528 -8187 13654 -2940
49841 345761 383848 -8223 13608 -2954
50853 347644 384849 -8270 13629 -2971
51600 348485 385317 -8269 13605 -3052
51910 348371 385051 -8253 13556 -3146
51745 346941 383658 -8281 13550 -3220
50845 342742 380619 -8303 13518 -3248
49485 334470 376644 -8316 13469 -3257
56422 339219 393710 -8311 13430 -3277
72998 354976 418880 -8265 13535 -3097
78543 351571 412424 -8308 13638 -2924
78402 345298 403864 -8307 13614 -2957
78011 342568 400295 -8315 13591 -2975
77679 340525 397621 -8424 13564 -3115
77403 339042 395669 -8389 13451 -3360
77222 338114 394421 -8279 13474 -3227
73607 335634 391099 -8284 13549 -2987
67447 332537 386551 -8281 13538 -2850
64185 331382 384468 -8186 13430 -3144
61459 330643 382382 -8174 13527 -3027
57988 329083 378458 -8079 13725 -2422
55320 327929 375149 -7992 13650 -2359
53041 327162 373177 -8036 13709 -2380
50993 327232 372376 -8114 13824 -2297
49127 327700 371552 -8227 13716 -2357
47210 328408 370597 -8281 13732 -2413
45770 328783 369827 -8273 13895 -2383
44724 329842 369496 -8235 13912 -2402
43862 330320 368409 -8182 13846 -2425
43459 330874 367601 -8187 13789 -2470
43455 331681 367668 -8209 13815 -2471
43603 331749 367623 -8210 13815 -2457
43728 331600 367532 -8158 13777 -2455
43850 331340 367406 -8093 13801 -2444
43979 330628 367140 -8091 13826 -2481
44175 328985 366753 -8108 13841 -2503
45395 327251 367324 -8123 13848 -2467
49583 329058 372904 -8145 13841 -2389
60232 336908 388479 -8128 13807 -2239
74382 345011 400978 -8135 13843 -2136
75789 340912 395365 -8190 13861 -2139
74075 337682 391513 -8248 13808 -2120
73474 335854 389320 -8221 13760 -3536
73079 334578 387839 -8103 13644 -3808
72466 334108 387665 -8071 13577 -2720
71226 334033 387996 -8146 13621 -2774
69280 335419 390621 -8173 13561 -2789
66410 336420 392927 -8186 13461 -2826
63386 335943 393061 -8195 13649 -2989
58912 337102 394529 -8093 13709 -2958
54640 338430 395350 -8062 13645 -3197
52641 339491 396318 -8102 13622 -3434
51833 340539 397139 -8150 13632 -3430
50750 341597 397419 -8165 13541 -3477
49372 343543 397392 -8205 13411 -3697
48529 345595 397371 -8258 13380 -3916
48298 346673 397375 -8277 13358 -4006
48386 347175 397525 -8327 13239 -4009
48470 347668 397581 -8319 13197 -4089
48518 348345 397608 -8346 13179 -4152
48720 348481 397770 -8356 13170 -4199
49304 347184 398064 -8359 13136 -4185
50706 345438 399001 -8365 13104 -4117
54618 346903 403272 -8404 13130 -4003
63778 350535 410112 -8466 13207 -3790
69096 346468 405146 -8486 13291 -3601
70426 343840 401586 -8392 13125 -3681
70233 341962 399301 -8193 13202 -3881
69944 340530 397519 -8127 13527 -3777
69581 339335 396053 -8182 13568 -3523
69195 338375 394771 -8207 13561 -3408
61973 332173 386298 -8231 13558 -3330
55865 325875 377339 -8136 13427 -3623
53233 324083 373726 -8109 13545 -3334
51387 324284 372906 -8180 13675 -2661
50142 324755 372936 -8234 13545 -2524
49329 325044 372807 -8299 13568 -2396
48593 325214 372421 -8329 13624 -2279
47640 325553 372178 -8369 13629 -2218
46665 326088 372087 -8388 13587 -2246
45680 326446 371861 -8399 13541 -2241
44726 326674 371641 -8419 13539 -2207
43512 327044 371342 -8431 13540 -2177
42310 327493 371100 -8436 13489 -2226
41544 328244 371535 -8456 13517 -2234
40956 328740 371394 -8465 13585 -2133
40622 328929 371165 -8465 13584 -2116
40382 329215 370833 -8433 13598 -2121
39981 329610 370275 -8414 13541 -2231
39739 330158 369969 -8400 13509 -2304
39757 330325 369368 -8386 13542 -2292
40040 330338 369283 -8377 13575 -2296
40494 330170 369364 -8384 13599 -2307
41216 329422 369426 -8378 13608 -2321
42515 328193 369820 -8374 13648 -2294
45602 328475 373252 -8396 13679 -2214
53109 333313 383489 -8505 13516 -2228
64980 342826 398802 -8494 13540 -2248
74437 344280 400650 -8308 13571 -2729
71390 339687 394183 -8066 13369 -3670
70864 338104 392352 -8068 13353 -3814
70524 336796 390870 -8192 13464 -3432
70272 335862 389816 -8245 13445 -3235
70071 335077 388906 -8257 13380 -3177
69730 334701 388620 -8111 13246 -3329
67158 334757 388759 -8099 13569 -3325
63646 332942 386244 -8204 13789 -3251
60274 331047 384313 -8196 13635 -3286
56509 329462 382555 -8207 13617 -3418
50518 329396 381288 -8189 13636 -3439
46539 331208 381565 -8176 13639 -3217
44371 333221 382180 -8195 13562 -3160
42799 335155 383025 -8235 13508 -3235
41746 336764 383003 -8245 13411 -3250
41156 337701 382406 -8296 13410 -3283
40796 339304 382151 -8397 13455 -3286
40693 340576 382402 -8427 13435 -3227
40822 341335 382379 -8436 13386 -3277
41122 341584 382082 -8443 13333 -3281
41461 340939 381610 -8441 13287 -3222
41767 339601 380913 -8439 13248 -3238
42080 338247 380256 -8453 13223 -3298
42476 336327 379748 -8490 13213 -3294
43337 333900 379711 -8514 13262 -3222
47926 335324 385481 -8540 13389 -3007
57723 337903 392630 -8491 13459 -2919
60169 335341 389699 -8453 13367 -3338
60613 333990 387974 -8387 13322 -3575
60827 332930 386942 -8254 13461 -3312
61304 332327 386434 -8249 13527 -3115
61799 331895 386004 -8304 13480 -3039
62043 331235 385408 -8306 13478 -3008
62325 330748 384923 -8296 13484 -3009
61898 329513 383152 -8284 13496 -3027
54608 320919 371607 -8157 13460 -3363
50520 316267 365236 -8142 13474 -3234
47616 316196 363304 -8238 13500 -2813
45347 317421 363104 -8192 13489 -2739
43365 318858 363279 -8168 13596 -2604
41971 319989 363251 -8252 13751 -2430
40789 320575 362887 -8312 13786 -2297
39758 320970 362609 -8290 13731 -2299
38823 321249 362123 -8284 13741 -2294
38368 321595 362213 -8294 13802 -2246
38307 321876 362634 -8269 13842 -2186
38548 321931 362841 -8260 13836 -2150
39419 321261 362947 -8251 13833 -1979
42747 321697 366784 -8285 13807 -1879
55649 333762 387324 -8334 13813 -1599
67652 339194 394051 -8263 13661 -2626
65144 332763 386239 -8124 13401 -3870
