2025-07-21 16:18:45    绿光---红外光---红光---X轴---Y轴---Z轴
42535 307570 299447 -5858 11271 -10495
42556 307533 299413 -5880 11287 -10485
42530 307472 299373 -5906 11278 -10468
42467 307431 299348 -5942 11269 -10448
42384 307382 299335 -5948 11261 -10440
42291 307324 299304 -5907 11301 -10452
42207 307286 299282 -5933 11294 -10435
42135 307269 299278 -6001 11279 -10431
42085 307257 299282 -5930 11295 -10484
42049 307243 299293 -5752 11324 -10534
42021 307251 299299 -5741 11355 -10530
41999 307246 299293 -5892 11276 -10491
41990 307271 299317 -5971 11215 -10484
41992 307267 299310 -5952 11236 -10485
41995 307252 299309 -5926 11266 -10462
41996 307241 299316 -5950 11264 -10461
41991 307242 299311 -5980 11245 -10465
41985 307224 299314 -5980 11243 -10471
41982 307227 299317 -5919 11270 -10501
41979 307232 299324 -5855 11299 -10473
41985 307239 299329 -5891 11305 -10479
41990 307218 299317 -5938 11283 -10505
42008 307225 299315 -5927 11286 -10478
42035 307239 299325 -5910 11307 -10460
42064 307255 299317 -5945 11286 -10437
42097 307260 299342 -5987 11261 -10427
42141 307281 299361 -5972 11274 -10434
42182 307311 299372 -5959 11295 -10451
42230 307336 299379 -5955 11289 -10470
42273 307339 299374 -5923 11282 -10478
42323 307347 299386 -5900 11295 -10477
42369 307360 299394 -5898 11312 -10469
42419 307398 299410 -5914 11320 -10450
42466 307415 299415 -5941 11332 -10425
42516 307448 299433 -5962 11336 -10395
42568 307470 299441 -5966 11326 -10399
42617 307496 299457 -5967 11312 -10404
42663 307527 299463 -5965 11303 -10388
42713 307545 299470 -5947 11291 -10391
42761 307565 299487 -5898 11291 -10407
42815 307589 299493 -5861 11310 -10423
42872 307613 299503 -5882 11320 -10421
42926 307632 299498 -5911 11325 -10408
42958 307593 299449 -5932 11334 -10403
42945 307511 299388 -5930 11348 -10400
42889 307463 299360 -5923 11362 -10395
42800 307426 299342 -5938 11355 -10385
42698 307388 299325 -5951 11339 -10387
42599 307359 299294 -5903 11378 -10401
42513 307319 299256 -5948 11350 -10404
42444 307287 299217 -5930 11357 -10419
42393 307274 299206 -5750 11415 -10424
42349 307263 299213 -5715 11480 -10388
42312 307265 299217 -5873 11415 -10361
42284 307275 299233 -5972 11317 -10355
42272 307273 299241 -5960 11307 -10371
42261 307252 299242 -5916 11322 -10398
42246 307238 299235 -5922 11310 -10399
42236 307229 299235 -5916 11301 -10404
42221 307213 299223 -5885 11318 -10429
42207 307192 299230 -5876 11347 -10456
42198 307193 299228 -5885 11341 -10449
42190 307185 299213 -5941 11339 -10460
42192 307183 299210 -6002 11296 -10467
42202 307192 299216 -5981 11271 -10441
42214 307197 299217 -5941 11330 -10423
42235 307181 299190 -5968 11327 -10410
42265 307147 299160 -6019 11261 -10410
42295 307144 299148 -5928 11277 -10464
42335 307142 299141 -5927 11280 -10469
42375 307157 299143 -5972 11273 -10445
42416 307195 299181 -5988 11285 -10429
42458 307230 299204 -5985 11285 -10451
42501 307247 299217 -5978 11282 -10449
42544 307293 299247 -5978 11294 -10414
42585 307321 299255 -5986 11305 -10408
42630 307343 299256 -6006 11298 -10412
42674 307370 299275 -6006 11286 -10403
42716 307390 299292 -5973 11282 -10417
42755 307431 299313 -5952 11278 -10426
42804 307462 299338 -5951 11291 -10411
42846 307466 299326 -5952 11300 -10407
42888 307485 299336 -5963 11288 -10412
42935 307518 299337 -5978 11285 -10418
42985 307537 299345 -5990 11285 -10416
43035 307561 299340 -6006 11282 -10410
43086 307574 299351 -6012 11282 -10405
43114 307518 299291 -5983 11304 -10408
43089 307449 299244 -5912 11317 -10429
43020 307399 299216 -5910 11313 -10432
42923 307331 299198 -5936 11311 -10415
42822 307280 299166 -5941 11365 -10386
42721 307235 299150 -5999 11344 -10332
42627 307198 299129 -6068 11310 -10337
42555 307163 299110 -5985 11342 -10362
42501 307134 299112 -5827 11395 -10354
42458 307118 299098 -5851 11419 -10365
42426 307104 299097 -5974 11317 -10365
42404 307113 299108 -6000 11256 -10385
42395 307106 299091 -5946 11290 -10414
42390 307093 299081 -5947 11330 -10415
42378 307078 299072 -5988 11316 -10406
42359 307066 299061 -6025 11290 -10384
42344 307049 299053 -6041 11303 -10385
42328 307027 299033 -6018 11331 -10403
42311 307033 299030 -5999 11337 -10377
42300 307025 299029 -6017 11340 -10398
42297 307023 299031 -6018 11327 -10420
42304 307038 299035 -5901 11332 -10424
42315 307047 299042 -5941 11303 -10420
42335 307063 299044 -5990 11298 -10406
42357 307068 299054 -6002 11306 -10396
42388 307097 299056 -6003 11306 -10400
42418 307126 299067 -5994 11310 -10389
42447 307137 299083 -5977 11330 -10379
42484 307159 299085 -5972 11342 -10398
42520 307176 299092 -5970 11333 -10410
42557 307203 299095 -5906 11337 -10426
42597 307212 299107 -5894 11329 -10444
42633 307235 299101 -5914 11331 -10459
42673 307257 299113 -5932 11320 -10449
42715 307273 299114 -5944 11320 -10435
42757 307298 299118 -5949 11358 -10423
42800 307312 299117 -5940 11378 -10413
42847 307343 299138 -5939 11364 -10395
42889 307361 299141 -5957 11356 -10376
42932 307409 299170 -5969 11372 -10392
42981 307438 299167 -5949 11376 -10420
43027 307435 299153 -5929 11379 -10414
43078 307456 299151 -5935 11372 -10391
43123 307433 299136 -5950 11335 -10363
43128 307378 299079 -5980 11328 -10343
43089 307321 299045 -5976 11339 -10354
43015 307278 299012 -5914 11381 -10350
42917 307237 299012 -5939 11387 -10301
42822 307188 298984 -6024 11397 -10270
42731 307163 298978 -5980 11412 -10299
42656 307143 298968 -5804 11441 -10369
42597 307130 298950 -5776 11487 -10368
42556 307133 298964 -5918 11409 -10319
42527 307138 298965 -5986 11375 -10304
42510 307160 298985 -5957 11416 -10304
42509 307162 299000 -5929 11417 -10306
42509 307157 298975 -5951 11417 -10292
42506 307163 298974 -5966 11436 -10280
42501 307162 298987 -5968 11472 -10280
42489 307161 298982 -5955 11492 -10293
42471 307147 298987 -5896 11473 -10335
42456 307137 298969 -5925 11476 -10333
42442 307136 298963 -5904 11456 -10277
42438 307149 298979 -5892 11484 -10246
42442 307154 298984 -5906 11486 -10253
42450 307176 299004 -5936 11476 -10277
42467 307208 299019 -5939 11492 -10292
42490 307225 299033 -5940 11516 -10303
42518 307233 299032 -5940 11513 -10284
42554 307252 299048 -5891 11505 -10268
42586 307287 299065 -5840 11515 -10279
42623 307297 299080 -5848 11525 -10291
42663 307334 299091 -5875 11520 -10303
42705 307355 299113 -5907 11529 -10294
42751 307387 299127 -5944 11567 -10267
42795 307422 299150 -5963 11567 -10255
42842 307451 299171 -5972 11547 -10264
42884 307475 299189 -5954 11545 -10262
42926 307494 299203 -5919 11545 -10240
42971 307531 299227 -5870 11517 -10223
43014 307573 299246 -5857 11508 -10235
43058 307595 299265 -5874 11518 -10246
43106 307628 299275 -5908 11522 -10232
43153 307640 299284 -5914 11519 -10214
43208 307676 299291 -5911 11539 -10209
43261 307688 299289 -5924 11548 -10213
43302 307661 299256 -5942 11548 -10213
43303 307586 299200 -5932 11575 -10234
43253 307549 299170 -5898 11626 -10243
43173 307506 299159 -5920 11587 -10199
43070 307463 299136 -5975 11557 -10202
42964 307428 299131 -5875 11588 -10227
42864 307402 299122 -5725 11634 -10217
42781 307367 299109 -5774 11645 -10216
42725 307359 299103 -5913 11535 -10218
42679 307357 299117 -5968 11487 -10214
42650 307364 299121 -5953 11522 -10217
42631 307381 299143 -5927 11558 -10236
42628 307398 299139 -5901 11578 -10259
42631 307382 299117 -5877 11543 -10250
42625 307381 299127 -5892 11485 -10238
42617 307364 299123 -5895 11476 -10267
42602 307328 299108 -5898 11500 -10261
42583 307338 299111 -5945 11517 -10279
42571 307334 299113 -5933 11520 -10311
42564 307340 299119 -5885 11533 -10282
42562 307344 299115 -5882 11548 -10267
42560 307348 299114 -5907 11555 -10269
42574 307359 299130 -5908 11541 -10262
42591 307386 299143 -5819 11521 -10287
42613 307404 299147 -5866 11535 -10275
42644 307433 299167 -5884 11559 -10254
42674 307477 299189 -5874 11565 -10234
42713 307482 299188 -5874 11558 -10237
42753 307491 299191 -5886 11557 -10247
42796 307523 299213 -5890 11552 -10239
42841 307548 299229 -5892 11563 -10235
42886 307584 299248 -5885 11610 -10255
42932 307618 299274 -5841 11606 -10243
42980 307631 299288 -5873 11570 -10214
43030 307639 299297 -5896 11553 -10196
43083 307666 299307 -5895 11586 -10173
43137 307685 299320 -5885 11609 -10165
43188 307699 299339 -5897 11598 -10169
43246 307715 299350 -5917 11598 -10176
43302 307704 299346 -5931 11614 -10173
43360 307702 299349 -5941 11638 -10174
43426 307709 299371 -5907 11640 -10196
43487 307717 299374 -5861 11605 -10219
43557 307738 299379 -5868 11593 -10189
43614 307715 299343 -5890 11618 -10157
43633 307623 299264 -5870 11663 -10154
43594 307547 299216 -5890 11621 -10145
43518 307486 299170 -5976 11580 -10168
43419 307449 299141 -5903 11638 -10200
43313 307422 299139 -5698 11713 -10199
43209 307388 299120 -5703 11718 -10196
43120 307372 299099 -5859 11592 -10207
43054 307362 299099 -5891 11517 -10224
43004 307357 299095 -5827 11561 -10242
42967 307362 299090 -5830 11572 -10238
42946 307359 299090 -5908 11532 -10211
42936 307395 299110 -5927 11526 -10190
42933 307395 299090 -5896 11550 -10190
42926 307385 299072 -5855 11590 -10224
42913 307355 299067 -5826 11617 -10224
42893 307343 299045 -5868 11656 -10230
42874 307330 299041 -5889 11629 -10239
42857 307328 299042 -5823 11580 -10222
42844 307336 299046 -5766 11618 -10233
42835 307334 299035 -5792 11625 -10234
42837 307343 299045 -5855 11582 -10225
42847 307362 299056 -5843 11579 -10224
42859 307382 299067 -5812 11617 -10230
42881 307412 299082 -5845 11629 -10228
42908 307456 299101 -5865 11625 -10216
42937 307482 299099 -5848 11632 -10204
42967 307488 299101 -5833 11634 -10201
43003 307485 299070 -5783 11598 -10228
43042 307490 299056 -5758 11566 -10264
43088 307525 299060 -5796 11560 -10274
43135 307570 299089 -5830 11569 -10266
43183 307587 299085 -5844 11575 -10249
43231 307611 299079 -5866 11562 -10211
43282 307633 299078 -5899 11568 -10155
43332 307660 299093 -5900 11586 -10146
43383 307697 299111 -5860 11612 -10181
43435 307735 299125 -5841 11612 -10219
43480 307754 299111 -5760 11579 -10263
43528 307778 299133 -5776 11613 -10257
43579 307811 299146 -5804 11604 -10265
43632 307872 299186 -5805 11587 -10271
43680 307889 299174 -5793 11593 -10256
43735 307928 299195 -5799 11614 -10244
43786 307942 299172 -5803 11603 -10260
43810 307870 299099 -5772 11618 -10277
43783 307798 299056 -5789 11607 -10256
43711 307772 299041 -5757 11552 -10299
43616 307720 299009 -5599 11597 -10313
43504 307668 298981 -5622 11681 -10285
43398 307640 298963 -5788 11616 -10263
43308 307637 298965 -5892 11534 -10247
43239 307648 298976 -5888 11536 -10219
43187 307665 298986 -5849 11553 -10217
43156 307687 298990 -5858 11558 -10233
43134 307707 299006 -5870 11569 -10265
43119 307735 299025 -5861 11553 -10291
43122 307742 299020 -5847 11520 -10299
43118 307736 299001 -5838 11525 -10268
43112 307755 299015 -5893 11576 -10279
43098 307753 299025 -5930 11566 -10296
43081 307743 299008 -5918 11536 -10246
43059 307734 299007 -5914 11543 -10220
43041 307726 299004 -5924 11532 -10225
43027 307741 299004 -5941 11519 -10234
43019 307749 299015 -5912 11532 -10228
43022 307769 299024 -5902 11563 -10229
43034 307773 299043 -5887 11559 -10239
43050 307784 299036 -5860 11564 -10235
43078 307813 299055 -5866 11579 -10236
43104 307855 299065 -5881 11576 -10236
43133 307876 299094 -5908 11577 -10219
43168 307902 299104 -5927 11561 -10212
43206 307929 299116 -5936 11556 -10212
43244 307957 299128 -5935 11559 -10209
43289 307991 299142 -5917 11556 -10200
43334 308035 299168 -5896 11584 -10188
43379 308090 299192 -5846 11587 -10222
43423 308111 299196 -5811 11572 -10251
43468 308139 299210 -5819 11591 -10238
43514 308181 299217 -5828 11617 -10235
43563 308209 299239 -5871 11628 -10232
43605 308228 299248 -5907 11606 -10220
43657 308256 299256 -5891 11589 -10213
43707 308293 299279 -5852 11604 -10212
43756 308304 299277 -5837 11618 -10214
43811 308336 299290 -5846 11624 -10214
43858 308315 299263 -5772 11608 -10252
43881 308242 299213 -5719 11659 -10257
43853 308177 299173 -5815 11651 -10198
43784 308130 299137 -5917 11628 -10201
43692 308070 299109 -5812 11672 -10214
43594 308027 299109 -5646 11700 -10211
43496 308004 299103 -5708 11692 -10209
43421 308002 299105 -5865 11601 -10197
43360 308011 299106 -5939 11564 -10184
43325 308013 299110 -5925 11575 -10175
43300 308032 299131 -5809 11583 -10200
43290 308057 299140 -5782 11638 -10197
43290 308072 299139 -5790 11649 -10196
43303 308064 299139 -5825 11614 -10211
43309 308060 299121 -5870 11628 -10206
43306 308060 299125 -5919 11627 -10191
43300 308065 299127 -5922 11626 -10203
43291 308060 299129 -5918 11668 -10187
43277 308053 299134 -5924 11653 -10153
43266 308065 299136 -5859 11618 -10176
43264 308075 299145 -5841 11591 -10186
43262 308075 299162 -5872 11595 -10183
43275 308095 299167 -5902 11614 -10184
43288 308104 299177 -5902 11631 -10187
43313 308125 299184 -5899 11633 -10192
43337 308148 299207 -5906 11631 -10197
43367 308179 299231 -5903 11627 -10197
43404 308221 299250 -5905 11625 -10178
43441 308240 299255 -5891 11613 -10171
43485 308258 299273 -5820 11601 -10187
43527 308283 299284 -5786 11613 -10200
43574 308306 299287 -5821 11620 -10201
43618 308328 299306 -5845 11631 -10199
43664 308347 299315 -5849 11645 -10206
43709 308374 299320 -5842 11649 -10216
43756 308396 299324 -5858 11636 -10206
43803 308397 299323 -5874 11634 -10195
43852 308408 299324 -5866 11633 -10190
43901 308419 299328 -5842 11616 -10183
43949 308468 299340 -5796 11592 -10212
43997 308497 299354 -5787 11580 -10231
44050 308503 299342 -5830 11596 -10214
44105 308526 299349 -5824 11604 -10220
44152 308498 299316 -5817 11665 -10225
44164 308430 299260 -5896 11663 -10189
44124 308372 299217 -5962 11634 -10208
44048 308291 299170 -5797 11677 -10240
43949 308245 299144 -5638 11722 -10218
43843 308203 299134 -5752 11684 -10208
43742 308183 299131 -5864 11550 -10214
43658 308162 299127 -5824 11607 -10197
43591 308157 299110 -5837 11597 -10194
43547 308143 299111 -5878 11583 -10201
43516 308164 299110 -5884 11599 -10191
43493 308187 299121 -5890 11589 -10182
43484 308189 299131 -5884 11591 -10192
43481 308171 299098 -5896 11639 -10195
43477 308168 299080 -5932 11625 -10195
43467 308186 299105 -5772 11608 -10218
43450 308180 299087 -5795 11631 -10195
43431 308161 299069 -5861 11626 -10202
43411 308126 299041 -5863 11608 -10202
43395 308109 299027 -5850 11618 -10193
43387 308087 299017 -5875 11632 -10184
43387 308080 299007 -5898 11627 -10169
43396 308066 298997 -5889 11633 -10181
43407 308081 298994 -5856 11655 -10223
43428 308107 299012 -5804 11640 -10260
43454 308126 299005 -5809 11606 -10231
43479 308133 299015 -5831 11619 -10204
43512 308153 299017 -5849 11640 -10202
43543 308164 299020 -5867 11638 -10203
43581 308201 299048 -5883 11629 -10199
43620 308247 299059 -5860 11652 -10204
43663 308274 299060 -5817 11664 -10205
43706 308285 299077 -5808 11673 -10195
43750 308308 299085 -5815 11684 -10201
43795 308342 299114 -5800 11643 -10207
43843 308393 299144 -5793 11628 -10211
43886 308431 299168 -5812 11644 -10203
43933 308456 299177 -5842 11638 -10193
43975 308490 299202 -5867 11627 -10198
44024 308546 299236 -5866 11627 -10211
44076 308591 299277 -5800 11673 -10220
44126 308637 299287 -5790 11693 -10189
44180 308689 299309 -5911 11668 -10159
44220 308686 299301 -5914 11627 -10181
44210 308616 299254 -5698 11637 -10224
44151 308599 299240 -5625 11702 -10212
44063 308548 299221 -5780 11649 -10180
43957 308510 299221 -5880 11590 -10175
43852 308493 299211 -5856 11632 -10159
43760 308478 299222 -5847 11642 -10157
43681 308495 299230 -5930 11608 -10160
43629 308498 299252 -5970 11589 -10167
43594 308521 299276 -5941 11620 -10173
43564 308563 299310 -5915 11676 -10169
43546 308602 299340 -5894 11659 -10157
43539 308601 299346 -5922 11609 -10205
43535 308593 299359 -5956 11515 -10253
43520 308568 299355 -5932 11475 -10217
43501 308548 299361 -5897 11523 -10277
43480 308511 299349 -5904 11497 -10327
43447 308471 299330 -5933 11487 -10313
43429 308490 299351 -5918 11480 -10356
43408 308451 299329 -5889 11500 -10357
43396 308462 299343 -5897 11487 -10335
43393 308428 299326 -5948 11461 -10281
43395 308419 299321 -5948 11487 -10246
43408 308413 299297 -5964 11520 -10231
43422 308403 299289 -6026 11484 -10200
43449 308379 299263 -6105 11412 -10150
43476 308407 299284 -6206 11265 -10129
43506 308442 299305 -6289 11156 -10169
43542 308490 299327 -6282 11213 -10235
43574 308524 299343 -6212 11297 -10295
43608 308554 299357 -6071 11293 -10448
43644 308585 299370 -5954 11403 -10468
43681 308614 299372 -5847 11547 -10430
43713 308595 299360 -5851 11583 -10338
43747 308579 299340 -5938 11567 -10244
43783 308571 299337 -6013 11575 -10189
43824 308625 299364 -6010 11639 -10182
43868 308657 299408 -5901 11732 -10186
43907 308669 299402 -5854 11734 -10163
43952 308669 299403 -6006 11562 -10120
44006 308740 299454 -6137 11396 -10177
44049 308753 299460 -5956 11457 -10234
44061 308675 299400 -5756 11621 -10180
44018 308582 299349 -5860 11542 -10120
43941 308526 299325 -6062 11312 -10097
43843 308500 299314 -6154 11255 -10117
43742 308479 299331 -6104 11366 -10170
43651 308449 299319 -6065 11452 -10214
43575 308428 299304 -6090 11414 -10218
43524 308430 299297 -6123 11362 -10243
43491 308458 299310 -6143 11327 -10306
43471 308478 299338 -6150 11324 -10313
43458 308511 299346 -6171 11373 -10312
43456 308528 299364 -6180 11370 -10293
43461 308544 299353 -6162 11396 -10250
43459 308549 299358 -6116 11447 -10256
43453 308546 299359 -6082 11415 -10235
43438 308545 299346 -6122 11387 -10211
43421 308511 299328 -6165 11378 -10164
43403 308515 299323 -6173 11421 -10159
43396 308535 299339 -6143 11327 -10306
43388 308566 299364 -6150 11324 -10313
43389 308575 299357 -6171 11373 -10312
43395 308568 299320 -6180 11370 -10293
43406 308570 299313 -6162 11396 -10250
43376 305966 297617 -6116 11447 -10256
43483 303618 296989 -6082 11415 -10235
43587 305267 298124 -6122 11387 -10211
43655 308137 299506 -6165 11378 -10164
43718 308250 299229 -6173 11421 -10159
43761 308247 299266 -6139 11349 -10315
43795 308372 299376 -6104 11370 -10312
43834 308419 299401 -6088 11373 -10254
43872 308453 299408 -6095 11400 -10172
43908 308479 299404 -5795 10514 -10395
43944 308496 299358 -5943 11319 -9543
43780 301883 295465 -6713 13453 -8369
43889 301659 296054 -7244 11399 -9534
44098 304883 298246 -6451 10228 -10561
44269 308901 300267 -5785 11570 -10342
44342 308443 299586 -6049 11486 -10272
44394 308431 299592 -6021 11381 -10194
44389 308354 299509 -6066 11501 -10164
44331 308342 299449 -6076 11548 -10143
44224 307530 298805 -5849 11072 -10863
43993 302550 296140 -5143 10847 -10007
43995 302716 296799 -6830 12449 -7972
44025 304691 298163 -8373 14098 -7043
44036 308318 300123 -7167 10860 -8353
44001 308311 299548 -5972 11671 -10198
43968 308252 299550 -5960 11785 -10301
43923 308248 299545 -5902 11402 -10155
43891 308346 299603 -5615 10545 -11653
43846 307224 298725 -5129 10393 -10698
43741 303634 296743 -6431 12171 -8133
43787 304353 297558 -8211 13781 -7786
43817 307314 299211 -8217 12901 -8058
43843 308547 299637 -6908 10188 -9420
43824 308329 299561 -5821 10192 -10417
43787 308332 299621 -5825 11467 -10507
43755 308347 299636 -6039 11271 -10300
43730 308428 299689 -5978 10858 -10744
43722 308494 299716 -5597 10551 -10588
43715 308555 299722 -6443 12009 -9293
43716 308621 299726 -7684 13681 -8453
43725 308709 299758 -6660 11328 -9433
43737 308776 299756 -5774 9924 -10533
43749 308800 299745 -6074 11452 -10404
43727 307382 298682 -6070 11565 -10313
43735 307483 298963 -6118 11351 -10178
43792 308754 299681 -6169 11382 -10137
43828 308848 299669 -6123 11481 -10147
43861 308927 299724 -6102 11519 -10126
43888 308979 299743 -6099 11469 -10120
43924 309077 299795 -6121 11438 -10160
43963 309176 299844 -6129 11427 -10197
43997 309072 299739 -6113 11405 -10230
43889 304662 296871 -5990 11533 -9810
43899 304675 297291 -6491 11831 -9591
43990 307746 299340 -5751 10983 -10568
44048 309441 300098 -5984 11390 -10372
43979 308638 299466 -6031 11462 -10281
43872 308634 299486 -6090 11455 -10206
43758 308612 299504 -6125 11519 -10155
43654 308656 299595 -5242 10261 -12071
43560 308610 299526 -5728 11445 -10998
43496 308696 299540 -7738 13181 -7650
43452 308714 299517 -7112 11332 -7319
43425 308809 299556 -5861 11515 -11105
43405 308844 299563 -6019 11354 -10828
43397 308887 299562 -6027 11196 -10545
43394 308896 299547 -6090 11282 -10558
43384 308871 299514 -6090 11287 -10467
43370 308865 299504 -6094 11310 -10356
43349 308886 299499 -6131 11390 -10342
43325 308883 299466 -6174 11419 -10319
43302 308869 299422 -6191 11405 -10311
43285 308932 299438 -6269 11359 -10194
43275 308933 299433 -6294 11415 -10106
43271 308901 299417 -6267 11480 -10065
43269 308900 299403 -6257 11427 -10040
43279 308926 299415 -6281 11370 -9979
43294 308975 299438 -6265 11334 -9946
43314 308983 299441 -6253 11282 -9972
43332 309016 299451 -6270 11347 -10017
43357 309075 299496 -6280 11452 -10011
43387 309113 299518 -6320 11510 -9949
43415 309177 299567 -6376 11545 -9900
43444 309217 299583 -6401 11562 -9917
43474 309272 299623 -6418 11551 -9966
43510 309320 299661 -6399 11457 -10005
43544 309385 299700 -6339 11393 -10028
43578 309438 299761 -6294 11378 -10032
43614 309480 299781 -6279 11356 -10054
43651 309514 299818 -6269 11367 -10096
43685 309550 299856 -6246 11341 -10100
43699 309508 299836 -6263 11301 -10102
43660 309463 299814 -6310 11301 -10148
43587 309442 299844 -6291 11277 -10195
43492 309422 299873 -6232 11286 -10205
43394 309433 299927 -6224 11276 -10179
43301 309466 300008 -6305 11250 -10179
43229 309480 300064 -6316 11246 -10208
43170 309445 300089 -6209 11276 -10236
43128 309433 300125 -6178 11309 -10259
43099 309431 300178 -6217 11291 -10264
43083 309410 300202 -6244 11248 -10270
43075 309422 300245 -6275 11176 -10332
43081 309359 300232 -6270 11183 -10386
43076 309338 300243 -6218 11260 -10371
43074 309383 300309 -6181 11281 -10341
43064 309364 300339 -6179 11236 -10315
43053 309329 300341 -6191 11260 -10310
43040 309312 300353 -6191 11332 -10273
43032 309284 300333 -6190 11379 -10269
43027 309253 300317 -6187 11336 -10246
43030 309219 300311 -6192 11267 -10175
43044 309221 300302 -6245 11294 -10236
43066 309197 300303 -6243 11233 -10207
43088 309191 300294 -6220 11217 -10201
43112 309173 300265 -6204 11283 -10218
43147 309150 300247 -6199 11302 -10208
43177 309180 300263 -6201 11309 -10179
43219 309193 300293 -6207 11342 -10156
43259 309229 300318 -6218 11342 -10144
43300 309260 300346 -6244 11297 -10156
43345 309289 300378 -6298 11294 -10222
43388 309319 300411 -6282 11292 -10227
43430 309291 300401 -6275 11294 -10229
43465 309236 300381 -6255 11290 -10240
43496 309186 300355 -6231 11303 -10253
43533 309134 300305 -6212 11306 -10238
43567 309072 300265 -6219 11325 -10213
43589 308985 300210 -6248 11419 -10170
43572 308892 300135 -6269 11503 -10084
43509 308743 300058 -6276 11544 -9953
43425 308619 299964 -6312 11511 -9813
43331 308581 299957 -6461 11463 -9754
43242 308512 299914 -6543 11414 -9785
43167 308552 299963 -6412 11420 -9886
43110 308509 299943 -6277 11526 -10019
43068 308515 299960 -6227 11593 -10080
43045 308598 300042 -6261 11513 -10078
43023 308649 300113 -6335 11359 -10046
42999 308685 300173 -6328 11236 -10052
42983 308742 300214 -6254 11196 -10113
42965 308732 300217 -6176 11265 -10105
42936 308658 300163 -6179 11256 -10170
42907 308606 300116 -6227 11154 -10329
42880 308573 300083 -6230 11113 -10320
42857 308557 300063 -6208 11101 -10305
42839 308543 300056 -6165 11005 -10353
42829 308539 300049 -6140 11051 -10380
42827 308510 300019 -6138 11207 -10432
42833 308507 300008 -6171 11152 -10434
42838 308463 299981 -6231 11060 -10453
42852 308471 299976 -6254 11090 -10491
42873 308522 300002 -6231 11179 -10505
42903 308601 300076 -6196 11253 -10517
42936 308691 300148 -6178 11261 -10498
42970 308793 300251 -6160 11230 -10439
43012 309026 300452 -6119 11221 -10374
43062 309314 300715 -6090 11261 -10347
43098 309567 300960 -6097 11289 -10396
43126 309776 301168 -6103 11275 -10481
43140 309915 301310 -6086 11259 -10506
43154 309988 301387 -5959 11283 -10558
43169 310075 301458 -5979 11219 -10654
43185 310125 301503 -5916 11145 -10694
43198 310067 301456 -5742 11139 -10609
43220 310109 301502 -5607 11188 -10506
43231 310051 301464 -5644 11191 -10473
43201 309909 301378 -5774 11129 -10538
43134 309811 301328 -5831 11136 -10668
43038 309709 301269 -5828 11106 -10681
42938 309613 301218 -5847 11137 -10831
42846 309545 301189 -5663 11314 -10737
42770 309521 301175 -5653 11412 -10628
42712 309525 301204 -5855 11381 -10546
42663 309530 301209 -5961 11279 -10481
42627 309555 301251 -5968 11307 -10486
42595 309583 301286 -5940 11411 -10498
42572 309664 301397 -5942 11457 -10465
42566 309745 301488 -6008 11384 -10377
42559 309814 301563 -6026 11365 -10249
42536 309792 301566 -6041 11458 -10153
42509 309638 301449 -6118 11376 -10130
42487 309568 301416 -6167 11221 -10222
42475 309627 301468 -6153 11113 -10270
42465 309587 301470 -6079 11117 -10203
42455 309433 301342 -6074 11210 -10105
42456 309298 301251 -6172 11333 -10101
42477 309216 301218 -6215 11369 -10116
42504 309169 301204 -6179 11362 -10075
42539 309150 301214 -6159 11387 -9963
42571 309098 301185 -6208 11380 -9906
42608 308995 301111 -6265 11311 -9978
42642 308918 301063 -6266 11217 -10130
42689 308942 301084 -6196 11160 -10319
42736 308988 301115 -6078 11181 -10431
42788 309015 301146 -6007 11216 -10455
42837 309034 301162 -6018 11169 -10509
42881 309042 301168 -6031 11072 -10613
42922 309043 301166 -5959 11080 -10724
42967 309055 301166 -5774 11144 -10840
43009 309064 301157 -5654 11127 -10944
43059 309097 301169 -5719 11038 -10988
43108 309091 301156 -5771 10992 -11030
43159 309030 301107 -5703 11015 -11026
43212 308999 301081 -5681 11041 -11006
43257 308950 301029 -5731 11013 -11047
43261 308870 300975 -5757 11019 -11026
43227 308773 300916 -5767 11069 -10893
43157 308682 300858 -5839 11107 -10870
43083 308635 300837 -5820 11112 -10921
43010 308586 300805 -5694 11114 -10867
42954 308537 300777 -5717 11157 -10819
42909 308498 300753 -5840 11149 -10774
42875 308477 300742 -5929 11128 -10744
42849 308458 300726 -5955 11091 -10718
42824 308421 300708 -5920 11089 -10626
42812 308421 300701 -5879 11140 -10558
42813 308430 300710 -5887 11138 -10583
42815 308436 300699 -5899 11092 -10656
42817 308416 300676 -5752 11181 -10667
42812 308416 300667 -5834 11147 -10637
42806 308421 300663 -5908 10990 -10669
42801 308424 300649 -5928 10955 -10698
42801 308446 300647 -5833 11066 -10721
42807 308465 300656 -5776 11148 -10755
42821 308473 300656 -5834 11136 -10740
42834 308464 300626 -5879 11040 -10710
42860 308471 300612 -5895 10986 -10727
42886 308506 300618 -5810 11140 -10808
42906 308111 300289 -5769 11180 -10790
42914 305471 298778 -5807 11150 -10766
43029 305914 299248 -5846 11104 -10804
43103 307016 299873 -5428 10827 -10885
43177 308142 300404 -5329 11126 -10867
43241 308299 300436 -5923 11829 -10965
43281 308282 300398 -6326 10492 -11037
43324 308320 300403 -5831 10076 -11141
43357 308322 300400 -5383 11236 -11252
43395 308373 300417 -5508 11176 -11062
43439 308438 300447 -5602 11089 -10877
43487 308522 300496 -5811 11154 -10737
43534 308538 300499 -5911 11128 -10635
43576 308558 300499 -5963 11125 -10641
43625 308586 300504 -5912 11157 -10696
43649 308538 300458 -5889 11146 -10660
43637 308469 300404 -5982 11059 -10558
43581 308402 300356 -6042 11023 -10561
43498 308319 300303 -5931 11098 -10618
43408 308248 300256 -5771 11185 -10651
43317 308090 300140 -5809 11170 -10660
43199 307485 299714 -5934 11094 -10603
43146 308049 300100 -5985 11088 -10539
43125 308193 300176 -6101 11240 -10787
43089 308114 300123 -6064 11443 -10588
43053 308087 300118 -5805 10918 -10191
43026 308102 300134 -5894 10913 -10453
43018 308088 300108 -6019 11359 -10596
43008 308072 300095 -5971 11235 -10513
42992 307965 300012 -6044 11215 -10534
42898 305191 298272 -5984 11208 -10463
42953 303285 297643 -5727 10805 -11522
43134 303306 298025 -5457 10771 -11535
43259 305862 299534 -5649 11096 -10021
43315 307215 299832 -6320 11298 -9257
43308 307327 299794 -6779 11838 -9485
43315 307442 299878 -6457 11086 -10888
43330 307536 299940 -5735 10459 -11401
43346 307580 299981 -5593 11035 -10908
43360 307641 300010 -5774 11225 -10699
43309 304211 297862 -5824 11264 -10619
43481 302073 297347 -5928 11294 -10572
43634 303313 298148 -4806 10426 -11310
43745 307084 300125 -4961 11095 -11110
43847 307719 300118 -6895 12560 -9775
43882 307533 299975 -8268 10290 -10162
43907 307647 300071 -6641 9635 -10987
43932 307670 300117 -4625 11610 -11084
43958 307777 300234 -5525 11293 -10535
43963 307257 299814 -5847 11267 -10478
43864 304152 297838 -5832 10979 -10897
43847 304625 298282 -5356 11699 -11181
43927 307900 300318 -6014 12481 -10547
44059 308276 300348 -7222 10268 -9485
44035 307785 300068 -6395 9488 -10016
43963 307713 300065 -5315 11525 -11153
43854 307670 300059 -5408 11877 -10914
43758 307741 300184 -5756 11391 -10562
43638 306992 299663 -6010 11268 -10452
43471 305614 298749 -5969 11129 -10728
43376 306942 299626 -5640 11808 -10920
43407 308269 300493 -6081 12319 -10380
43370 307783 300216 -6443 9911 -9976
43312 307638 300126 -6038 9900 -10476
43268 307646 300144 -5938 11862 -10773
43234 307670 300155 -5875 11518 -10455
43201 307632 300120 -5946 11432 -10327
43119 305214 298518 -6048 11462 -10354
43091 305071 298647 -5312 10453 -11233
43104 306947 299787 -5394 11249 -11053
43144 307862 300225 -6673 12557 -9841
43136 307558 300057 -6680 10527 -10063
43119 307471 299995 -5857 10355 -10671
43110 307487 300003 -5637 11703 -10784
43107 307558 300042 -5795 11491 -10541
43109 307576 300031 -5924 11402 -10396
43112 307611 300037 -6023 11472 -10386
43117 307639 300036 -6023 11404 -10374
43124 307667 300046 -5992 11309 -10413
43135 307684 300057 -6032 11285 -10395
43153 307693 300045 -6060 11256 -10388
43166 307682 300037 -6061 11266 -10349
43189 307694 300033 -6058 11330 -10306
43213 307722 300047 -6069 11357 -10304
43241 307731 300050 -6076 11349 -10337
43274 307732 300057 -6047 11350 -10358
43306 307727 300050 -6016 11343 -10344
43335 307753 300068 -6031 11279 -10375
43369 307783 300090 -6033 11267 -10413
43407 307771 300062 -6038 11252 -10384
43447 307771 300058 -6108 11245 -10331
43482 307749 300021 -6126 11260 -10333
43485 307623 299933 -5988 11324 -10333
43441 307539 299879 -5910 11386 -10318
43365 307462 299842 -6001 11338 -10337
43266 307391 299816 -6073 11235 -10358
43169 307333 299789 -6043 11225 -10388
43079 307292 299784 -5980 11283 -10403
43008 307237 299748 -6006 11286 -10387
42944 307184 299703 -6075 11249 -10359
42893 307172 299707 -6101 11256 -10334
42842 307152 299698 -6084 11290 -10336
42803 307126 299692 -6061 11315 -10338
42778 307152 299714 -6091 11303 -10356
42758 307108 299688 -6133 11254 -10364
42741 307078 299669 -6096 11252 -10345
42722 307089 299678 -6049 11308 -10341
42710 307085 299673 -6069 11315 -10368
42687 307058 299666 -6105 11246 -10399
42670 307030 299645 -6088 11226 -10387
42662 307007 299643 -6064 11269 -10375
42657 306997 299631 -6072 11274 -10381
42661 306989 299626 -6084 11268 -10382
42673 306998 299637 -6079 11273 -10384
42693 307027 299648 -6074 11276 -10385
42712 307049 299636 -6088 11264 -10371
42737 307056 299645 -6091 11233 -10359
42768 307093 299653 -6069 11227 -10382
42798 307126 299678 -6052 11245 -10406
42830 307161 299714 -6059 11260 -10408
42864 307182 299710 -6065 11260 -10420
42892 307149 299670 -6060 11270 -10414
42923 307121 299627 -6048 11284 -10345
42949 307104 299589 -6043 11300 -10286
42974 307053 299533 -6058 11316 -10292
43006 307089 299549 -6083 11327 -10345
43040 307152 299576 -6085 11339 -10347
43084 307275 299653 -6062 11345 -10401
43122 307352 299698 -6050 11306 -10464
43169 307473 299734 -6052 11253 -10522
43221 307670 299869 -6054 11286 -10525
43274 307801 299945 -6065 11326 -10432
43325 307878 300014 -6094 11297 -10326
43349 307808 299972 -6116 11303 -10277
43330 307713 299937 -6010 11340 -10305
43268 307627 299913 -5909 11368 -10270
43179 307515 299884 -5977 11366 -10271
43088 307409 299843 -6069 11280 -10314
42996 307298 299787 -6053 11249 -10349
42921 307225 299755 -5987 11303 -10324
42868 307159 299721 -6013 11332 -10280
42819 307107 299701 -6079 11319 -10262
42782 307066 299668 -6102 11296 -10271
42741 307015 299644 -6073 11305 -10299
42713 307011 299639 -6032 11349 -10310
42704 307004 299625 -6059 11362 -10304
42693 306985 299618 -6111 11323 -10342
42682 306960 299596 -5948 11273 -10429
42673 306944 299595 -5940 11327 -10446
42658 306908 299581 -5983 11313 -10436
42646 306883 299559 -6018 11272 -10400
42638 306873 299567 -6024 11281 -10381
42629 306854 299565 -6012 11294 -10376
42633 306872 299567 -6018 11294 -10383
42644 306889 299588 -6034 11292 -10407
42661 306888 299591 -6000 11289 -10433
42682 306889 299589 -5928 11311 -10478
42705 306869 299563 -5878 11316 -10487
42734 306869 299566 -5905 11297 -10451
42770 306888 299577 -5962 11302 -10429
42808 306888 299574 -5992 11324 -10426
42847 306875 299567 -6002 11330 -10422
42886 306840 299548 -6001 11322 -10423
42929 306835 299545 -5989 11297 -10413
42973 306844 299537 -5985 11293 -10391
43022 306860 299556 -6011 11310 -10374
43070 306859 299553 -6004 11280 -10396
43117 306854 299532 -5954 11244 -10454
43162 306838 299520 -5921 11254 -10475
43206 306819 299509 -5912 11273 -10453
43254 306834 299511 -5934 11289 -10439
43305 306855 299524 -5974 11307 -10429
43360 306909 299557 -5998 11307 -10411
43417 306931 299573 -5953 11324 -10411
43474 306949 299570 -5931 11353 -10400
43529 306957 299568 -5989 11354 -10363
43566 306900 299505 -6009 11334 -10381
43556 306788 299426 -5834 11337 -10449
43499 306708 299386 -5708 11395 -10463
43415 306640 299345 -5827 11370 -10425
43325 306578 299332 -5947 11279 -10394
43247 306555 299315 -5954 11290 -10393
43176 306519 299304 -5904 11335 -10408
43117 306481 299283 -5916 11314 -10431
43078 306448 299266 -5960 11261 -10435
43042 306437 299261 -5955 11250 -10434
43019 306435 299255 -5923 11271 -10457
43004 306463 299280 -5851 11319 -10525
43000 306459 299279 -5924 11309 -10535
42992 306445 299250 -5898 11330 -10506
42985 306428 299241 -5844 11367 -10472
42974 306425 299242 -5859 11338 -10435
42962 306430 299253 -5916 11268 -10469
42953 306447 299262 -5933 11222 -10508
42950 306450 299255 -5924 11249 -10521
42943 306449 299254 -5908 11282 -10527
42951 306481 299265 -5846 11296 -10564
42967 306495 299269 -5851 11311 -10551
42985 306527 299283 -5865 11317 -10521
43007 306544 299287 -5877 11317 -10499
43033 306566 299295 -5879 11324 -10479
43064 306594 299313 -5857 11346 -10478
43097 306662 299352 -5848 11347 -10494
43131 306691 299357 -5863 11324 -10492
43169 306737 299364 -5874 11297 -10485
43211 306748 299373 -5843 11274 -10492
43251 306786 299396 -5798 11283 -10505
43295 306814 299399 -5794 11300 -10503
43341 306846 299430 -5808 11309 -10498
43383 306891 299445 -5815 11317 -10507
43429 306928 299459 -5821 11331 -10516
43470 306947 299460 -5813 11368 -10508
43521 306982 299473 -5802 11376 -10491
43567 307028 299501 -5817 11353 -10504
43617 307061 299523 -5847 11331 -10522
43664 307115 299546 -5818 11315 -10537
43717 307167 299569 -5747 11356 -10545
43770 307198 299580 -5781 11335 -10483
43826 307239 299597 -5890 11314 -10466
43875 307251 299587 -5798 11370 -10479
43890 307182 299522 -5612 11441 -10453
43856 307136 299499 -5680 11437 -10450
43786 307091 299484 -5868 11322 -10469
43693 307053 299460 -5913 11270 -10471
43600 307018 299458 -5839 11308 -10449
43514 307001 299445 -5802 11342 -10441
43445 306996 299444 -5794 11332 -10484
43390 307002 299440 -5793 11322 -10525
43351 307014 299444 -5810 11327 -10527
43316 307025 299452 -5805 11339 -10511
43296 307057 299471 -5845 11342 -10468
43287 307095 299487 -5921 11296 -10479
43284 307092 299475 -5915 11284 -10509
43278 307071 299462 -5856 11326 -10476
43266 307079 299453 -5863 11340 -10440
43248 307061 299443 -5916 11310 -10420
43230 307070 299447 -5794 11332 -10484
43212 307063 299435 -5793 11322 -10525
43199 307068 299427 -5810 11327 -10527
43191 307055 299422 -5805 11339 -10511
43195 307064 299417 -5845 11342 -10468
43205 307082 299415 -5921 11296 -10479
43221 307098 299422 -5915 11284 -10509
43237 307104 299422 -5856 11326 -10476
43261 307102 299418 -5863 11340 -10440
43289 307113 299422 -5916 11310 -10420
43323 307137 299421 -5852 11346 -10471
43357 307157 299427 -5836 11368 -10470
43393 307164 299442 -5858 11364 -10451
43431 307176 299432 -5891 11374 -10414
43470 307178 299437 -5904 11384 -10393
43515 307195 299431 -5913 11384 -10388
43557 307220 299436 -5921 11374 -10391
43600 307244 299454 -5931 11363 -10389
43645 307246 299462 -5935 11364 -10386
43691 307276 299468 -5893 11374 -10382
43736 307287 299471 -5840 11409 -10380
43782 307304 299479 -5847 11433 -10386
43834 307356 299504 -5861 11419 -10392
43887 307383 299515 -5856 11414 -10379
43942 307406 299512 -5858 11415 -10367
43994 307395 299512 -5887 11399 -10366
44025 307328 299446 -5922 11385 -10359
44008 307239 299389 -5921 11397 -10355
43952 307205 299368 -5897 11412 -10351
43867 307144 299351 -5860 11392 -10383
43777 307094 299321 -5827 11413 -10386
43691 307073 299310 -5803 11470 -10381
43618 307052 299307 -5871 11430 -10352
43564 307047 299297 -5970 11403 -10364
43527 307035 299303 -5888 11447 -10384
43500 307022 299295 -5707 11514 -10353
43481 307019 299299 -5740 11537 -10329
43472 307039 299317 -5895 11431 -10338
43479 307039 299305 -5924 11376 -10366
43479 307005 299285 -5818 11384 -10389
43473 306999 299275 -5762 11399 -10398
43461 306980 299259 -5836 11403 -10381
43453 306961 299254 -5876 11399 -10378
43440 306951 299241 -5874 11401 -10378
43434 306962 299256 -5861 11411 -10366
43429 306956 299263 -5877 11433 -10346
43440 306954 299271 -5940 11419 -10365
43451 306979 299270 -5929 11409 -10392
43468 306973 299273 -5873 11435 -10374
43486 306995 299286 -5820 11442 -10387
43515 307018 299292 -5819 11416 -10403
43547 307042 299312 -5859 11403 -10380
43580 307055 299327 -5856 11426 -10349
43616 307070 299329 -5871 11446 -10333
43657 307086 299340 -5911 11446 -10332
43697 307097 299343 -5922 11436 -10334
43741 307128 299358 -5909 11441 -10317
43787 307150 299369 -5896 11463 -10292
43832 307157 299363 -5890 11489 -10287
43882 307178 299376 -5775 11452 -10360
43930 307210 299378 -5788 11446 -10356
43979 307224 299397 -5813 11457 -10338
44026 307256 299417 -5830 11469 -10325
44076 307281 299429 -5846 11470 -10318
44124 307301 299434 -5849 11458 -10318
44176 307361 299475 -5850 11450 -10330
44231 307393 299488 -5854 11457 -10323
44287 307411 299479 -5866 11473 -10299
44339 307415 299473 -5872 11488 -10300
44384 307357 299414 -5817 11483 -10327
44374 307256 299342 -5758 11479 -10360
44325 307195 299298 -5768 11484 -10361
44237 307138 299269 -5823 11472 -10336
44140 307092 299256 -5866 11454 -10339
44040 307042 299231 -5827 11490 -10339
43954 307018 299227 -5843 11498 -10313
43887 307000 299213 -5943 11468 -10339
43836 306993 299225 -5882 11449 -10381
43799 307002 299221 -5674 11482 -10385
43769 306996 299213 -5792 11424 -10384
43748 307013 299230 -5882 11363 -10374
43740 307029 299245 -5843 11412 -10359
43739 307002 299229 -5822 11438 -10349
43730 306989 299217 -5879 11409 -10348
43715 306971 299197 -5899 11423 -10344
43699 306956 299188 -5877 11457 -10354
43685 306956 299182 -5856 11472 -10392
43673 306952 299190 -5854 11439 -10383
43661 306946 299193 -5862 11386 -10479
43658 306957 299191 -5794 11391 -10428
43663 306966 299191 -5759 11453 -10401
43674 306973 299209 -5832 11424 -10374
43691 306993 299214 -5916 11382 -10358
43710 306996 299220 -5915 11397 -10333
43737 307019 299223 -5909 11424 -10314
43763 307040 299242 -5907 11445 -10324
43795 307054 299248 -5893 11461 -10333
43828 307060 299260 -5803 11473 -10360
43866 307081 299265 -5798 11474 -10348
43905 307106 299280 -5834 11467 -10330
43948 307130 299284 -5856 11445 -10332
43993 307149 299306 -5871 11430 -10331
44035 307186 299312 -5875 11446 -10324
44079 307198 299308 -5864 11469 -10325
44123 307216 299325 -5849 11472 -10339
44169 307247 299339 -5842 11453 -10348
44215 307263 299361 -5822 11435 -10369
44260 307279 299368 -5766 11427 -10388
44312 307310 299379 -5732 11443 -10392
44360 307358 299409 -5755 11468 -10399
44412 307360 299391 -5779 11468 -10396
44471 307390 299419 -5791 11463 -10388
44522 307392 299398 -5797 11449 -10383
44546 307312 299351 -5797 11437 -10367
44521 307219 299270 -5807 11445 -10352
44456 307156 299254 -5760 11465 -10365
44369 307097 299224 -5741 11490 -10380
44272 307051 299213 -5815 11449 -10364
44181 307027 299205 -5839 11401 -10422
44102 307025 299196 -5645 11463 -10459
44045 307017 299203 -5539 11558 -10397
44004 307009 299200 -5733 11513 -10370
43980 307015 299210 -5895 11378 -10362
43961 307033 299219 -5870 11365 -10367
43954 307082 299251 -5796 11389 -10383
43955 307071 299236 -5844 11369 -10389
43953 307051 299225 -5892 11380 -10406
43944 307054 299222 -5825 11398 -10444
43933 307048 299207 -5772 11400 -10459
43921 307049 299208 -5790 11399 -10443
43911 307028 299202 -5848 11426 -10448
43902 307044 299199 -5888 11387 -10453
43898 307051 299201 -5842 11373 -10452
43901 307063 299212 -5777 11426 -10438
43910 307074 299218 -5777 11426 -10391
43925 307094 299223 -5830 11412 -10359
43947 307121 299242 -5854 11399 -10348
43971 307151 299252 -5735 11416 -10409
44003 307192 299275 -5758 11423 -10425
44040 307229 299291 -5803 11415 -10450
44079 307276 299308 -5838 11407 -10449
44119 307305 299320 -5830 11390 -10436
44164 307345 299343 -5825 11365 -10434
44204 307392 299358 -5833 11345 -10427
44253 307431 299390 -5824 11351 -10430
44301 307469 299394 -5815 11369 -10451
44347 307516 299419 -5747 11362 -10505
44394 307564 299436 -5745 11393 -10490
44438 307596 299451 -5762 11394 -10456
44484 307633 299478 -5775 11386 -10458
44532 307664 299487 -5756 11399 -10475
44577 307693 299502 -5753 11399 -10470
44628 307751 299526 -5779 11371 -10474
44677 307787 299547 -5799 11363 -10471
44730 307825 299552 -5783 11386 -10472
44780 307847 299568 -5754 11384 -10487
44823 307834 299544 -5743 11358 -10508
44828 307733 299474 -5707 11350 -10549
44783 307696 299446 -5685 11396 -10544
44704 307643 299418 -5775 11377 -10462
44611 307585 299390 -5872 11368 -10471
44515 307550 299384 -5724 11408 -10480
44436 307539 299384 -5556 11462 -10442
44368 307564 299389 -5677 11461 -10437
44325 307547 299384 -5858 11345 -10435
44293 307546 299378 -5845 11321 -10464
44273 307560 299382 -5707 11340 -10479
44265 307583 299407 -5680 11333 -10460
44267 307567 299389 -5742 11372 -10443
44271 307540 299356 -5747 11432 -10438
44270 307543 299348 -5739 11449 -10440
44261 307514 299334 -5754 11451 -10437
44247 307502 299314 -5813 11462 -10421
44227 307472 299297 -5872 11424 -10418
44213 307458 299291 -5847 11403 -10412
44200 307443 299290 -5794 11435 -10391
44195 307463 299291 -5754 11411 -10409
44195 307469 299297 -5761 11368 -10422
44206 307477 299294 -5797 11380 -10389
44219 307491 299304 -5797 11425 -10367
44240 307495 299305 -5803 11448 -10365
44266 307529 299326 -5815 11444 -10354
44296 307539 299331 -5815 11447 -10338
44326 307560 299341 -5803 11471 -10345
44365 307583 299330 -5804 11498 -10342
44400 307598 299339 -5813 11509 -10333
44444 307618 299340 -5768 11478 -10359
44486 307640 299359 -5733 11459 -10381
44528 307671 299378 -5732 11482 -10382
44576 307705 299393 -5756 11482 -10370
44622 307726 299397 -5803 11463 -10342
44665 307758 299405 -5819 11467 -10320
44709 307780 299412 -5814 11493 -10307
44758 307816 299425 -5815 11499 -10318
44803 307861 299458 -5832 11478 -10340
44850 307872 299466 -5833 11459 -10347
44901 307880 299457 -5738 11440 -10380
44951 307904 299458 -5744 11445 -10386
44992 307851 299407 -5788 11448 -10369
44993 307763 299342 -5775 11455 -10373
44947 307702 299312 -5778 11484 -10373
44867 307644 299284 -5880 11465 -10314
44773 307592 299257 -5943 11467 -10333
44675 307539 299230 -5770 11531 -10376
44590 307505 299220 -5627 11569 -10359
44522 307503 299219 -5738 11512 -10380
44477 307501 299222 -5853 11404 -10388
44447 307497 299223 -5834 11426 -10375
44429 307490 299225 -5785 11475 -10357
44423 307535 299249 -5816 11441 -10332
44431 307536 299244 -5860 11406 -10322
44439 307531 299234 -5860 11443 -10310
44444 307515 299210 -5851 11481 -10311
44435 307506 299204 -5851 11484 -10311
44422 307489 299205 -5885 11520 -10315
44409 307500 299207 -5890 11491 -10346
44394 307494 299201 -5788 11459 -10391
44386 307497 299210 -5721 11503 -10389
44384 307501 299214 -5759 11508 -10347
44384 307520 299222 -5821 11483 -10324
44396 307540 299239 -5834 11470 -10307
44414 307578 299257 -5832 11490 -10306
44430 307599 299280 -5842 11520 -10314
44455 307621 299278 -5834 11544 -10326
44487 307655 299304 -5808 11555 -10338
44517 307700 299322 -5780 11547 -10336
44548 307706 299336 -5737 11526 -10337
44582 307729 299345 -5698 11526 -10346
44619 307750 299344 -5705 11530 -10320
44661 307763 299356 -5745 11535 -10304
44703 307768 299373 -5779 11550 -10299
44746 307802 299365 -5784 11564 -10295
44791 307812 299367 -5762 11560 -10316
44831 307826 299355 -5747 11529 -10327
44877 307838 299370 -5760 11514 -10325
44922 307857 299379 -5782 11522 -10321
44967 307897 299395 -5710 11497 -10389
45009 307931 299406 -5719 11527 -10385
45057 307929 299401 -5730 11548 -10364
45109 307952 299404 -5755 11535 -10342
45147 307924 299371 -5789 11517 -10334
45143 307806 299287 -5768 11502 -10347
45091 307735 299241 -5760 11546 -10336
45005 307667 299206 -5845 11524 -10280
44903 307608 299185 -5904 11472 -10322
44797 307573 299163 -5716 11489 -10393
44703 307536 299158 -5541 11547 -10372
44628 307536 299133 -5666 11542 -10362
44573 307529 299141 -5840 11438 -10356
44532 307534 299142 -5851 11444 -10322
44503 307529 299146 -5754 11503 -10314
44485 307525 299155 -5770 11481 -10327
44476 307545 299154 -5853 11463 -10326
44472 307546 299139 -5830 11493 -10327
44467 307515 299133 -5784 11514 -10349
44453 307508 299113 -5757 11484 -10374
44433 307490 299104 -5794 11448 -10368
44409 307480 299078 -5762 11451 -10390
44386 307465 299079 -5729 11513 -10375
44362 307472 299075 -5748 11520 -10344
44347 307463 299079 -5803 11490 -10345
44345 307482 299084 -5831 11467 -10335
44347 307505 299093 -5805 11499 -10323
44352 307525 299108 -5798 11534 -10320
44364 307540 299120 -5782 11536 -10332
44387 307563 299121 -5676 11507 -10369
44414 307589 299143 -5684 11495 -10356
44443 307623 299153 -5748 11473 -10322
44475 307656 299173 -5793 11451 -10306
44509 307677 299179 -5819 11450 -10306
44543 307710 299188 -5819 11464 -10317
44582 307746 299204 -5796 11482 -10347
44622 307777 299210 -5772 11496 -10374
44658 307810 299227 -5746 11491 -10395
44695 307843 299239 -5729 11478 -10429
44734 307881 299249 -5691 11462 -10441
44772 307905 299255 -5680 11446 -10410
44811 307936 299282 -5706 11448 -10391
44852 308003 299324 -5730 11453 -10394
44891 308031 299328 -5772 11457 -10393
44937 308062 299335 -5818 11433 -10386
44977 308087 299325 -5831 11389 -10401
45000 308041 299283 -5789 11439 -10408
44970 307969 299231 -5799 11433 -10372
44893 307922 299188 -5883 11395 -10398
44790 307851 299155 -5763 11395 -10474
44675 307835 299133 -5534 11435 -10507
44564 307816 299131 -5595 11464 -10505
44473 307809 299146 -5809 11372 -10484
44402 307836 299149 -5887 11335 -10444
44348 307846 299148 -5830 11355 -10414
44311 307851 299161 -5791 11350 -10419
44278 307877 299153 -5823 11346 -10427
44259 307904 299172 -5815 11368 -10456
44252 307918 299165 -5778 11342 -10496
44245 307920 299148 -5749 11304 -10533
44231 307930 299161 -5835 11308 -10503
44206 307923 299149 -5842 11308 -10517
44179 307909 299148 -5796 11330 -10487
44150 307916 299147 -5795 11374 -10486
44123 307929 299141 -5837 11364 -10509
44103 307940 299159 -5873 11328 -10518
44089 307966 299167 -5863 11336 -10504
44080 307978 299171 -5834 11343 -10509
44082 307997 299178 -5782 11336 -10532
44089 308013 299181 -5744 11331 -10521
44103 308040 299181 -5771 11330 -10495
44120 308083 299196 -5798 11329 -10480
44142 308105 299201 -5807 11339 -10476
44163 308114 299209 -5814 11353 -10463
44190 308122 299199 -5841 11367 -10443
44215 308136 299200 -5855 11393 -10420
44243 308160 299204 -5828 11423 -10416
44270 308158 299187 -5813 11444 -10435
44299 308157 299177 -5788 11402 -10432
44329 308164 299164 -5806 11385 -10421
44359 308158 299143 -5829 11388 -10395
44390 308166 299133 -5858 11423 -10363
44424 308172 299124 -5891 11439 -10333
44460 308169 299104 -5885 11437 -10319
44494 308194 299122 -5818 11487 -10321
44531 308175 299091 -5835 11510 -10302
44534 308070 299011 -5905 11482 -10264
44487 307963 298918 -5886 11498 -10301
44402 307903 298877 -5763 11505 -10367
44299 307855 298863 -5733 11484 -10348
44193 307833 298853 -5866 11477 -10304
44099 307827 298848 -5946 11480 -10275
44023 307814 298845 -5931 11492 -10248
43966 307817 298847 -5914 11474 -10256
43930 307818 298860 -5948 11458 -10267
43901 307822 298858 -5990 11480 -10270
43883 307853 298858 -5998 11480 -10302
43878 307865 298873 -5957 11484 -10359
43884 307875 298873 -5910 11470 -10370
43879 307868 298873 -5943 11428 -10353
43869 307865 298868 -5965 11430 -10339
43848 307852 298858 -5925 11454 -10308
43829 307834 298853 -5921 11453 -10298
43808 307853 298872 -5959 11424 -10286
43792 307859 298884 -5991 11408 -10276
43787 307848 298882 -5986 11420 -10261
43784 307866 298889 -5960 11457 -10259
43795 307883 298899 -5933 11494 -10274
43810 307882 298909 -5887 11459 -10298
43830 307906 298927 -5937 11460 -10285
43853 307921 298941 -5961 11472 -10276
43880 307935 298950 -5972 11498 -10264
43911 307952 298964 -5967 11506 -10261
43948 307982 298983 -5960 11498 -10272
43984 308004 298990 -5965 11494 -10281
44027 308030 299006 -5960 11486 -10270
44071 308056 299026 -5939 11510 -10274
44106 308103 299048 -5859 11488 -10293
44148 308103 299053 -5888 11471 -10267
44191 308118 299051 -5917 11484 -10250
44233 308163 299083 -5927 11520 -10242
44275 308182 299084 -5912 11537 -10255
44320 308190 299095 -5899 11569 -10267
44365 308209 299104 -5946 11517 -10239
44399 308154 299055 -6002 11500 -10246
44380 308071 298996 -5878 11558 -10266
44312 308003 298973 -5703 11566 -10277
44211 307942 298932 -5757 11546 -10277
44101 307893 298921 -5901 11487 -10250
43992 307861 298912 -5945 11475 -10239
43898 307836 298911 -5912 11506 -10248
43822 307818 298891 -5917 11509 -10266
43766 307795 298884 -5943 11493 -10281
43720 307804 298884 -5923 11489 -10288
43690 307799 298895 -5910 11504 -10283
43666 307826 298917 -5885 11532 -10285
43657 307814 298910 -5890 11518 -10286
43650 307785 298888 -5939 11462 -10328
43636 307780 298894 -5933 11470 -10342
43609 307771 298906 -5905 11540 -10286
43586 307760 298898 -5916 11569 -10251
43560 307742 298897 -5968 11525 -10224
43538 307739 298897 -5984 11479 -10205
43520 307750 298906 -5954 11510 -10208
43511 307746 298906 -5956 11524 -10228
43511 307760 298922 -5959 11528 -10248
43513 307769 298913 -5902 11543 -10266
43525 307773 298922 -5837 11532 -10266
43545 307787 298942 -5834 11536 -10260
43568 307818 298965 -5880 11552 -10251
43595 307833 298967 -5916 11545 -10224
43624 307841 298974 -5944 11521 -10218
43653 307860 298987 -5954 11521 -10225
43688 307900 298999 -5940 11528 -10223
43726 307918 299009 -5939 11530 -10218
43763 307936 299034 -5937 11538 -10222
43797 307942 299036 -5906 11542 -10252
43832 307962 299031 -5843 11525 -10288
43867 307980 299040 -5835 11495 -10275
43903 307991 299052 -5900 11491 -10234
43941 308045 299084 -5932 11504 -10219
43984 308055 299082 -5935 11526 -10233
44027 308059 299076 -5885 11577 -10250
44069 308043 299065 -5886 11579 -10237
44074 307972 298987 -5997 11553 -10203
44023 307872 298935 -5989 11529 -10212
43926 307803 298902 -5784 11553 -10254
43803 307729 298847 -5803 11519 -10268
43678 307671 298828 -5922 11450 -10256
43563 307618 298802 -5923 11494 -10243
43462 307578 298799 -5897 11533 -10253
43376 307532 298775 -5930 11502 -10262
43308 307506 298764 -5937 11484 -10253
43250 307498 298752 -5924 11524 -10236
43198 307479 298760 -5918 11551 -10250
43160 307496 298774 -5879 11556 -10257
43128 307484 298764 -5938 11476 -10292
43100 307442 298752 -5898 11496 -10287
43066 307418 298744 -5864 11589 -10276
43031 307389 298733 -5896 11570 -10262
42995 307370 298733 -5942 11494 -10266
42964 307352 298723 -5945 11480 -10270
42934 307344 298723 -5938 11519 -10250
42910 307321 298718 -5950 11525 -10233
42893 307297 298703 -5933 11546 -10244
42889 307277 298697 -5886 11567 -10248
42888 307295 298716 -5852 11555 -10247
42894 307317 298728 -5873 11536 -10250
42907 307321 298745 -5916 11514 -10251
42922 307326 298744 -5926 11514 -10239
42949 307344 298754 -5911 11537 -10223
42975 307357 298766 -5899 11551 -10233
43003 307376 298782 -5894 11548 -10253
43033 307385 298776 -5894 11529 -10261
43067 307394 298789 -5884 11519 -10266
43099 307405 298808 -5861 11520 -10289
43131 307421 298817 -5825 11498 -10312
43167 307453 298837 -5812 11483 -10306
43200 307473 298845 -5849 11503 -10285
43238 307500 298857 -5884 11522 -10271
43280 307538 298881 -5904 11522 -10270
43322 307558 298895 -5871 11527 -10286
43370 307602 298909 -5862 11566 -10290
43416 307626 298927 -5933 11552 -10260
43448 307604 298887 -5967 11528 -10296
43430 307518 298828 -5813 11554 -10336
43357 307462 298792 -5653 11564 -10306
43251 307412 298768 -5740 11513 -10304
43130 307382 298753 -5897 11435 -10304
43009 307335 298739 -5931 11429 -10289
42907 307313 298725 -5883 11462 -10279
42822 307301 298731 -5886 11472 -10274
42754 307299 298732 -5922 11470 -10276
42695 307304 298764 -5919 11481 -10303
42644 307306 298767 -5892 11456 -10356
42604 307317 298777 -5860 11447 -10404
42573 307351 298799 -5924 11402 -10411
42554 307351 298805 -5901 11412 -10400
42530 307356 298816 -5824 11480 -10378
42502 307353 298830 -5849 11480 -10369
42473 307341 298825 -5926 11411 -10357
42441 307347 298836 -5944 11393 -10359
42420 307353 298846 -5912 11440 -10365
42404 307356 298845 -5912 11438 -10363
42394 307359 298862 -5902 11411 -10360
42395 307377 298880 -5816 11435 -10361
42405 307396 298889 -5862 11446 -10363
42421 307428 298924 -5911 11448 -10355
42436 307457 298937 -5924 11416 -10344
42457 307460 298942 -5927 11415 -10320
42483 307473 298942 -5930 11442 -10309
42510 307497 298972 -5934 11437 -10313
42545 307525 298995 -5935 11432 -10313
42578 307543 299013 -5919 11449 -10333
42610 307572 299034 -5885 11451 -10362
42647 307603 299063 -5871 11445 -10371
42687 307648 299093 -5905 11448 -10351
42726 307700 299124 -5924 11439 -10312
42758 307757 299153 -5928 11468 -10284
42792 307812 299178 -5965 11507 -10259
42824 307841 299200 -5998 11521 -10239
42861 307882 299223 -5977 11562 -10255
42903 307930 299248 -5970 11560 -10251
42947 307956 299267 -5983 11513 -10205
42997 307992 299282 -5966 11532 -10217
43042 307970 299267 -5867 11544 -10260
43056 307868 299193 -5816 11535 -10257
43017 307778 299151 -5926 11504 -10239
42941 307726 299152 -6010 11466 -10205
42849 307690 299165 -6005 11493 -10186
42753 307661 299177 -5985 11509 -10198
42668 307642 299208 -5966 11502 -10218
42606 307626 299245 -5971 11478 -10229
42563 307671 299307 -5982 11508 -10284
42538 307716 299383 -5940 11556 -10382
42515 307760 299461 -5855 11507 -10413
42500 307803 299549 -5834 11438 -10419
42507 307917 299691 -5834 11410 -10432
42513 308001 299824 -5755 11407 -10458
42502 308198 300056 -5660 11276 -10576
42482 308759 300595 -5700 11223 -10859
42468 309907 301607 -5809 11487 -11296
42468 311270 302822 -5765 11628 -11529
42469 311643 303200 -5379 11501 -11097
42480 311417 303252 -4926 11479 -10469
42462 310742 302962 -4855 11302 -10157
42461 310369 302860 -5009 11043 -10107
42480 310425 303017 -4997 11347 -10276
42491 310614 303206 -4812 11771 -10359
42511 310679 303315 -4861 11876 -10390
42521 310600 303317 -5118 11588 -10457
42518 310243 303094 -5118 11165 -10415
42527 310069 303050 -5067 11261 -10654
42552 309841 302965 -5052 11403 -10942
42589 309889 303061 -4883 11215 -11054
42616 310080 303246 -4737 11121 -11110
42636 310351 303447 -4706 11259 -11024
42664 310686 303643 -4821 11545 -10903
42692 311008 303764 -4835 11641 -10790
42714 311277 303845 -4822 11628 -10751
42741 311558 303901 -4916 11607 -10765
42773 311842 304038 -4916 11546 -10833
42808 312132 304213 -4964 11514 -10926
42840 312462 304379 -4982 11454 -11061
42860 312617 304392 -4913 11488 -11066
42877 312596 304338 -4992 11293 -10666
42899 312754 304353 -4982 11358 -10880
42901 312665 304209 -4984 11331 -10900
42862 312468 303998 -5173 11212 -10795
42766 312334 303834 -5327 11164 -10727
42632 312196 303673 -5233 11232 -10737
42487 312026 303517 -5157 11303 -10810
42353 311882 303367 -5178 11258 -10865
42233 311750 303243 -5197 11196 -10854
42112 311520 303040 -5220 11210 -10833
42013 311491 302998 -5256 11242 -10913
41921 311437 302929 -5208 11259 -10974
41817 311206 302693 -5211 11278 -10820
41723 311057 302552 -5326 11302 -10660
41648 311048 302500 -5372 11336 -10710
41582 311088 302535 -5305 11328 -10811
41520 311081 302602 -5231 11302 -10761
41479 311244 302883 -5228 11346 -10799
41466 311354 303173 -5261 11377 -10947
41476 311353 303352 -5275 11309 -10988
41500 311196 303386 -5341 11242 -10967
41543 310994 303382 -5352 11280 -10925
41603 310796 303356 -5269 11315 -10857
41686 310567 303290 -5235 11297 -10803
41770 310341 303214 -5262 11300 -10759
41861 310189 303166 -5280 11337 -10682
41954 310085 303137 -5270 11380 -10683
42046 309924 303066 -5332 11372 -10703
42144 309843 303049 -5364 11320 -10689
42238 309821 303045 -5334 11353 -10651
42325 309747 303000 -5339 11377 -10588
42413 309657 302931 -5368 11454 -10551
42503 309592 302894 -5418 11504 -10529
42591 309572 302893 -5450 11480 -10530
42674 309560 302905 -5439 11467 -10505
42757 309502 302852 -5437 11486 -10470
42842 309446 302818 -5447 11513 -10484
42927 309465 302832 -5489 11535 -10482
43006 309426 302806 -5556 11518 -10431
43092 309406 302788 -5334 11353 -10651
43175 309408 302794 -5339 11377 -10588
43251 309390 302756 -5368 11454 -10551
43274 309249 302679 -5418 11504 -10529
43254 309162 302632 -5450 11480 -10530
43191 309077 302582 -5439 11467 -10505
43122 309027 302561 -5437 11486 -10470
43056 308958 302532 -5447 11513 -10484
42997 308914 302507 -5489 11535 -10482
42956 308846 302459 -5556 11518 -10431
42927 308775 302416 -5505 11532 -10460
42905 308742 302402 -5334 11591 -10429
42894 308717 302367 -5393 11609 -10380
42890 308677 302349 -5598 11547 -10370
42903 308644 302330 -5699 11510 -10373
42916 308573 302267 -5661 11525 -10365
42927 308508 302218 -5622 11558 -10355
42935 308472 302203 -5658 11551 -10336
42945 308442 302172 -5645 11543 -10312
42953 308400 302143 -5587 11565 -10329
42965 308363 302118 -5595 11584 -10362
42980 308347 302100 -5662 11564 -10336
43002 308329 302083 -5771 11540 -10322
43030 308325 302071 -5806 11551 -10314
43064 308318 302055 -5740 11594 -10271
43100 308297 302036 -5711 11644 -10270
43137 308287 302026 -5757 11624 -10286
43178 308279 302029 -5781 11562 -10290
43225 308287 302023 -5754 11550 -10302
43275 308281 302013 -5731 11577 -10311
43319 308276 302002 -5719 11578 -10301
43372 308264 301986 -5754 11566 -10287
43423 308261 301969 -5801 11580 -10275
43475 308263 301971 -5789 11605 -10262
43527 308264 301966 -5771 11616 -10239
43578 308280 301959 -5764 11615 -10226
43630 308281 301955 -5762 11625 -10235
43683 308274 301949 -5766 11629 -10253
43740 308309 301957 -5740 11622 -10259
43799 308308 301941 -5705 11616 -10259
43861 308324 301936 -5670 11611 -10272
43921 308323 301925 -5672 11627 -10291
43959 308267 301873 -5713 11634 -10293
43947 308144 301782 -5721 11612 -10291
43897 308068 301738 -5729 11604 -10289
43816 307988 301680 -5746 11593 -10291
43735 307902 301647 -5755 11587 -10296
43660 307836 301610 -5737 11629 -10288
43601 307786 301574 -5734 11632 -10293
43554 307727 301514 -5788 11594 -10287
43524 307691 301503 -5575 11600 -10333
43499 307656 301469 -5485 11678 -10281
43481 307619 301447 -5648 11626 -10285
43476 307625 301442 -5796 11518 -10282
43483 307588 301411 -5779 11546 -10275
43486 307552 301385 -5732 11591 -10282
43487 307522 301364 -5766 11569 -10290
43485 307505 301354 -5772 11536 -10309
43485 307474 301331 -5730 11539 -10326
43484 307450 301315 -5641 11547 -10364
43486 307432 301284 -5739 11559 -10357
43498 307411 301274 -5841 11508 -10355
43514 307391 301259 -5766 11518 -10308
43534 307400 301250 -5691 11582 -10292
43565 307391 301241 -5733 11579 -10299
43598 307395 301234 -5795 11541 -10301
43633 307375 301209 -5792 11534 -10299
43669 307366 301188 -5724 11555 -10326
43711 307327 301156 -5671 11538 -10369
43753 307292 301127 -5692 11561 -10344
43800 307252 301085 -5706 11588 -10313
43848 307228 301061 -5706 11590 -10292
43898 307220 301030 -5703 11582 -10282
43947 307235 301025 -5707 11574 -10279
43998 307241 301026 -5723 11560 -10270
44045 307257 301015 -5726 11565 -10265
44095 307260 301015 -5720 11557 -10312
44144 307268 301020 -5700 11546 -10371
44194 307275 301005 -5669 11556 -10385
44245 307278 301000 -5686 11564 -10356
44299 307289 301001 -5718 11570 -10331
44352 307296 300974 -5724 11569 -10323
44409 307301 300949 -5722 11547 -10306
44463 307303 300920 -5729 11560 -10295
44487 307236 300844 -5737 11597 -10310
44464 307139 300772 -5744 11579 -10298
44398 307073 300713 -5741 11555 -10283
44309 307017 300658 -5700 11591 -10309
44219 306977 300619 -5677 11572 -10297
44141 306966 300587 -5764 11541 -10286
44074 306953 300559 -5784 11553 -10312
44020 306932 300528 -5593 11599 -10312
43983 306931 300492 -5530 11632 -10284
43958 306941 300477 -5694 11545 -10277
43936 306938 300438 -5824 11453 -10284
43931 306973 300428 -5798 11475 -10305
43935 306982 300381 -5732 11524 -10351
43934 306976 300328 -5738 11516 -10390
43931 306992 300309 -5709 11472 -10418
43921 307014 300278 -5685 11443 -10418
43909 307037 300269 -5700 11482 -10400
43899 307048 300231 -5737 11497 -10360
43892 307059 300200 -5807 11452 -10395
43895 307074 300180 -5812 11434 -10445
43902 307116 300173 -5768 11466 -10401
43918 307165 300162 -5740 11493 -10398
43939 307197 300148 -5746 11452 -10426
43962 307234 300124 -5751 11403 -10462
43992 307278 300098 -5705 11384 -10496
44020 307329 300082 -5697 11408 -10481
44052 307394 300080 -5730 11451 -10452
44091 307412 300049 -5737 11456 -10439
44128 307450 300017 -5744 11457 -10438
44169 307491 299990 -5731 11431 -10448
44213 307544 299980 -5702 11408 -10439
44253 307604 299968 -5694 11425 -10426
44301 307657 299964 -5698 11433 -10434
44347 307717 299954 -5692 11407 -10465
44391 307760 299935 -5614 11378 -10525
44431 307812 299917 -5669 11408 -10503
44477 307867 299896 -5728 11440 -10500
44524 307902 299873 -5728 11449 -10527
44569 307952 299869 -5708 11441 -10524
44617 307985 299859 -5704 11413 -10495
44666 308030 299878 -5719 11372 -10452
44715 308096 299904 -5727 11370 -10439
44756 308093 299888 -5694 11376 -10462
44760 308015 299827 -5664 11356 -10535
44715 307985 299802 -5614 11409 -10526
44641 307956 299809 -5652 11452 -10474
44547 307905 299796 -5787 11401 -10415
44460 307889 299800 -5833 11357 -10451
44380 307894 299831 -5690 11406 -10502
44315 307909 299840 -5605 11464 -10472
44267 307917 299809 -5743 11442 -10465
44230 307952 299810 -5844 11377 -10489
44204 307979 299798 -5814 11323 -10490
44190 308011 299790 -5737 11318 -10482
44183 308028 299772 -5742 11350 -10467
44177 308010 299744 -5807 11373 -10461
44173 307995 299734 -5855 11364 -10474
44157 307989 299729 -5861 11359 -10482
44136 307982 299738 -5869 11360 -10426
44119 307945 299721 -5937 11358 -10405
44106 307959 299739 -5948 11359 -10439
44092 307939 299739 -5881 11379 -10437
44085 307927 299723 -5820 11415 -10463
44089 307925 299705 -5787 11403 -10490
44099 307927 299709 -5824 11383 -10481
44113 307934 299699 -5863 11417 -10449
44134 307915 299694 -5865 11422 -10404
44161 307922 299702 -5835 11404 -10392
44195 307958 299730 -5807 11396 -10388
44234 307991 299781 -5827 11407 -10397
44273 308008 299801 -5846 11422 -10406
44320 308006 299827 -5843 11422 -10407
44366 308044 299858 -5822 11420 -10412
44415 308044 299889 -5748 11437 -10445
44465 308034 299884 -5798 11453 -10425
44513 308041 299921 -5834 11443 -10421
44557 308072 299949 -5847 11434 -10409
44607 308111 299994 -5860 11438 -10406
44658 308195 300069 -5837 11476 -10418
44709 308332 300184 -5801 11466 -10398
44766 308489 300322 -5765 11451 -10369
44819 308717 300531 -5747 11421 -10350
44871 309125 300931 -5646 11477 -10390
44886 310013 301817 -5648 11540 -10417
44875 311596 303300 -5708 11495 -10435
44826 312419 304123 -5635 11424 -10545
44712 312058 304064 -5466 11348 -10858
44588 311722 304050 -5401 11283 -11320
44445 311069 303739 -5465 11476 -11584
44349 311124 303907 -5419 11690 -11400
44269 311180 304050 -5198 11627 -10727
44199 311169 304115 -5297 10936 -10308
44143 310960 304029 -5311 10802 -10222
44097 310702 303900 -4994 11266 -10445
44056 310268 303623 -4909 11560 -10539
44023 309968 303537 -5150 11588 -10524
43993 309664 303488 -5258 11390 -10511
43962 309673 303655 -5312 11294 -10582
43938 309950 303932 -5239 11229 -10682
43926 310359 304231 -5133 11232 -10927
43913 310682 304416 -5045 11262 -11172
43887 310808 304379 -4949 11160 -11240
43872 310988 304408 -4898 11232 -11240
43862 311031 304374 -4884 11497 -11232
43868 311257 304468 -4839 11690 -11067
43867 311362 304483 -4750 11593 -10819
43860 311437 304461 -4836 11504 -10792
43863 311502 304464 -4872 11526 -10840
43865 311564 304455 -4833 11460 -10849
43866 311592 304410 -4913 11414 -10791
43858 311544 304306 -5017 11384 -10713
43851 311395 304111 -5079 11391 -10737
43859 311305 303966 -5114 11404 -10746
43862 311253 303820 -5081 11350 -10675
43881 311270 303732 -5178 11244 -10535
43893 311233 303575 -5332 11272 -10439
43896 311067 303340 -5179 11460 -10495
43902 311058 303250 -5074 11524 -10577
43897 310966 303093 -5180 11457 -10682
43871 310730 302845 -5200 11365 -10678
43852 310750 302821 -5167 11355 -10584
43847 310835 302873 -5263 11476 -10775
43824 310740 302841 -5268 11538 -10625
43768 310769 302981 -5368 11502 -10498
43696 310874 303250 -5408 11479 -10657
43611 310913 303447 -5243 11533 -10719
43529 310791 303492 -5152 11575 -10675
43457 310674 303563 -5260 11538 -10716
43414 310609 303664 -5315 11475 -10687
43394 310588 303760 -5312 11435 -10680
43387 310507 303768 -5329 11411 -10748
43396 310374 303723 -5294 11388 -10706
43418 310237 303673 -5203 11412 -10647
43448 310140 303633 -5166 11453 -10663
43489 310003 303565 -5224 11465 -10637
43524 309812 303457 -5249 11461 -10599
43554 309682 303386 -5296 11507 -10610
43582 309556 303312 -5339 11504 -10633
43611 309426 303230 -5260 11458 -10600
43638 309264 303113 -5230 11493 -10556
43668 309124 303027 -5363 11472 -10546
43705 308985 302920 -5368 11448 -10545
43749 308857 302828 -5352 11484 -10515
43795 308789 302768 -5374 11546 -10499
43846 308707 302706 -5440 11572 -10481
43905 308624 302637 -5514 11544 -10457
43962 308587 302588 -5542 11532 -10433
44027 308541 302557 -5546 11545 -10416
44093 308537 302549 -5567 11528 -10408
44159 308527 302533 -5597 11494 -10388
44220 308442 302462 -5617 11468 -10393
44285 308386 302418 -5624 11520 -10412
44356 308413 302413 -5571 11657 -10363
44421 308446 302416 -5545 11693 -10289
44489 308442 302407 -5683 11552 -10247
44549 308403 302369 -5833 11441 -10261
44617 308407 302339 -5820 11526 -10321
44688 308438 302346 -5637 11678 -10337
44744 308407 302287 -5548 11731 -10279
44762 308274 302154 -5681 11607 -10219
44735 308142 302050 -5866 11477 -10253
44666 308031 301952 -5832 11559 -10302
44588 307942 301862 -5606 11767 -10269
44508 307831 301767 -5607 11830 -10227
44435 307742 301670 -5818 11691 -10219
44376 307676 301604 -5949 11602 -10216
44342 307602 301534 -5939 11609 -10218
44319 307554 301479 -5887 11611 -10207
44309 307494 301452 -5880 11632 -10172
44306 307492 301435 -5859 11646 -10175
44321 307473 301414 -5775 11625 -10193
44338 307419 301359 -5776 11616 -10156
44353 307358 301320 -5879 11642 -10142
44355 307325 301297 -5907 11661 -10169
44359 307308 301262 -5811 11708 -10159
44357 307277 301239 -5790 11745 -10126
44361 307259 301207 -5894 11732 -10111
44364 307227 301187 -5929 11730 -10129
44372 307217 301163 -5875 11721 -10150
44396 307211 301144 -5840 11680 -10144
44422 307206 301128 -5841 11541 -10123
44450 307189 301114 -5854 11581 -10156
44482 307211 301106 -5852 11620 -10170
44520 307234 301112 -5870 11573 -10168
44558 307249 301099 -5910 11502 -10190
44599 307245 301093 -5910 11511 -10247
44641 307265 301091 -5870 11586 -10284
44691 307289 301087 -5854 11601 -10281
44738 307330 301090 -5839 11552 -10291
44787 307336 301083 -5746 11519 -10363
44839 307344 301067 -5723 11541 -10326
44892 307373 301080 -5773 11531 -10300
44945 307372 301059 -5842 11478 -10290
45001 307385 301053 -5851 11508 -10295
45058 307379 301032 -5829 11537 -10311
45096 307317 300970 -5877 11512 -10312
45083 307205 300892 -5864 11487 -10300
45028 307153 300860 -5656 11528 -10302
44948 307104 300815 -5574 11619 -10327
44859 307061 300796 -5681 11570 -10358
44780 307013 300777 -5780 11463 -10359
44717 306986 300747 -5798 11453 -10337
44675 306989 300733 -5748 11528 -10323
44654 306998 300742 -5752 11569 -10310
44644 307008 300735 -5768 11535 -10316
44636 306995 300723 -5746 11512 -10348
44646 307026 300729 -5656 11564 -10363
44666 307019 300704 -5619 11619 -10386
44674 307032 300699 -5660 11563 -10420
44680 307056 300695 -5596 11514 -10449
44686 307068 300697 -5528 11552 -10452
44684 307097 300684 -5531 11571 -10415
44687 307141 300714 -5570 11526 -10404
44691 307172 300706 -5615 11471 -10421
44702 307194 300699 -5572 11470 -10456
44719 307230 300710 -5511 11487 -10463
44741 307300 300726 -5536 11503 -10446
44770 307350 300748 -5541 11485 -10449
44800 307384 300749 -5483 11474 -10505
44835 307414 300748 -5419 11480 -10572
44877 307460 300748 -5416 11480 -10565
44922 307505 300758 -5479 11454 -10530
44968 307575 300786 -5515 11433 -10524
45018 307641 300810 -5504 11462 -10558
45068 307701 300839 -5452 11481 -10599
45119 307789 300889 -5427 11449 -10596
45167 307848 300917 -5455 11403 -10568
45219 307904 300919 -5453 11392 -10569
45268 307981 300930 -5419 11390 -10591
45320 308070 300970 -5460 11374 -10644
45375 308102 300940 -5459 11440 -10641
45433 308174 300940 -5438 11435 -10653
45495 308283 300976 -5558 11374 -10590
45521 308318 300947 -5670 11332 -10578
45491 308312 300917 -5525 11352 -10615
45426 308366 300938 -5394 11420 -10560
45330 308397 300936 -5563 11364 -10555
45235 308390 300924 -5749 11229 -10604
45149 308401 300918 -5647 11234 -10619
45083 308430 300945 -5663 11281 -10588
45035 308468 300982 -5737 11282 -10620
45007 308524 301028 -5760 11272 -10678
44988 308584 301086 -5713 11294 -10672
44976 308689 301182 -5716 11293 -10594
44986 308791 301259 -5815 11243 -10597
44994 308829 301308 -5770 11228 -10642
44985 308837 301347 -5642 11254 -10627
44966 308858 301405 -5586 11275 -10625
44946 308856 301467 -5643 11269 -10628
44922 308855 301515 -5635 11301 -10632
44895 308867 301542 -5585 11335 -10628
44875 308880 301589 -5609 11340 -10624
44863 308893 301629 -5656 11328 -10605
44858 308920 301660 -5646 11342 -10603
44862 308933 301698 -5609 11352 -10603
44869 308927 301705 -5602 11340 -10585
44884 308918 301734 -5595 11325 -10578
44902 308907 301776 -5570 11329 -10573
44926 308905 301810 -5586 11352 -10578
44953 308917 301823 -5617 11354 -10578
44981 308904 301836 -5617 11355 -10539
45012 308915 301858 -5624 11386 -10511
45051 308905 301859 -5653 11379 -10511
45087 308907 301875 -5680 11364 -10532
45129 308928 301886 -5666 11374 -10558
45169 308889 301847 -5635 11392 -10554
45218 308856 301797 -5661 11392 -10545
45272 308844 301756 -5690 11356 -10563
45318 308784 301687 -5655 11357 -10567
45344 308688 301580 -5502 11435 -10576
45321 308540 301454 -5491 11447 -10563
45260 308441 301386 -5682 11331 -10540
45178 308367 301315 -5778 11253 -10518
45097 308320 301313 -5763 11261 -10476
45022 308304 301315 -5746 11317 -10482
44968 308271 301313 -5747 11342 -10492
44935 308255 301301 -5723 11329 -10518
44916 308247 301322 -5695 11320 -10575
44912 308256 301333 -5677 11287 -10553
44917 308290 301357 -5751 11309 -10566
44935 308298 301360 -5795 11324 -10606
44948 308247 301340 -5750 11301 -10551
44961 308245 301344 -5716 11321 -10514
44961 308238 301354 -5727 11333 -10497
44954 308239 301364 -5779 11327 -10497
44951 308238 301370 -5786 11325 -10520
44943 308235 301372 -5744 11343 -10520
44942 308251 301395 -5682 11376 -10555
44949 308253 301414 -5712 11391 -10526
44963 308282 301437 -5749 11371 -10482
44980 308312 301458 -5750 11378 -10436
45001 308330 301478 -5756 11390 -10425
45027 308353 301493 -5762 11389 -10444
45059 308372 301512 -5734 11396 -10472
45093 308394 301534 -5706 11393 -10490
45125 308415 301545 -5685 11389 -10507
45163 308442 301566 -5642 11350 -10497
45201 308465 301586 -5650 11366 -10481
45246 308501 301602 -5653 11425 -10465
45285 308530 301634 -5704 11419 -10435
45328 308521 301604 -5815 11374 -10429
45376 308526 301585 -5804 11397 -10460
45427 308564 301602 -5588 11496 -10468
45464 308536 301561 -5538 11539 -10453
45455 308437 301487 -5701 11431 -10467
45397 308393 301478 -5749 11336 -10494
45308 308369 301464 -5687 11345 -10506
45213 308341 301470 -5658 11384 -10494
45119 308310 301465 -5706 11384 -10475
45040 308281 301459 -5728 11372 -10467
44982 308278 301467 -5721 11372 -10483
44942 308280 301479 -5702 11393 -10485
44916 308291 301507 -5735 11424 -10455
44901 308300 301520 -5811 11386 -10475
44904 308320 301554 -5749 11367 -10531
44912 308333 301549 -5628 11422 -10544
44916 308311 301533 -5607 11435 -10536
44914 308301 301534 -5665 11402 -10522
44910 308297 301535 -5707 11380 -10478
44897 308284 301545 -5692 11405 -10454
44888 308274 301550 -5704 11443 -10456
44879 308265 301557 -5736 11457 -10479
44877 308270 301562 -5724 11455 -10486
44882 308276 301577 -5684 11447 -10457
44891 308285 301578 -5675 11446 -10431
44904 308285 301577 -5686 11422 -10425
44924 308290 301571 -5607 11435 -10536
44951 308292 301567 -5665 11402 -10522
44984 308288 301567 -5707 11380 -10478
45015 308279 301562 -5692 11405 -10454
45055 308289 301563 -5704 11443 -10456
45087 308305 301574 -5736 11457 -10479
45130 308337 301599 -5724 11455 -10486
45173 308350 301604 -5684 11447 -10457
45217 308373 301618 -5675 11446 -10431
45260 308404 301630 -5686 11422 -10425
45307 308401 301629 -5637 11409 -10466
45357 308415 301628 -5650 11443 -10453
45410 308415 301611 -5664 11464 -10452
45440 308347 301540 -5676 11463 -10437
45421 308238 301456 -5677 11460 -10422
45358 308184 301434 -5666 11456 -10415
45263 308115 301389 -5670 11437 -10412
45164 308064 301376 -5660 11426 -10430
45071 308013 301346 -5647 11495 -10457
44995 307960 301330 -5674 11485 -10444
44943 307906 301298 -5764 11418 -10480
44906 307893 301290 -5673 11435 -10533
44883 307880 301289 -5472 11524 -10481
44867 307861 301272 -5536 11553 -10445
44864 307841 301263 -5719 11442 -10457
44871 307782 301219 -5796 11359 -10462
44870 307734 301192 -5735 11366 -10463
44870 307704 301171 -5683 11428 -10466
44867 307665 301153 -5697 11451 -10470
44854 307625 301123 -5671 11414 -10491
44848 307601 301108 -5617 11414 -10509
44847 307567 301100 -5584 11425 -10473
44850 307564 301103 -5659 11443 -10488
44860 307573 301106 -5742 11426 -10522
44878 307570 301102 -5673 11434 -10501
44899 307572 301099 -5597 11503 -10495
44927 307577 301104 -5635 11479 -10475
44958 307588 301114 -5703 11414 -10455
44997 307595 301124 -5685 11411 -10459
45036 307611 301120 -5601 11454 -10488
45080 307625 301133 -5548 11466 -10516
45124 307653 301149 -5573 11444 -10493
45167 307672 301157 -5612 11445 -10454
45208 307684 301166 -5610 11463 -10456
45255 307704 301172 -5612 11464 -10456
45300 307717 301177 -5618 11461 -10442
45347 307741 301188 -5612 11471 -10431
45394 307790 301227 -5613 11470 -10429
45449 307815 301241 -5602 11478 -10437
45502 307834 301265 -5572 11492 -10450
45555 307861 301278 -5545 11473 -10474
45597 307847 301260 -5541 11464 -10478
45585 307731 301174 -5543 11469 -10451
45522 307690 301160 -5546 11483 -10433
45432 307646 301149 -5558 11497 -10428
45336 307606 301145 -5578 11502 -10421
45245 307569 301134 -5574 11519 -10435
45168 307528 301132 -5565 11575 -10449
45110 307489 301117 -5614 11534 -10414
45070 307485 301107 -5696 11458 -10459
45051 307486 301127 -5587 11464 -10523
45037 307485 301135 -5385 11561 -10489
45034 307512 301155 -5436 11608 -10445
45043 307477 301136 -5631 11488 -10424
45051 307448 301131 -5691 11427 -10431
45046 307457 301139 -5573 11468 -10447
45038 307446 301134 -5520 11504 -10449
45029 307436 301125 -5607 11476 -10450
45020 307438 301134 -5653 11453 -10457
45011 307426 301122 -5586 11466 -10492
45014 307405 301113 -5504 11470 -10503
45021 307421 301124 -5577 11480 -10518
45035 307428 301137 -5690 11452 -10501
45054 307433 301136 -5619 11479 -10452
45081 307443 301138 -5510 11554 -10447
45107 307459 301155 -5551 11530 -10429
45135 307472 301163 -5621 11464 -10431
45168 307489 301177 -5598 11446 -10445
45208 307510 301190 -5563 11487 -10467
45251 307538 301208 -5535 11515 -10483
45293 307560 301218 -5504 11503 -10485
45337 307573 301234 -5518 11493 -10467
45383 307588 301241 -5537 11511 -10433
45430 307589 301251 -5524 11527 -10412
45475 307615 301260 -5527 11528 -10414
45519 307629 301277 -5543 11531 -10432
45568 307649 301298 -5543 11524 -10442
45613 307652 301294 -5536 11510 -10438
45662 307703 301319 -5538 11507 -10417
45711 307726 301344 -5543 11509 -10429
45766 307754 301354 -5477 11488 -10474
45823 307767 301352 -5505 11515 -10448
45862 307723 301301 -5548 11508 -10435
45854 307633 301248 -5543 11505 -10432
45803 307605 301258 -5502 11516 -10442
45723 307580 301254 -5490 11500 -10458
45629 307540 301228 -5526 11493 -10455
45537 307479 301226 -5502 11518 -10452
45463 307471 301228 -5476 11563 -10468
45413 307456 301232 -5607 11426 -10491
45381 307448 301244 -5471 11482 -10497
45355 307450 301258 -5336 11566 -10433
45339 307426 301243 -5468 11534 -10429
45336 307453 301281 -5651 11402 -10458
45345 307461 301281 -5656 11404 -10481
45348 307439 301261 -5527 11482 -10472
45345 307413 301257 -5524 11520 -10433
45339 307392 301245 -5579 11499 -10440
45328 307401 301263 -5469 11439 -10529
45317 307401 301277 -5477 11454 -10491
45308 307382 301278 -5605 11459 -10482
45302 307374 301282 -5667 11438 -10517
45308 307388 301289 -5576 11463 -10493
45318 307400 301318 -5502 11522 -10458
45343 307428 301338 -5568 11494 -10440
45368 307439 301349 -5648 11430 -10458
45394 307452 301362 -5606 11430 -10479
45423 307484 301376 -5527 11463 -10505
45457 307511 301407 -5501 11455 -10521
45495 307547 301419 -5527 11445 -10507
45531 307565 301440 -5539 11468 -10510
45570 307565 301434 -5524 11472 -10529
45615 307602 301464 -5542 11465 -10524
45657 307635 301469 -5584 11448 -10503
45702 307663 301490 -5597 11429 -10483
45742 307670 301508 -5587 11405 -10466
45787 307709 301516 -5556 11406 -10490
45827 307725 301528 -5514 11435 -10542
45873 307751 301533 -5504 11406 -10559
45912 307789 301540 -5526 11389 -10542
45963 307803 301538 -5540 11433 -10520
46013 307827 301545 -5540 11466 -10531
46065 307859 301557 -5538 11460 -10544
46102 307830 301509 -5514 11442 -10540
46093 307731 301428 -5502 11430 -10552
46036 307687 301401 -5524 11421 -10584
45956 307623 301359 -5508 11443 -10576
45864 307583 301326 -5479 11501 -10526
45781 307543 301299 -5644 11406 -10482
45718 307543 301296 -5602 11424 -10492
45676 307533 301296 -5391 11510 -10528
45647 307537 301286 -5400 11554 -10509
45628 307545 301284 -5610 11446 -10490
45619 307541 301277 -5688 11383 -10473
45627 307572 301299 -5624 11422 -10423
45643 307570 301295 -5576 11465 -10414
45650 307527 301266 -5597 11489 -10463
45650 307517 301254 -5537 11462 -10521
45647 307511 301248 -5534 11484 -10488
45636 307491 301235 -5611 11501 -10451
45628 307471 301227 -5708 11463 -10454
45616 307462 301207 -5646 11481 -10460
45621 307466 301232 -5529 11545 -10427
45627 307480 301238 -5552 11558 -10414
45642 307501 301249 -5649 11536 -10431
45657 307504 301248 -5670 11505 -10445
45681 307507 301245 -5617 11497 -10448
45708 307514 301255 -5608 11479 -10410
45738 307543 301274 -5643 11472 -10367
45772 307560 301267 -5640 11498 -10364
45807 307564 301283 -5612 11535 -10382
45847 307594 301299 -5618 11547 -10379
45889 307625 301311 -5665 11534 -10370
45933 307647 301326 -5687 11515 -10371
45980 307668 301343 -5679 11518 -10375
46020 307697 301358 -5674 11529 -10388
46062 307715 301368 -5646 11519 -10408
46100 307726 301381 -5607 11508 -10421
46147 307748 301403 -5603 11531 -10411
46188 307781 301415 -5633 11544 -10410
46237 307803 301439 -5662 11539 -10416
46284 307845 301457 -5666 11544 -10392
46332 307861 301469 -5666 11538 -10375
46354 307800 301413 -5680 11506 -10376
46328 307717 301358 -5690 11481 -10376
46263 307679 301340 -5625 11524 -10392
46175 307638 301326 -5574 11575 -10393
46080 307597 301306 -5611 11516 -10355
45998 307556 301300 -5681 11497 -10375
45932 307546 301300 -5578 11545 -10414
45888 307559 301337 -5433 11595 -10403
45857 307579 301360 -5564 11575 -10387
45836 307577 301373 -5728 11454 -10379
45828 307599 301376 -5733 11440 -10375
45831 307616 301406 -5652 11497 -10374
45836 307599 301396 -5637 11529 -10384
45837 307589 301389 -5647 11539 -10374
45830 307580 301398 -5573 11510 -10434
45818 307583 301394 -5606 11525 -10401
45796 307549 301392 -5676 11561 -10410
45785 307534 301379 -5717 11540 -10411
45770 307533 301388 -5653 11531 -10359
45767 307545 301395 -5581 11585 -10359
45768 307548 301397 -5609 11559 -10369
45777 307558 301410 -5683 11494 -10390
45795 307565 301416 -5671 11487 -10404
45815 307578 301439 -5584 11505 -10406
45843 307616 301458 -5616 11516 -10395
45872 307630 301484 -5650 11533 -10381
45901 307663 301507 -5638 11548 -10379
45930 307686 301522 -5642 11565 -10367
45965 307717 301537 -5685 11547 -10352
45998 307737 301555 -5680 11533 -10357
46030 307753 301550 -5666 11555 -10360
46068 307769 301572 -5644 11557 -10358
46105 307792 301588 -5588 11542 -10350
46143 307801 301583 -5566 11534 -10357
46180 307816 301597 -5584 11558 -10358
46220 307840 301610 -5585 11594 -10340
46254 307863 301608 -5592 11594 -10321
46296 307868 301616 -5628 11588 -10332
46338 307873 301604 -5637 11599 -10357
46386 307894 301629 -5630 11575 -10366
46428 307878 301609 -5652 11533 -10368
46433 307794 301540 -5693 11524 -10360
46383 307722 301494 -5669 11553 -10384
46301 307669 301469 -5655 11539 -10374
46188 307597 301453 -5771 11488 -10322
46075 307525 301411 -5822 11500 -10359
45964 307456 301388 -5582 11571 -10388
45877 307437 301383 -5460 11645 -10339
45813 307414 301377 -5663 11561 -10328
45761 307403 301360 -5822 11421 -10334
45720 307384 301365 -5764 11449 -10331
45684 307368 301371 -5661 11514 -10327
45664 307384 301394 -5697 11510 -10329
45653 307354 301375 -5722 11495 -10354
45630 307316 301350 -5716 11503 -10351
45609 307297 301331 -5739 11498 -10353
45574 307262 301327 -5747 11474 -10362
45545 307205 301289 -5810 11507 -10400
45512 307156 301237 -5847 11505 -10393
45491 307103 301167 -5757 11532 -10336
45472 307081 301126 -5672 11607 -10323
45469 307112 301137 -5699 11583 -10316
45473 307165 301144 -5738 11545 -10320
45486 307204 301164 -5653 11556 -10317
45502 307255 301196 -5779 11579 -10284
45521 307312 301238 -5880 11605 -10270
45542 307343 301261 -5884 11598 -10286
45566 307358 301283 -5834 11566 -10283
45593 307391 301306 -5837 11549 -10271
45622 307408 301329 -5892 11507 -10263
45654 307413 301341 -5891 11483 -10263
45688 307441 301352 -5794 11535 -10283
45720 307451 301377 -5690 11545 -10324
45758 307474 301383 -5728 11554 -10326
45790 307476 301396 -5724 11552 -10325
45823 307489 301409 -5707 11545 -10326
45856 307487 301408 -5737 11529 -10306
45888 307508 301404 -5753 11530 -10316
45925 307543 301420 -5736 11544 -10340
45971 307584 301449 -5720 11536 -10328
46011 307607 301463 -5695 11548 -10327
46059 307676 301488 -5659 11558 -10348
46094 307752 301512 -5619 11533 -10378
46082 307694 301443 -5621 11565 -10374
46008 307660 301402 -5703 11565 -10323
45897 307612 301368 -5850 11557 -10312
45766 307589 301365 -5825 11610 -10344
45638 307552 301349 -5551 11686 -10367
45520 307473 301310 -5519 11695 -10354
45420 307410 301287 -5769 11510 -10313
45345 307376 301271 -5885 11375 -10309
45287 307369 301286 -5794 11410 -10348
45237 307349 301278 -5700 11472 -10374
45195 307314 301272 -5728 11493 -10361
45170 307323 301279 -5767 11522 -10327
45153 307295 301258 -5770 11552 -10310
45134 307277 301247 -5760 11543 -10334
45106 307259 301247 -5778 11532 -10315
45077 307228 301236 -5854 11517 -10336
45048 307212 301229 -5872 11489 -10359
45022 307202 301235 -5781 11528 -10335
45005 307184 301233 -5695 11572 -10357
44996 307167 301234 -5682 11510 -10382
44999 307184 301253 -5730 11464 -10368
45003 307184 301271 -5757 11507 -10329
45015 307198 301270 -5742 11567 -10314
45035 307201 301281 -5748 11583 -10314
45056 307222 301297 -5776 11570 -10315
45081 307241 301298 -5772 11569 -10317
45107 307248 301305 -5756 11577 -10316
45135 307251 301320 -5741 11559 -10306
45167 307261 301312 -5721 11539 -10325
45202 307244 301297 -5648 11513 -10345
45242 307233 301306 -5676 11539 -10319
45281 307238 301307 -5734 11544 -10317
45325 307254 301313 -5768 11527 -10318
45366 307261 301320 -5744 11520 -10319
45405 307256 301317 -5707 11561 -10337
45448 307280 301338 -5704 11575 -10354
45490 307305 301350 -5721 11538 -10377
45537 307325 301363 -5699 11512 -10410
45582 307348 301370 -5625 11485 -10401
45633 307367 301393 -5705 11480 -10386
45691 307417 301418 -5691 11487 -10390
45732 307423 301419 -5637 11568 -10383
45738 307341 301345 -5698 11561 -10331
45684 307271 301312 -5817 11540 -10341
45590 307221 301298 -5707 11564 -10388
45480 307173 301272 -5486 11606 -10398
45363 307134 301266 -5512 11630 -10410
45261 307099 301268 -5649 11531 -10403
45179 307088 301259 -5686 11456 -10372
45114 307080 301268 -5637 11465 -10350
45071 307072 301296 -5624 11502 -10350
45035 307091 301318 -5675 11520 -10356
45006 307088 301329 -5707 11515 -10353
44993 307113 301348 -5716 11499 -10374
44984 307108 301356 -5696 11499 -10417
44968 307109 301369 -5704 11502 -10405
44950 307104 301381 -5760 11467 -10395
44923 307080 301367 -5715 11449 -10422
44893 307065 301367 -5622 11490 -10418
44867 307069 301381 -5615 11544 -10412
44848 307065 301400 -5680 11527 -10412
44835 307073 301408 -5740 11480 -10386
44835 307092 301424 -5741 11488 -10367
44843 307135 301453 -5709 11506 -10375
44853 307143 301454 -5691 11502 -10382
44862 307143 301451 -5701 11495 -10375
44875 307133 301420 -5698 11512 -10366
44889 307139 301410 -5680 11521 -10379
44912 307148 301408 -5654 11510 -10386
44939 307165 301401 -5651 11515 -10343
44967 307179 301400 -5695 11526 -10302
44997 307194 301390 -5717 11539 -10314
45025 307206 301409 -5700 11561 -10351
45057 307218 301408 -5692 11577 -10359
45094 307225 301407 -5695 11576 -10348
45124 307232 301418 -5700 11573 -10332
45160 307234 301406 -5686 11574 -10312
45195 307282 301428 -5649 11572 -10319
45235 307282 301434 -5609 11563 -10349
45281 307323 301446 -5644 11543 -10354
45328 307350 301453 -5716 11540 -10325
45368 307343 301449 -5693 11604 -10303
45371 307278 301394 -5696 11643 -10281
45321 307252 301386 -5770 11580 -10242
45237 307227 301369 -5824 11599 -10257
45134 307190 301371 -5729 11662 -10296
45033 307175 301385 -5605 11675 -10285
44946 307164 301393 -5664 11621 -10272
44877 307149 301397 -5744 11441 -10319
44829 307134 301387 -5708 11507 -10307
44797 307118 301389 -5680 11592 -10319
44778 307107 301377 -5690 11614 -10337
44777 307147 301394 -5717 11580 -10339
44780 307146 301399 -5722 11568 -10352
44782 307112 301371 -5722 11564 -10335
44778 307103 301371 -5778 11535 -10351
44769 307099 301385 -5770 11509 -10409
44759 307109 301402 -5591 11539 -10403
44745 307106 301410 -5631 11542 -10400
44734 307127 301437 -5688 11502 -10408
44736 307167 301474 -5690 11524 -10421
44742 307159 301462 -5633 11590 -10418
44751 307172 301492 -5603 11598 -10421
44765 307206 301532 -5618 11520 -10442
44789 307260 301557 -5596 11472 -10424
44813 307264 301563 -5556 11498 -10419
44841 307275 301573 -5551 11522 -10458
44868 307307 301594 -5544 11489 -10464
44903 307362 301639 -5561 11479 -10432
44935 307449 301704 -5597 11502 -10414
44967 307527 301761 -5596 11472 -10377
44999 307570 301795 -5608 11475 -10353
45030 307604 301808 -5633 11507 -10375
45062 307642 301815 -5633 11505 -10395
45096 307677 301828 -5649 11492 -10406
45133 307713 301859 -5646 11494 -10403
45162 307732 301875 -5603 11504 -10410
45197 307762 301860 -5576 11500 -10451
45238 307801 301869 -5614 11464 -10448
45280 307847 301905 -5663 11443 -10422
45329 307909 301943 -5643 11478 -10419
45370 307955 301961 -5657 11543 -10388
45396 307929 301916 -5748 11518 -10352
45360 307847 301872 -5783 11522 -10398
45281 307832 301876 -5686 11556 -10457
45165 307793 301854 -5552 11560 -10488
45037 307764 301842 -5586 11532 -10479
44919 307704 301817 -5702 11420 -10458
44821 307661 301807 -5721 11355 -10438
44741 307652 301824 -5714 11357 -10412
44692 307662 301856 -5701 11396 -10406
44652 307646 301877 -5702 11447 -10405
44622 307562 301848 -5753 11452 -10445
44600 307493 301845 -5808 11451 -10505
44593 307412 301827 -5760 11431 -10551
44594 307380 301869 -5732 11401 -10501
44585 307419 301983 -5770 11402 -10508
44567 307613 302222 -5573 11479 -10638
44540 307979 302583 -5528 11515 -10645
44508 308657 303174 -5595 11466 -10694
44480 309738 304096 -5648 11395 -10758
44473 310775 305039 -5585 11432 -10917
44477 311223 305546 -5452 11561 -11144
44483 311551 306007 -5249 11712 -11257
44478 311732 306336 -4942 11719 -10974
44477 311609 306469 -4802 11591 -10372
44480 311538 306544 -4831 11281 -10073
44493 311653 306770 -5136 11337 -10194
44498 311654 306855 -4942 11403 -10548
44505 311676 306927 -4805 11760 -10614
44504 311841 307022 -5220 11696 -10572
44498 312092 307156 -5392 11660 -10636
44515 312237 307259 -4939 11717 -10507
44514 312036 307079 -4685 11573 -10691
44535 312050 307142 -4852 11418 -10796
44557 312095 307229 -4740 11289 -10705
44551 312064 307135 -4559 11405 -10814
44500 312034 306785 -4599 11579 -10923
44458 312248 306654 -4671 11582 -10872
44413 312333 306385 -4704 11629 -10787
44354 312444 306045 -4697 11769 -10707
44290 312558 305710 -4720 11786 -10640
44183 312624 305047 -4780 11782 -10726
43967 312573 303984 -4712 11879 -10928
43668 312741 302985 -4739 11808 -10839
43251 312808 301828 -4870 11585 -10534
42881 312981 301029 -4901 11451 -10589
42526 313261 300252 -4895 11337 -10663
42171 313371 299188 -4937 11268 -10602
41862 313417 298317 -4914 11325 -10657
41589 313352 297417 -4868 11389 -10718
41348 313249 296633 -4951 11360 -10607
41101 313176 295784 -5009 11376 -10590
40916 313177 295220 -4987 11428 -10712
40800 313072 294820 -4910 11481 -10697
40700 312779 294382 -4958 11361 -10694
40606 312577 294087 -5012 11261 -10708
40512 312347 293864 -4849 11463 -10672
40418 311959 293598 -4815 11663 -10690
40317 311398 293252 -4931 11555 -10663
40238 311170 293145 -4974 11372 -10607
40187 311297 293241 -5058 11475 -10581
40141 311235 293259 -5273 11740 -10805
40108 311345 293418 -5288 11729 -11060
40085 311484 293637 -5118 11560 -10950
40073 311469 293763 -5075 11534 -10816
40071 311431 293873 -5122 11449 -10725
40076 311237 293866 -5064 11515 -10682
40096 310977 293862 -5082 11501 -10734
40118 310772 293877 -5161 11434 -10714
40158 310530 293883 -5174 11438 -10652
40205 310232 293845 -5141 11516 -10606
40258 309959 293806 -5149 11531 -10559
40317 309614 293723 -5182 11486 -10542
40383 309318 293682 -5218 11491 -10554
40451 309163 293709 -5286 11526 -10599
40519 309021 293714 -5267 11553 -10565
40590 308758 293661 -5305 11559 -10473
40669 308540 293652 -5422 11522 -10428
40739 308319 293624 -5498 11532 -10434
40780 308020 293536 -5354 11586 -10465
40774 307691 293448 -5225 11668 -10465
40726 307496 293421 -5352 11657 -10451
40648 307319 293404 -5517 11545 -10445
40564 307192 293418 -5561 11479 -10438
40479 307090 293404 -5513 11510 -10444
40412 306970 293394 -5486 11562 -10455
40358 306853 293366 -5495 11562 -10433
40315 306741 293346 -5525 11542 -10398
40282 306686 293358 -5532 11546 -10402
40252 306582 293341 -5520 11561 -10393
40240 306541 293378 -5602 11552 -10362
40239 306440 293355 -5720 11501 -10350
40236 306352 293339 -5656 11514 -10354
40235 306269 293332 -5562 11562 -10359
40236 306201 293320 -5581 11555 -10370
40231 306143 293321 -5585 11521 -10381
40228 306093 293312 -5595 11534 -10373
40230 306024 293303 -5612 11561 -10358
40239 305975 293320 -5665 11556 -10330
40250 305955 293342 -5710 11572 -10314
40267 305921 293365 -5683 11597 -10322
40290 305885 293364 -5678 11601 -10327
40319 305838 293370 -5690 11560 -10334
40349 305803 293385 -5673 11553 -10338
40388 305761 293384 -5626 11563 -10349
40426 305752 293404 -5600 11565 -10355
40467 305743 293407 -5616 11589 -10350
40503 305747 293431 -5642 11593 -10336
40543 305732 293460 -5657 11599 -10317
40582 305711 293462 -5641 11610 -10305
40620 305682 293464 -5654 11599 -10293
40660 305668 293465 -5693 11598 -10280
40705 305688 293487 -5688 11631 -10292
40752 305659 293480 -5643 11657 -10328
40799 305659 293479 -5682 11544 -10307
40843 305690 293496 -5717 11564 -10306
40873 305609 293437 -5556 11650 -10323
40859 305488 293369 -5404 11729 -10304
40805 305389 293339 -5525 11684 -10295
40732 305325 293318 -5704 11541 -10311
40650 305244 293295 -5729 11506 -10321
40572 305189 293272 -5632 11581 -10342
40507 305122 293276 -5591 11614 -10357
40462 305056 293245 -5572 11535 -10409
40427 304999 293215 -5520 11547 -10438
40399 304964 293212 -5499 11563 -10414
40373 304919 293199 -5604 11553 -10388
40368 304915 293223 -5678 11542 -10387
40372 304881 293197 -5580 11558 -10356
40375 304816 293167 -5498 11601 -10372
40376 304782 293167 -5552 11572 -10389
40378 304734 293141 -5610 11527 -10394
40380 304669 293126 -5560 11539 -10420
40379 304641 293126 -5497 11553 -10440
40386 304603 293124 -5515 11570 -10424
40394 304560 293110 -5532 11586 -10404
40406 304549 293107 -5512 11579 -10389
40429 304526 293110 -5518 11589 -10375
40453 304509 293098 -5524 11587 -10366
40478 304492 293105 -5499 11594 -10360
40508 304494 293106 -5475 11588 -10358
40542 304488 293117 -5478 11575 -10376
40576 304485 293123 -5473 11577 -10421
40619 304498 293143 -5445 11546 -10457
40656 304490 293144 -5457 11551 -10442
40699 304490 293141 -5474 11588 -10422
40737 304501 293163 -5465 11585 -10430
40776 304503 293167 -5461 11569 -10440
40819 304522 293188 -5444 11554 -10434
40858 304534 293200 -5442 11545 -10424
40899 304529 293206 -5469 11548 -10417
40938 304522 293186 -5481 11544 -10412
40983 304557 293212 -5446 11553 -10435
41024 304557 293199 -5431 11549 -10475
41069 304544 293198 -5514 11506 -10434
41116 304541 293186 -5610 11513 -10395
41158 304510 293161 -5486 11563 -10430
41160 304401 293083 -5299 11651 -10431
41112 304300 293047 -5384 11661 -10409
41043 304218 293020 -5603 11539 -10412
40963 304157 292995 -5665 11481 -10410
40880 304082 292960 -5565 11518 -10414
40812 304022 292936 -5498 11557 -10433
40757 303964 292906 -5431 11549 -10475
40721 303925 292887 -5514 11506 -10434
40689 303897 292870 -5610 11513 -10395
40668 303868 292839 -5486 11563 -10430
40659 303874 292857 -5299 11651 -10431
40662 303854 292835 -5384 11661 -10409
40661 303835 292810 -5603 11539 -10412
40656 303820 292814 -5665 11481 -10410
40644 303812 292819 -5565 11518 -10414
40634 303812 292827 -5498 11557 -10433
40626 303793 292823 -5483 11497 -10505
40617 303798 292835 -5483 11480 -10500
40619 303792 292846 -5481 11513 -10471
40624 303796 292855 -5585 11528 -10494
40633 303806 292870 -5667 11470 -10500
40649 303820 292883 -5555 11496 -10446
40667 303851 292894 -5436 11581 -10420
40692 303881 292923 -5488 11571 -10418
40718 303884 292939 -5561 11526 -10453
40744 303886 292961 -5523 11516 -10487
40774 303895 292980 -5494 11538 -10459
40806 303894 292985 -5536 11557 -10405
40838 303888 292999 -5574 11548 -10387
40875 303882 293004 -5561 11557 -10389
40908 303868 293009 -5527 11567 -10404
40944 303870 293025 -5507 11551 -10402
40980 303861 293034 -5505 11546 -10397
41017 303843 293047 -5490 11544 -10394
41055 303839 293058 -5473 11543 -10393
41090 303840 293074 -5457 11507 -10479
41132 303835 293078 -5473 11513 -10480
41170 303854 293092 -5486 11524 -10454
41206 303837 293096 -5486 11545 -10444
41250 303845 293115 -5493 11560 -10443
41295 303865 293127 -5498 11577 -10446
41332 303809 293081 -5483 11573 -10462
41327 303691 293015 -5476 11565 -10459
41279 303620 292995 -5470 11564 -10420
41204 303565 292979 -5469 11537 -10421
41117 303498 292959 -5463 11503 -10473
41034 303450 292953 -5417 11549 -10471
40958 303403 292942 -5441 11595 -10412
40901 303371 292937 -5565 11560 -10391
40860 303339 292961 -5642 11548 -10460
40829 303363 292985 -5483 11590 -10504
40803 303340 292985 -5342 11668 -10450
40791 303355 293001 -5468 11644 -10420
40791 303339 293006 -5610 11522 -10418
40791 303291 292987 -5582 11480 -10446
40785 303276 293000 -5489 11497 -10499
40769 303240 292989 -5493 11512 -10504
40755 303210 292963 -5549 11514 -10474
40742 303166 292956 -5577 11509 -10453
40732 303156 292948 -5542 11510 -10475
40727 303133 292945 -5516 11516 -10452
40733 303135 292947 -5593 11512 -10458
40744 303129 292960 -5650 11475 -10485
40761 303130 292972 -5557 11501 -10456
40779 303150 292980 -5461 11556 -10460
40802 303160 292991 -5550 11458 -10452
40829 303180 293004 -5563 11489 -10400
40861 303201 293022 -5549 11528 -10386
40894 303233 293047 -5578 11535 -10396
40930 303292 293082 -5589 11539 -10396
40965 303331 293118 -5551 11557 -10418
41002 303353 293122 -5534 11574 -10439
41041 303355 293139 -5554 11558 -10429
41079 303369 293135 -5553 11537 -10426
41118 303386 293143 -5490 11493 -10467
41155 303365 293117 -5492 11507 -10429
41187 303335 293124 -5486 11557 -10396
41228 303288 293100 -5468 11594 -10399
41263 303239 293071 -5468 11580 -10412
41305 303188 293046 -5494 11544 -10406
41352 303177 293044 -5503 11538 -10399
41403 303111 293016 -5472 11552 -10403
41452 303072 292976 -5439 11560 -10415
41496 303022 292933 -5421 11506 -10459
41514 302882 292836 -5465 11480 -10453
41480 302758 292767 -5486 11495 -10445
41412 302663 292730 -5420 11551 -10463
41322 302592 292698 -5405 11585 -10479
41233 302512 292660 -5521 11559 -10432
41152 302457 292639 -5587 11555 -10439
41093 302418 292634 -5410 11615 -10472
41047 302399 292628 -5280 11688 -10430
41015 302374 292613 -5412 11639 -10427
40994 302368 292615 -5548 11519 -10460
40980 302348 292605 -5549 11499 -10442
40980 302357 292622 -5470 11561 -10400
40982 302337 292585 -5456 11603 -10382
40977 302300 292562 -5497 11586 -10387
40967 302301 292560 -5513 11566 -10393
40954 302313 292582 -5504 11562 -10419
40939 302319 292582 -5497 11580 -10403
40930 302356 292599 -5553 11622 -10427
40927 302394 292627 -5586 11584 -10468
40927 302424 292647 -5511 11540 -10436
40937 302476 292674 -5459 11571 -10405
40949 302510 292711 -5510 11572 -10374
40967 302572 292744 -5580 11556 -10377
40988 302635 292780 -5568 11574 -10384
41014 302718 292822 -5522 11599 -10387
41043 302822 292873 -5518 11585 -10381
41072 302952 292934 -5524 11544 -10388
41102 303087 292991 -5509 11530 -10425
41136 303204 293037 -5498 11527 -10457
41166 303293 293076 -5485 11502 -10491
41197 303374 293089 -5472 11498 -10509
41229 303441 293112 -5454 11505 -10502
41261 303496 293109 -5465 11503 -10494
41296 303549 293119 -5483 11497 -10489
41331 303592 293130 -5483 11483 -10487
41365 303621 293111 -5492 11477 -10492
41399 303626 293074 -5480 11467 -10497
41441 303677 293087 -5486 11454 -10485
41481 303664 293048 -5487 11452 -10495
41527 303676 293023 -5419 11447 -10534
41565 303671 292987 -5384 11450 -10560
41590 303643 292929 -5373 11469 -10558
41565 303581 292905 -5406 11495 -10520
41506 303648 292951 -5411 11536 -10524
41414 303692 292981 -5424 11532 -10520
41302 303750 292994 -5514 11466 -10455
41190 303735 292980 -5593 11455 -10482
41090 303748 292977 -5489 11508 -10552
41011 303734 292943 -5392 11541 -10550
40956 303565 292800 -5595 11442 -10541
40933 303477 292692 -5653 11377 -10636
40926 303397 292629 -5621 11357 -10571
40927 303303 292531 -5596 11298 -10346
40932 303216 292442 -5673 11289 -10291
40923 303125 292332 -5856 11356 -10338
40909 302970 292148 -5899 11411 -10539
40898 302895 292063 -5812 11435 -10553
40897 302913 292051 -5763 11407 -10511
40904 302971 292073 -5750 11279 -10624
40908 303056 292110 -5763 11193 -10654
40920 303139 292153 -5798 11170 -10568
40937 303259 292255 -5832 11177 -10542
40956 303355 292333 -5870 11222 -10550
40986 303430 292425 -5907 11294 -10484
41016 303461 292465 -5894 11335 -10557
41047 303429 292460 -5871 11290 -10657
41083 303466 292521 -5871 11272 -10620
41122 303490 292556 -5861 11294 -10622
41166 303498 292562 -5834 11304 -10676
41208 303475 292572 -5830 11288 -10685
41255 303494 292600 -5823 11295 -10678
41304 303491 292621 -5760 11313 -10655
41356 303489 292645 -5681 11308 -10649
41407 303484 292660 -5653 11328 -10658
41458 303462 292646 -5686 11312 -10638
41505 303448 292637 -5691 11298 -10579
41557 303438 292636 -5631 11353 -10552
41606 303436 292631 -5560 11396 -10568
41658 303462 292639 -5540 11379 -10572
41713 303454 292622 -5579 11370 -10554
41769 303459 292610 -5558 11368 -10533
41816 303451 292573 -5514 11407 -10501
41832 303360 292513 -5481 11437 -10493
41797 303269 292470 -5479 11503 -10490
41723 303208 292439 -5498 11521 -10448
41630 303111 292400 -5582 11509 -10421
41533 303054 292385 -5582 11511 -10467
41447 303019 292389 -5267 11530 -10506
41375 303000 292389 -5375 11533 -10500
41329 302986 292395 -5539 11463 -10447
41295 302962 292370 -5609 11425 -10415
41277 302934 292357 -5530 11448 -10446
41265 302920 292362 -5449 11459 -10494
41270 302969 292405 -5412 11434 -10546
41281 302997 292420 -5374 11429 -10581
41283 302988 292404 -5336 11471 -10620
41278 302978 292403 -5337 11460 -10595
41267 302956 292413 -5454 11395 -10618
41262 302984 292460 -5557 11355 -10713
41255 303013 292484 -5453 11399 -10752
41251 303022 292504 -5263 11466 -10740
41253 303037 292499 -5257 11426 -10652
41262 303078 292519 -5413 11340 -10644
41273 303135 292513 -5469 11282 -10688
41292 303162 292520 -5444 11287 -10739
41317 303214 292534 -5437 11277 -10789
41346 303296 292593 -5451 11230 -10798
41376 303378 292630 -5459 11213 -10843
41414 303420 292659 -5447 11241 -10855
41450 303470 292699 -5475 11251 -10806
41489 303519 292721 -5528 11210 -10798
41528 303572 292760 -5552 11201 -10830
41574 303645 292795 -5540 11220 -10848
41612 303720 292842 -5561 11190 -10817
41657 303777 292884 -5604 11143 -10742
41696 303821 292898 -5594 11155 -10686
41737 303855 292909 -5554 11192 -10710
41775 303913 292939 -5525 11178 -10769
41819 304012 292984 -5515 11130 -10760
41862 304050 292999 -5515 11163 -10732
41909 304097 293035 -5557 11213 -10740
41957 304134 293035 -5652 11202 -10736
41994 304141 293039 -5687 11180 -10740
41978 304129 293039 -5641 11159 -10756
41913 304085 293009 -5667 11121 -10723
41815 304001 292979 -5773 11133 -10671
41711 303949 292965 -5761 11162 -10720
41617 303954 292986 -5534 11133 -10898
41537 303983 293012 -5715 11136 -10921
41478 303993 293036 -5885 11072 -10882
41435 303991 293022 -5917 11053 -10800
41412 304011 293043 -5882 11075 -10711
41397 303992 293019 -5898 11074 -10675
41391 303992 293027 -5931 11074 -10687
41399 303984 293016 -5949 11073 -10713
41406 303955 292995 -5952 11069 -10799
41403 303938 292989 -5977 11159 -10846
41393 303906 292967 -6039 11167 -10797
41380 303905 292965 -6022 11177 -10688
41368 303902 292971 -5991 11199 -10613
41357 303864 292939 -5996 11180 -10536
41349 303846 292917 -6038 11125 -10493
41352 303832 292907 -6063 11085 -10501
41361 303845 292904 -6058 11125 -10523
41375 303850 292897 -6034 11159 -10548
41395 303841 292900 -5934 11158 -10540
41423 303842 292897 -5948 11131 -10523
41448 303834 292867 -5998 11124 -10495
41480 303831 292849 -6034 11130 -10473
41514 303821 292843 -6056 11166 -10477
41550 303822 292831 -6064 11195 -10470
41587 303840 292827 -6056 11211 -10468
41629 303848 292829 -6047 11234 -10466
41670 303879 292841 -6055 11239 -10458
41712 303906 292859 -6065 11222 -10459
41759 303921 292868 -6065 11216 -10475
41812 303944 292849 -6060 11223 -10466
41859 303923 292821 -6060 11256 -10429
41898 303881 292780 -6091 11233 -10390
41896 303816 292724 -6114 11225 -10346
41845 303766 292699 -6090 11313 -10352
41763 303700 292669 -6002 11340 -10368
41669 303614 292634 -5980 11320 -10353
41586 303582 292616 -6085 11251 -10330
41517 303555 292600 -6160 11199 -10317
41467 303552 292601 -6142 11220 -10316
41437 303546 292600 -6098 11241 -10318
41416 303551 292608 -6100 11245 -10306
41407 303549 292604 -6121 11240 -10305
41411 303563 292613 -6125 11238 -10317
41427 303550 292598 -6123 11242 -10315
41438 303527 292590 -6143 11276 -10311
41441 303527 292589 -6170 11255 -10319
41439 303526 292588 -6160 11243 -10330
41427 303502 292573 -6132 11286 -10314
41412 303483 292562 -6117 11245 -10371
41409 303478 292570 -6120 11241 -10346
41408 303469 292568 -6108 11264 -10322
41416 303492 292580 -6103 11279 -10314
41430 303510 292592 -6111 11269 -10324
41451 303502 292576 -6102 11269 -10350
41475 303520 292576 -6083 11279 -10374
41495 303529 292583 -6073 11289 -10382
41526 303551 292592 -6063 11306 -10378
41558 303582 292602 -6033 11298 -10404
41591 303617 292603 -6046 11275 -10384
41629 303620 292616 -6060 11256 -10366
41666 303651 292616 -6060 11254 -10351
41706 303687 292641 -6060 11280 -10332
41750 303701 292642 -6046 11324 -10346
41798 303759 292662 -6046 11362 -10346
41848 303772 292661 -6081 11318 -10301
41877 303717 292620 -6104 11336 -10320
41850 303656 292589 -5864 11402 -10335
41782 303633 292586 -5934 11372 -10320
41685 303580 292581 -6060 11296 -10323
41584 303564 292589 -6097 11293 -10332
41488 303554 292615 -6069 11325 -10339
41412 303583 292657 -6058 11318 -10340
41356 303626 292712 -6055 11294 -10346
41312 303673 292757 -6059 11271 -10348
41277 303750 292831 -6052 11267 -10388
41252 303837 292925 -5985 11276 -10439
41240 303953 293026 -5993 11281 -10496
41243 304046 293107 -6045 11233 -10488
41236 304096 293173 -6018 11211 -10435
41225 304132 293243 -6001 11246 -10429
41208 304175 293299 -6026 11236 -10443
41192 304207 293337 -6046 11190 -10492
41173 304203 293355 -6035 11147 -10508
41163 304210 293365 -6019 11153 -10517
41158 304243 293384 -6022 11175 -10532
41160 304206 293345 -6000 11186 -10600
41169 304121 293219 -5986 11178 -10688
41192 304115 293160 -6050 11171 -10623
41221 304215 293176 -6115 11174 -10567
41251 304378 293253 -6123 11198 -10612
41281 304493 293318 -6117 11220 -10556
41297 304515 293335 -6111 11204 -10412
41313 304507 293349 -6104 11180 -10277
41329 304480 293358 -6084 11195 -10192
41349 304453 293358 -6076 11201 -10177
41045 304009 293192 -6058 11249 -10382
40980 303965 293169 -6081 11270 -10381
40930 303908 293137 -6087 11282 -10396
40896 303838 293092 -6071 11269 -10426
40868 303747 293045 -6086 11283 -10446
40856 303721 293019 -6132 11264 -10442
40859 303629 292941 -6118 11230 -10415
40861 303545 292905 -6086 11262 -10372
40863 303475 292873 -6092 11272 -10361
40859 303445 292842 -6109 11244 -10395
40852 303398 292831 -6087 11230 -10415
40850 303360 292817 -6056 11257 -10412
40848 303331 292790 -6069 11269 -10401
40856 303308 292780 -6091 11260 -10376
40859 303280 292773 -6101 11261 -10351
40876 303276 292769 -6097 11259 -10344
40892 303271 292767 -6083 11276 -10349
40916 303263 292753 -6072 11277 -10355
40943 303253 292760 -6067 11272 -10351
40979 303222 292739 -6056 11276 -10375
41013 303218 292739 -6041 11277 -10408
41054 303220 292739 -6042 11288 -10403
41093 303224 292753 -6055 11280 -10374
41139 303234 292755 -6054 11274 -10352
41183 303238 292759 -6048 11280 -10335
41224 303228 292753 -6056 11285 -10331
41269 303247 292760 -6055 11289 -10344
41314 303260 292753 -6060 11334 -10342
41362 303235 292737 -6082 11315 -10308
41410 303266 292751 -6118 11291 -10335
41450 303240 292704 -6041 11277 -10408
41455 303115 292633 -6042 11288 -10403
41409 303020 292584 -6055 11280 -10374
41324 302956 292562 -6054 11274 -10352
41223 302890 292537 -6048 11280 -10335
41123 302831 292527 -6056 11285 -10331
41038 302779 292508 -6055 11289 -10344
40967 302742 292485 -6060 11334 -10342
40919 302709 292462 -6082 11315 -10308
40882 302691 292467 -6118 11291 -10335
40858 302680 292460 -5847 11377 -10387
40842 302681 292460 -5887 11392 -10342
40843 302654 292450 -6023 11299 -10316
40841 302625 292423 -6084 11247 -10311
40837 302596 292418 -6067 11283 -10311
40825 302574 292414 -6060 11332 -10298
40812 302561 292405 -6080 11325 -10292
40797 302546 292402 -6081 11322 -10308
40785 302554 292405 -6038 11333 -10349
40778 302535 292399 -5965 11319 -10356
40780 302529 292400 -5995 11329 -10384
40786 302541 292397 -6077 11294 -10382
40799 302560 292403 -6063 11287 -10333
40819 302562 292397 -6026 11350 -10343
40839 302564 292408 -6035 11350 -10354
40866 302588 292415 -6061 11308 -10363
40893 302610 292418 -6048 11295 -10381
40921 302623 292426 -6022 11313 -10406
40958 302632 292425 -6031 11304 -10416
40994 302636 292427 -6013 11286 -10444
41029 302649 292438 -6016 11284 -10425
41064 302666 292438 -6033 11276 -10394
41108 302703 292450 -6048 11271 -10372
41148 302726 292464 -6060 11258 -10368
41188 302746 292479 -6065 11244 -10360
41226 302791 292493 -6065 11246 -10361
41268 302840 292508 -6055 11256 -10395
41313 302846 292515 -6040 11254 -10414
41362 302898 292543 -6022 11242 -10426
41404 302881 292503 -5992 11245 -10452
41405 302808 292456 -5992 11256 -10462
41357 302772 292442 -6024 11259 -10466
41270 302753 292452 -6042 11253 -10457
41168 302713 292427 -6051 11240 -10431
41067 302678 292415 -6025 11251 -10427
40984 302680 292426 -6019 11264 -10421
40923 302705 292448 -6073 11238 -10409
40879 302728 292452 -6071 11231 -10466
40852 302785 292487 -5884 11279 -10511
40833 302788 292492 -5764 11321 -10499
40827 302843 292539 -5895 11273 -10480
40826 302864 292530 -6029 11194 -10463
40826 302880 292550 -6040 11182 -10460
40817 302916 292581 -6000 11211 -10442
40803 302945 292608 -6000 11236 -10438
40784 302977 292642 -6024 11218 -10455
40772 303013 292671 -6032 11197 -10476
40756 303079 292714 -5996 11211 -10542
40752 303158 292766 -5996 11214 -10536
40752 303238 292819 -6054 11176 -10533
40758 303376 292908 -6054 11161 -10575
40774 303584 293054 -6014 11198 -10539
40785 303862 293216 -5991 11210 -10521
40800 304190 293410 -6014 11166 -10537
40815 304489 293545 -6045 11139 -10552
40826 304715 293665 -6019 11151 -10531
40835 304880 293723 -5992 11157 -10530
40842 304994 293773 -5985 11167 -10558
40854 305080 293801 -5983 11171 -10577
40868 305138 293827 -5943 11150 -10633
40884 305102 293770 -5910 11133 -10710
40918 305115 293758 -5928 11106 -10729
40962 305106 293740 -5944 11098 -10736
41000 305102 293727 -5946 11122 -10667
41042 305245 293811 -5967 11129 -10527
41082 305311 293858 -5949 11110 -10509
41129 305451 293976 -5880 11075 -10575
41184 305607 294035 -5862 11067 -10558
41243 305563 293922 -5887 11006 -10512
41296 305462 293842 -5858 11241 -10711
41316 305391 293838 -5839 11290 -10833
41286 305409 293946 -5882 11179 -10941
41221 305459 294086 -5933 11078 -10899
41133 305449 294143 -5913 11085 -10656
41033 305295 294107 -5885 11104 -10513
40936 305148 294099 -5931 11145 -10668
40852 305216 294209 -6035 11239 -11022
40781 305281 294271 -6075 11104 -11036
40728 305252 294222 -5936 11113 -10568
40694 305231 294194 -5961 11206 -10533
40691 305166 294125 -5985 11063 -10558
40709 304976 293956 -5990 10854 -10438
40729 304666 293738 -5940 10784 -10430
40756 304520 293659 -5883 10827 -10600
40760 304398 293560 -5905 10940 -10710
40751 304254 293438 -5971 11002 -10691
40736 304154 293364 -6012 11035 -10640
40718 304103 293302 -6089 11179 -10711
40715 304089 293283 -6138 11232 -10831
40721 304065 293267 -6137 11172 -10818
40735 304098 293289 -6161 11162 -10735
40763 304152 293328 -6125 11085 -10582
40796 304272 293403 -6013 11007 -10413
40833 304407 293490 -5991 11055 -10321
40873 304508 293555 -6059 11074 -10272
40915 304575 293560 -6086 11108 -10242
40956 304418 293398 -6082 11187 -10301
40993 304366 293310 -6091 11182 -10408
41020 304275 293187 -6168 11189 -10507
41041 304146 293042 -6209 11225 -10578
41071 304057 292932 -6139 11257 -10614
41102 304038 292876 -6065 11314 -10697
41138 304023 292829 -6052 11318 -10750
41173 304058 292805 -6095 11193 -10774
41218 304106 292785 -6119 11112 -10802
41267 304171 292824 -6072 11071 -10616
41322 304153 292814 -6008 11045 -10420
41380 304110 292813 -5977 11129 -10328
41439 304044 292777 -6130 11127 -10273
41471 303941 292748 -6122 11062 -10305
41445 303811 292736 -6132 11076 -10339
41379 303725 292741 -6194 11168 -10415
41286 303604 292713 -6212 11269 -10492
41189 303506 292703 -6158 11245 -10437
41107 303414 292674 -6122 11105 -10410
41047 303344 292664 -6116 11082 -10506
41008 303312 292669 -6020 11179 -10576
40983 303285 292682 -5987 11184 -10503
40965 303275 292690 -6065 11101 -10501
40958 303235 292688 -6064 11054 -10533
40965 303243 292698 -6014 11100 -10565
40984 303201 292684 -5973 11155 -10591
40993 303188 292680 -5963 11152 -10617
41001 303173 292685 -5991 11118 -10663
41000 303140 292685 -5980 11098 -10739
41002 303114 292681 -5931 11108 -10720
41002 303110 292702 -5896 11113 -10774
41007 303100 292704 -5865 11108 -10725
41019 303079 292694 -5861 11142 -10714
41035 303080 292704 -5888 11134 -10740
41056 303100 292714 -5915 11099 -10753
41082 303118 292737 -5903 11091 -10772
41111 303127 292750 -5861 11113 -10780
41143 303131 292758 -5812 11137 -10789
41181 303173 292775 -5770 11143 -10795
41223 303201 292800 -5740 11137 -10783
41266 303225 292815 -5713 11126 -10796
41310 303264 292832 -5729 11116 -10788
41361 303282 292838 -5745 11133 -10763
41407 303288 292846 -5732 11150 -10780
41455 303307 292860 -5725 11134 -10802
41503 303328 292860 -5732 11110 -10796
41549 303355 292871 -5733 11103 -10807
41597 303378 292872 -5722 11108 -10826
41646 303406 292890 -5693 11097 -10842
41695 303445 292912 -5660 11098 -10873
41745 303454 292906 -5622 11104 -10882
41801 303505 292948 -5618 11095 -10888
41853 303566 292957 -5660 11109 -10924
41878 303542 292938 -5704 11125 -10931
41855 303530 292959 -5731 11091 -10922
41796 303596 293013 -5704 11090 -10923
41716 303683 293108 -5706 11067 -10885
41637 303847 293227 -5807 11020 -10920
41562 304024 293330 -5793 10984 -10999
41508 304216 293459 -5552 10996 -11029
41470 304406 293588 -5552 11040 -11062
41444 304588 293707 -5707 10948 -11062
41425 304741 293797 -5759 10942 -11101
41403 304823 293855 -5723 10980 -11119
