2025-07-21 16:14:13    绿光---红外光---红光---X轴---Y轴---Z轴
56979 285454 331995 288 16167 -125
57012 285499 331997 255 16168 -158
57047 285528 332014 246 16166 -166
57083 285571 332028 246 16157 -180
57125 285612 332042 236 16153 -179
57172 285656 332070 240 16164 -170
57216 285705 332093 252 16166 -198
57262 285751 332094 261 16143 -219
57312 285802 332113 262 16120 -222
57358 285861 332151 258 16133 -233
57412 285905 332160 263 16171 -245
57458 285949 332196 271 16179 -255
57504 285986 332191 281 16163 -250
57543 286028 332200 279 16149 -252
57594 286065 332223 267 16141 -253
57641 286120 332233 262 16128 -253
57689 286172 332253 261 16112 -256
57747 286224 332276 249 16105 -260
57808 286243 332299 229 16109 -267
57824 286154 332280 218 16125 -270
57733 285981 332227 213 16133 -297
57580 285789 332161 199 16123 -331
57413 285639 332094 179 16122 -335
57270 285529 332042 170 16138 -342
57175 285446 332011 176 16138 -379
57126 285408 331984 186 16127 -372
57110 285422 331987 183 16133 -330
57101 285410 331963 172 16142 -321
57099 285416 331940 156 16131 -345
57105 285426 331935 143 16116 -352
57130 285468 331956 138 16157 -345
57155 285479 331947 132 16188 -357
57165 285470 331923 124 16158 -367
57157 285437 331926 114 16133 -362
57137 285410 331899 103 16123 -352
57111 285383 331879 113 16115 -354
57091 285359 331873 122 16137 -325
57084 285363 331855 106 16166 -307
57089 285368 331854 86 16155 -339
57111 285380 331859 69 16147 -347
57134 285411 331857 24 16181 -391
57160 285436 331875 37 16153 -355
57197 285486 331887 55 16124 -326
57229 285514 331905 70 16109 -323
57266 285554 331911 66 16098 -320
57309 285586 331927 54 16096 -344
57342 285616 331919 38 16105 -358
57360 285633 331910 50 16115 -354
57367 285651 331869 73 16116 -355
57382 285674 331849 73 16132 -364
57399 285694 331827 76 16153 -369
57429 285722 331825 85 16156 -365
57459 285748 331813 78 16146 -366
57469 285762 331786 68 16137 -358
57489 285782 331775 65 16127 -360
57516 285822 331761 60 16123 -386
57566 285857 331772 48 16125 -412
57631 285881 331801 42 16125 -413
57646 285797 331781 37 16124 -403
57554 285626 331704 20 16144 -422
57415 285443 331626 -9 16173 -457
57275 285305 331573 -6 16162 -453
57155 285184 331526 15 16127 -434
57053 285105 331461 17 16121 -424
56991 285060 331412 22 16126 -403
56967 285049 331394 26 16132 -369
56959 285046 331376 20 16125 -372
56954 285053 331354 8 16103 -408
56963 285082 331354 1 16108 -402
57003 285111 331377 2 16144 -391
57043 285134 331388 -19 16181 -415
57049 285134 331375 -25 16172 -420
57049 285108 331345 -13 16142 -400
57050 285081 331353 -12 16125 -386
57058 285070 331349 -4 16114 -351
57039 285058 331340 -3 16108 -328
57030 285051 331326 -22 16111 -356
57038 285049 331331 -36 16128 -384
57058 285058 331318 -25 16136 -366
57066 285065 331300 -16 16131 -348
57092 285075 331284 -34 16152 -363
57128 285095 331294 -48 16158 -362
57169 285130 331304 -30 16122 -359
57192 285144 331277 -23 16104 -352
57226 285163 331280 -20 16108 -346
57264 285211 331283 -18 16126 -340
57298 285229 331269 -51 16188 -353
57327 285256 331267 -93 16235 -390
57366 285288 331262 -98 16213 -401
57404 285323 331269 -61 16164 -363
57442 285367 331285 -30 16143 -310
57494 285418 331335 -9 16127 -268
57557 285474 331371 25 16093 -220
57594 285507 331378 65 16073 -175
57631 285530 331368 91 16062 -158
57666 285562 331338 89 16070 -152
57709 285591 331345 77 16089 -143
57757 285601 331345 75 16092 -171
57782 285511 331302 79 16095 -203
57726 285329 331242 66 16108 -201
57609 285132 331186 -1 16164 -232
57466 284961 331099 10 16141 -238
57343 284818 331004 21 16117 -251
57247 284685 330915 26 16115 -274
57205 284581 330844 29 16123 -254
57189 284507 330777 39 16141 -213
57188 284460 330715 32 16143 -226
57198 284414 330681 16 16113 -262
57224 284407 330658 17 16098 -242
57257 284421 330654 -9 16193 -221
57279 284412 330628 -9 16183 -226
57282 284377 330574 -7 16156 -208
57276 284345 330546 -20 16129 -189
57261 284301 330511 -27 16123 -166
57225 284255 330473 -33 16118 -164
57205 284216 330438 -61 16114 -208
57189 284181 330397 -71 16122 -237
57168 284143 330354 -64 16131 -198
57170 284134 330319 -55 16133 -167
57187 284127 330291 -45 16130 -171
57217 284136 330289 -40 16125 -163
57235 284139 330271 -33 16118 -144
57255 284164 330255 -34 16113 -127
57289 284181 330273 -29 16100 -141
57334 284205 330272 -14 16106 -149
57365 284219 330260 -18 16130 -123
57387 284228 330244 -37 16132 -127
57420 284249 330234 -48 16117 -160
57463 284279 330264 -56 16117 -178
57516 284308 330290 -66 16146 -184
57564 284338 330303 -54 16155 -182
57590 284352 330288 -35 16129 -171
57611 284377 330267 -25 16111 -160
57639 284388 330259 -22 16105 -153
57666 284411 330253 -19 16104 -156
57681 284438 330232 -24 16112 -166
57716 284469 330241 -42 16135 -164
57761 284487 330250 -43 16139 -161
57796 284445 330226 -43 16125 -153
57752 284272 330170 -69 16143 -156
57634 284084 330107 -72 16145 -190
57478 283894 330054 -57 16116 -203
57316 283756 329983 -50 16110 -191
57166 283650 329907 -37 16117 -176
57070 283588 329871 -24 16121 -151
57015 283556 329855 -28 16109 -136
56994 283561 329858 -47 16098 -136
56970 283556 329834 -51 16086 -144
56955 283558 329816 -35 16089 -129
56958 283565 329803 -61 16193 -162
56987 283573 329808 -60 16173 -177
57000 283565 329805 -71 16145 -151
56991 283552 329801 -85 16122 -119
56957 283518 329772 -82 16112 -103
56929 283483 329751 -75 16127 -100
56901 283448 329735 -91 16133 -122
56890 283427 329721 -102 16112 -151
56896 283425 329727 -103 16104 -152
56905 283450 329738 -139 16166 -164
56911 283474 329733 -112 16161 -155
56919 283482 329737 -72 16142 -154
56934 283514 329727 -34 16116 -146
56956 283540 329734 -15 16100 -127
56984 283566 329751 -11 16102 -117
57024 283609 329762 -21 16116 -123
57066 283638 329788 -19 16131 -121
57094 283677 329795 0 16136 -124
57118 283699 329784 15 16126 -130
57140 283724 329768 0 16160 -126
57174 283740 329780 2 16140 -110
57216 283772 329784 0 16130 -99
57258 283804 329805 14 16118 -103
57295 283833 329824 23 16111 -115
57325 283873 329831 4 16126 -118
57366 283913 329852 -11 16136 -110
57408 283957 329882 -17 16125 -98
57447 284008 329887 -37 16120 -97
57495 284054 329919 -63 16161 -148
57546 284079 329926 -39 16161 -144
57560 284003 329904 -14 16141 -128
57478 283846 329847 -15 16121 -121
57308 283643 329741 -14 16115 -105
57130 283462 329657 9 16132 -61
56967 283333 329592 18 16138 -35
56850 283250 329563 5 16118 -68
56779 283218 329556 2 16111 -97
56743 283199 329546 2 16157 -73
56725 283207 329552 -11 16197 -61
56722 283229 329571 -12 16174 -90
56726 283246 329584 -14 16137 -102
56749 283291 329610 -28 16121 -92
56787 283321 329627 -30 16115 -90
56794 283324 329631 -42 16123 -91
56783 283302 329616 -71 16145 -99
56759 283283 329620 -90 16145 -125
56731 283262 329602 -99 16135 -136
56702 283236 329591 -107 16150 -129
56669 283227 329564 -111 16177 -134
56654 283240 329552 -94 16172 -118
56663 283254 329567 -58 16149 -93
56687 283288 329586 -37 16127 -85
56721 283312 329600 -34 16109 -80
56752 283347 329614 -30 16116 -77
56784 283393 329629 -23 16123 -76
56822 283426 329647 -7 16127 -70
56846 283465 329646 12 16122 -68
56862 283478 329620 20 16114 -65
56884 283493 329617 12 16139 -63
56921 283520 329622 24 16157 -76
56960 283553 329638 51 16137 -75
57000 283605 329653 68 16124 -58
57043 283644 329679 87 16127 -54
57084 283689 329718 91 16123 -62
57122 283729 329738 69 16138 -73
57154 283765 329744 52 16147 -83
57168 283799 329729 51 16132 -83
57188 283814 329718 58 16130 -88
57224 283851 329719 38 16141 -104
57265 283895 329719 45 16135 -135
57313 283903 329727 97 16133 -137
57322 283833 329704 155 16138 -96
57226 283660 329645 186 16147 -52
57070 283477 329566 198 16153 4
56898 283326 329503 210 16141 51
56754 283215 329450 240 16108 103
56667 283162 329446 258 16098 167
56622 283147 329458 154 16160 213
56595 283144 329439 77 16138 155
56572 283146 329424 15 16118 76
56567 283170 329427 -16 16106 20
56586 283201 329444 -42 16092 -20
56619 283248 329453 -74 16092 -63
56652 283263 329474 -83 16097 -88
56652 283246 329458 -74 16106 -79
56628 283220 329434 -58 16112 -73
56606 283186 329424 -64 16185 -103
56584 283174 329414 -37 16177 -98
56574 283153 329414 -22 16158 -96
56573 283160 329421 -44 16144 -137
56562 283154 329393 -75 16127 -179
56572 283179 329385 -94 16126 -167
56597 283193 329392 -93 16128 -138
56626 283229 329404 -70 16112 -119
56645 283259 329405 -61 16100 -112
56672 283297 329404 -68 16107 -115
56699 283326 329415 -68 16131 -127
56727 283364 329410 -51 16145 -138
56764 283409 329438 -10 16132 -135
56802 283436 329432 17 16119 -125
56833 283470 329434 34 16122 -134
56870 283514 329443 62 16144 -131
56897 283537 329436 90 16147 -103
56930 283557 329432 123 16120 -85
56965 283582 329449 137 16116 -77
56999 283621 329453 105 16126 -86
57034 283648 329443 75 16146 -99
57071 283673 329442 84 16146 -109
57102 283717 329439 80 16118 -108
57146 283763 329448 51 16114 -108
57198 283787 329448 26 16107 -132
57238 283771 329432 -20 16103 -160
57206 283669 329412 -45 16131 -145
57092 283491 329353 -34 16135 -91
56934 283310 329255 -27 16111 -80
56758 283053 329021 -53 16096 -137
56621 282926 328926 -78 16151 -182
56567 282942 328994 -61 16144 -187
56560 282975 329030 -83 16153 -216
56566 283019 329049 -72 16154 -221
56577 283062 329076 -65 16145 -205
56487 283600 329509 -83 16141 -205
56436 283939 329764 -89 16128 -208
56544 283787 329628 -89 16120 -196
56604 283849 329708 -3 16099 -269
56603 284077 329921 -43 16165 -278
56573 284415 330212 -166 16253 -176
56577 284609 330406 -116 16212 -228
56599 284702 330517 -56 16159 -270
56631 284828 330675 -50 16128 -256
56646 285174 331012 -69 16113 -258
56593 285926 331669 -79 16115 -258
56463 286999 332605 -73 16115 -280
56259 288451 333799 -44 16106 -285
56020 290050 335075 -2 16097 -322
55723 291832 336399 -44 16132 -430
55294 293845 337797 -44 16128 -439
54725 295944 339132 -19 16127 -441
53959 298124 340356 44 16113 -479
53187 300092 341355 93 16102 -536
52260 302079 342081 100 16117 -577
50805 304034 342091 51 16125 -591
48643 306127 341389 24 16112 -612
46721 307636 340338 31 16106 -640
45256 308858 339541 30 16113 -743
44208 309774 338993 10 16142 -770
43151 310575 338321 -6 16146 -711
42032 311282 337457 -34 16133 -698
41017 312075 336694 -59 16115 -738
40329 313028 336305 -44 16096 -824
39935 313869 336148 -39 16112 -844
39609 314751 336068 -56 16120 -853
39426 315562 336054 -81 16106 -879
39482 316286 336141 -82 16106 -903
39599 316906 336266 -83 16112 -900
39647 317385 336330 -111 16148 -879
39594 317823 336394 -119 16159 -929
39610 318090 336506 -101 16122 -986
39697 318289 336614 -78 16115 -991
39856 318524 336751 -74 16122 -986
40071 318765 336927 -108 16136 -1018
40315 318903 337074 -135 16147 -1070
40555 318949 337178 -141 16143 -1060
40749 319004 337251 -132 16122 -1014
40959 319026 337316 -122 16110 -989
41170 319037 337367 -159 16129 -1019
41302 319070 337359 -184 16138 -1071
41346 319160 337360 -171 16133 -1059
41433 319185 337395 -162 16136 -1038
41565 319131 337433 -145 16125 -1076
41653 319120 337441 -131 16124 -1064
41686 319154 337437 -127 16137 -1014
41762 319177 337447 -140 16132 -993
41909 319160 337488 -152 16125 -1011
42068 319119 337509 -142 16116 -1035
42125 319150 337498 -184 16169 -997
42165 319210 337502 -140 16140 -1000
42257 319258 337527 -124 16125 -1021
42471 319190 337572 -143 16117 -1012
42764 319008 337631 -138 16129 -989
43155 318758 337766 -111 16155 -951
43648 318563 338127 -94 16148 -939
44357 318343 338703 -129 16124 -941
45440 318243 340073 -167 16119 -948
47010 318278 342068 -179 16131 -962
49110 318319 344771 -178 16147 -923
51440 319394 348407 -142 16138 -871
53718 319937 351456 -118 16121 -862
55844 319531 353185 -129 16109 -914
58060 318009 354149 -156 16114 -953
59893 314932 353536 -199 16142 -943
61401 300226 343299 -175 16157 -187
61187 299802 342932 -117 16136 -261
61010 299433 342609 -120 16128 -299
60870 299098 342283 -129 16147 -303
60765 298773 341994 -122 16151 -260
60673 298461 341707 -108 16127 -219
60588 298196 341450 -122 16130 -242
60525 297966 341217 -147 16142 -289
60470 297720 340992 -150 16159 -278
60401 297475 340767 -132 16162 -246
60322 297210 340579 -100 16140 -235
60227 296962 340374 -75 16125 -225
60129 296716 340173 -75 16139 -233
60045 296493 339986 -93 16165 -260
59969 296285 339810 -75 16152 -237
59904 296120 339656 -24 16118 -185
59861 295959 339518 -17 16104 -172
59837 295790 339382 -25 16105 -174
59828 295635 339246 -28 16105 -194
59838 295501 339164 -45 16125 -229
59863 295373 339093 -42 16152 -233
59895 295255 339015 -12 16146 -215
59907 295157 338928 15 16128 -182
59912 295068 338841 13 16139 -199
59916 294977 338760 42 16121 -180
59917 294889 338674 52 16116 -148
59890 294788 338539 27 16116 -142
59868 294690 338431 5 16130 -145
59867 294604 338342 4 16135 -108
59874 294507 338270 8 16114 -62
59891 294443 338224 -28 16110 -84
59906 294368 338177 -106 16129 -151
59907 294294 338096 -117 16172 -186
59906 294208 338032 -31 16143 -131
59912 294157 337956 14 16118 -137
59923 294123 337904 23 16112 -148
59940 294084 337859 26 16099 -158
59964 294014 337809 36 16112 -166
59960 293842 337712 49 16141 -143
59848 293579 337571 66 16152 -130
59662 293284 337422 87 16156 -130
59441 292998 337245 106 16151 -131
59223 292758 337087 107 16160 -125
59048 292549 336936 107 16141 -132
58925 292390 336844 102 16113 -163
58840 292281 336761 97 16099 -160
58779 292202 336698 81 16109 -127
58736 292109 336616 53 16114 -126
58693 292050 336554 17 16120 -126
58668 292014 336488 -25 16124 -120
58640 291936 336435 -50 16120 -102
58601 291843 336342 -60 16146 -70
58547 291737 336257 -42 16160 -60
58476 291621 336166 -9 16143 -79
58402 291511 336098 5 16123 -111
58335 291404 336017 20 16115 -112
58270 291317 335940 51 16125 -94
58222 291235 335864 89 16130 -84
58184 291163 335794 118 16117 -71
58143 291103 335699 135 16113 -54
58101 291043 335591 137 16133 -52
58082 290978 335509 128 16156 -72
58070 290931 335453 120 16162 -85
58064 290900 335413 123 16159 -80
58068 290876 335379 135 16142 -65
58079 290862 335356 149 16117 -56
58096 290844 335335 151 16118 -40
58104 290821 335302 134 16128 -24
58114 290807 335260 119 16127 -33
58119 290784 335204 118 16125 -58
58111 290742 335151 106 16124 -72
58115 290723 335086 120 16161 -75
58133 290709 335071 145 16142 -82
58160 290701 335085 156 16130 -80
58201 290719 335096 168 16128 -80
58236 290715 335100 174 16141 -80
58254 290721 335076 178 16150 -88
58270 290704 335052 198 16144 -63
58298 290713 335041 216 16132 -14
58342 290721 335025 201 16112 -13
58383 290681 335008 106 16124 -72
58363 290509 334958 120 16161 -75
58248 290268 334897 145 16142 -82
58044 290001 334800 156 16130 -80
57813 289757 334692 168 16128 -80
57600 289553 334595 174 16141 -80
57427 289408 334512 178 16150 -88
57308 289300 334450 198 16144 -63
57229 289225 334414 216 16132 -14
57165 289165 334365 201 16112 -13
57114 289107 334316 135 16153 -87
57074 289057 334273 144 16140 -77
57052 289046 334246 154 16143 -92
57050 289028 334225 165 16148 -120
57025 288953 334183 161 16134 -134
56972 288868 334128 145 16125 -125
56910 288785 334064 138 16123 -100
56850 288708 334027 146 16119 -86
56804 288655 333989 144 16127 -119
56754 288585 333924 116 16159 -189
56713 288525 333873 101 16189 -215
56686 288477 333801 120 16190 -190
56678 288457 333771 161 16166 -167
56681 288458 333756 204 16143 -118
56697 288469 333765 229 16140 -71
56715 288461 333745 227 16137 -54
56733 288475 333748 207 16119 -45
56753 288479 333740 180 16106 -39
56773 288489 333730 160 16108 -44
56797 288503 333722 134 16127 -59
56826 288513 333721 100 16152 -76
56857 288516 333711 91 16157 -88
56887 288537 333710 100 16148 -88
56917 288550 333702 105 16149 -79
56941 288556 333692 101 16153 -89
56960 288549 333663 105 16163 -95
56983 288563 333664 117 16158 -91
57014 288568 333658 123 16131 -86
57046 288594 333667 119 16123 -67
57078 288613 333653 105 16130 -68
57110 288635 333659 106 16151 -71
57151 288675 333665 130 16154 -66
57201 288715 333685 146 16134 -67
57251 288691 333683 141 16129 -58
57231 288555 333628 129 16129 -53
57092 288317 333559 110 16132 -61
56866 288063 333473 117 16133 -65
56625 287854 333374 150 16124 -71
56415 287688 333277 160 16116 -89
56259 287556 333191 149 16119 -106
56150 287464 333118 141 16144 -81
56093 287420 333094 150 16160 -40
56068 287382 333060 157 16129 -60
56059 287371 333073 146 16098 -86
56059 287367 333069 144 16105 -60
56066 287378 333064 142 16142 -36
56087 287383 333077 135 16162 -51
56091 287352 333066 128 16154 -73
56078 287324 333046 129 16151 -64
56056 287277 333029 139 16140 -52
56038 287252 333021 79 16135 -15
56029 287235 333023 76 16112 -19
56022 287221 333012 72 16104 -32
56028 287208 333000 80 16127 -33
56045 287235 333000 80 16156 -33
56069 287247 333003 79 16147 -48
56102 287274 333023 88 16125 -46
56141 287306 333047 95 16115 -34
56189 287352 333068 110 16113 -32
56241 287397 333092 108 16166 -43
56285 287427 333098 115 16169 -26
56318 287451 333083 134 16137 -25
56361 287486 333083 153 16114 -34
56411 287514 333098 162 16105 -29
56469 287558 333123 171 16111 -18
56532 287614 333153 180 16122 1
56590 287654 333195 180 16120 13
56659 287724 333233 180 16114 -4
56721 287765 333260 177 16122 1
56773 287801 333269 165 16132 15
56827 287847 333297 173 16122 -3
56887 287903 333328 197 16110 -24
56949 287949 333347 201 16116 -33
57000 288003 333351 183 16128 -32
57064 288074 333375 172 16140 -38
57139 288125 333412 182 16142 -40
57207 288105 333408 200 16127 -46
57203 287974 333366 206 16121 -58
57091 287772 333310 185 16143 -49
56926 287586 333234 170 16163 -41
56763 287441 333175 175 16146 -57
56646 287342 333124 181 16129 -61
56577 287276 333102 195 16126 -41
56557 287271 333094 201 16127 -36
56570 287285 333112 182 16128 -61
56600 287317 333126 178 16133 -78
56639 287337 333136 192 16146 -62
56679 287375 333163 193 16142 -59
56739 287417 333187 189 16137 -79
56789 287430 333175 181 16178 -95
56808 287404 333169 176 16195 -82
56806 287381 333152 195 16164 -63
56800 287354 333147 210 16151 -40
56796 287328 333135 214 16148 -20
56800 287330 333127 212 16155 -26
56797 287328 333109 206 16172 -13
56799 287329 333078 203 16164 3
56817 287328 333059 202 16133 1
56853 287348 333051 210 16115 8
56901 287391 333063 234 16154 69
56957 287431 333077 240 16153 70
57016 287471 333090 234 16139 67
57062 287514 333099 236 16122 54
57098 287548 333093 252 16110 58
57138 287580 333075 255 16112 51
57190 287612 333079 251 16117 37
57250 287652 333086 268 16129 34
57297 287689 333076 284 16142 32
57349 287725 333085 332 16185 66
57405 287764 333088 341 16180 85
57449 287798 333096 331 16166 87
57494 287829 333081 322 16147 77
57535 287864 333072 312 16138 81
57582 287910 333082 300 16150 91
57646 287974 333093 288 16154 90
57716 288028 333114 270 16135 82
57792 288055 333135 257 16125 65
57843 287992 333121 250 16146 66
57814 287844 333083 256 16184 78
57710 287678 332993 274 16181 72
57589 287533 332924 299 16160 77
57491 287432 332864 323 16146 97
57428 287383 332825 327 16126 106
57410 287355 332817 317 16111 104
57414 287361 332791 309 16100 94
57418 287368 332770 315 16121 103
57441 287378 332747 317 16149 106
57473 287411 332742 308 16161 92
57527 287454 332773 313 16164 95
57590 287490 332786 315 16152 102
57643 287503 332802 315 16143 104
57685 287500 332803 326 16142 111
57710 287483 332801 327 16136 120
57726 287484 332798 318 16128 119
57742 287490 332799 314 16130 135
57769 287517 332808 306 16155 158
57809 287543 332814 308 16156 152
57845 287569 332822 317 16126 160
57882 287604 332819 333 16122 207
57919 287633 332806 346 16136 220
57967 287683 332821 352 16142 181
58023 287731 332847 350 16132 160
58089 287772 332872 345 16127 170
58146 287828 332878 363 16134 186
58203 287871 332884 384 16139 187
58268 287923 332910 384 16125 181
58334 287975 332932 372 16103 173
58401 288021 332937 365 16101 160
58468 288083 332974 376 16157 204
58529 288135 332995 373 16149 185
58593 288193 333035 374 16131 167
58658 288248 333052 374 16111 160
58721 288299 333063 380 16108 156
58777 288335 333080 389 16119 161
58838 288396 333083 378 16124 159
58899 288456 333125 346 16126 152
58973 288508 333132 316 16125 133
59040 288546 333138 264 16181 104
59097 288484 333121 265 16182 62
59099 288338 333075 263 16174 20
59046 288172 333032 276 16167 10
58965 288044 332984 314 16152 55
58881 287951 332955 341 16150 89
58819 287893 332908 325 16142 62
58790 287861 332902 307 16123 34
58780 287867 332910 320 16125 45
58790 287876 332907 318 16184 32
58808 287891 332912 311 16188 11
58828 287903 332898 310 16163 3
58852 287931 332907 301 16140 14
58896 287955 332917 303 16136 39
58939 287968 332909 304 16144 53
58959 287959 332900 284 16152 42
58961 287916 332878 269 16165 38
58955 287890 332838 272 16161 38
58942 287869 332821 271 16143 32
58939 287861 332793 268 16140 50
58949 287863 332789 278 16146 77
58975 287885 332790 285 16140 84
58999 287918 332801 294 16141 91
59017 287941 332777 310 16148 101
59037 287953 332771 323 16145 105
59067 287987 332770 320 16133 99
59099 287998 332760 303 16130 86
59135 288025 332765 296 16132 73
59168 288055 332748 288 16136 74
59211 288084 332757 287 16154 79
59257 288115 332762 302 16164 61
59312 288160 332779 313 16151 44
59355 288193 332784 320 16132 58
59390 288226 332768 329 16127 89
59425 288260 332780 346 16133 119
59469 288296 332791 359 16132 124
59509 288328 332808 364 16127 115
59551 288376 332820 368 16129 112
59590 288410 332818 370 16123 103
59635 288449 332813 375 16139 115
59679 288502 332832 365 16161 122
59740 288552 332854 336 16160 117
59808 288564 332867 314 16159 113
59847 288471 332846 307 16148 96
59823 288324 332829 312 16146 92
59751 288175 332805 326 16159 115
59647 288053 332759 336 16161 131
59538 287959 332703 325 16153 105
59442 287896 332641 301 16141 50
59375 287849 332601 335 16158 64
59328 287842 332590 346 16155 83
59314 287843 332584 349 16153 72
59307 287843 332559 354 16155 58
59299 287858 332558 352 16149 68
59302 287876 332550 353 16137 72
59321 287877 332547 361 16125 72
59328 287864 332538 370 16120 84
59324 287838 332516 368 16116 92
59302 287808 332477 374 16171 157
59279 287777 332471 364 16162 154
59264 287769 332450 349 16144 143
59247 287752 332436 342 16142 155
59231 287752 332435 334 16135 164
59229 287767 332424 339 16132 159
59240 287783 332423 343 16137 146
59256 287799 332419 343 16141 139
59267 287818 332400 353 16144 143
59285 287843 332386 366 16138 151
59305 287863 332382 376 16138 167
59319 287889 332383 380 16142 154
59343 287910 332375 377 16132 127
59366 287941 332363 369 16127 128
59387 287956 332348 359 16124 137
59407 287984 332336 364 16136 155
59437 288003 332332 366 16147 163
59459 288025 332328 351 16139 155
59453 288041 332273 338 16137 138
59461 288054 332241 330 16142 122
59491 288086 332250 319 16154 119
59524 288124 332254 303 16164 113
59558 288154 332279 299 16166 95
59601 288202 332308 291 16162 83
59626 288250 332303 278 16152 68
59653 288285 332309 281 16154 74
59688 288259 332272 298 16158 77
59688 288133 332230 309 16148 83
59592 287942 332150 312 16137 113
59432 287767 332064 324 16132 145
59258 287608 331996 333 16132 141
59108 287510 331957 325 16149 149
58987 287439 331901 316 16165 142
58907 287417 331877 299 16159 109
58863 287414 331876 294 16149 108
58843 287426 331880 303 16138 134
58812 287430 331870 302 16126 125
58785 287457 331852 298 16123 93
58775 287479 331847 302 16121 80
58781 287487 331846 300 16131 70
58775 287473 331839 302 16145 63
58748 287434 331820 305 16153 75
58690 287395 331793 298 16157 71
58634 287372 331785 298 16162 54
58592 287360 331773 307 16180 61
58567 287360 331776 315 16197 85
58545 287355 331776 311 16176 110
58545 287380 331770 315 16140 121
58547 287389 331769 330 16125 116
58542 287415 331753 372 16154 181
58539 287439 331748 393 16153 172
58553 287473 331761 412 16136 139
58579 287516 331781 421 16127 137
58609 287566 331810 414 16120 146
58632 287599 331816 408 16120 154
58640 287627 331822 409 16121 157
58652 287654 331818 416 16120 142
58674 287680 331825 419 16124 143
58699 287716 331838 418 16140 174
58732 287751 331853 421 16155 195
58762 287802 331881 415 16150 189
58785 287834 331896 401 16136 172
58790 287862 331878 388 16131 152
58809 287894 331888 387 16145 146
58841 287938 331901 387 16160 149
58882 287987 331925 377 16148 150
58923 287979 331928 383 16133 175
58900 287882 331884 387 16129 182
58791 287709 331824 365 16136 159
58617 287515 331753 338 16150 142
58430 287371 331676 326 16149 139
58263 287261 331638 326 16145 156
58140 287210 331597 323 16146 164
58065 287186 331597 323 16139 136
58017 287191 331593 327 16140 103
57997 287201 331606 317 16144 112
57998 287225 331624 298 16139 123
58011 287276 331636 296 16150 127
58035 287323 331660 299 16169 143
58048 287328 331669 307 16162 192
58042 287316 331666 309 16135 197
58015 287288 331672 300 16126 178
57981 287260 331666 306 16127 158
57928 287231 331644 327 16146 166
57875 287204 331605 338 16163 180
57822 287191 331573 332 16162 184
57797 287192 331549 333 16156 184
57794 287200 331556 346 16150 173
57809 287236 331575 389 16148 224
57837 287274 331606 391 16118 225
57867 287316 331643 398 16111 214
57907 287370 331694 397 16123 209
57941 287420 331726 397 16143 216
57980 287468 331753 409 16146 215
58020 287514 331787 421 16127 214
58060 287552 331822 426 16111 217
58097 287592 331853 432 16108 220
58132 287634 331851 434 16124 244
58165 287673 331889 426 16136 257
58203 287713 331910 407 16138 223
58240 287755 331927 395 16143 173
58273 287808 331962 394 16143 135
58312 287840 331971 389 16141 110
58353 287891 331990 396 16152 118
58394 287926 332001 414 16165 143
58435 287916 332004 430 16157 154
58400 287768 331958 434 16133 149
58262 287572 331899 422 16110 148
58062 287385 331837 426 16118 171
57864 287235 331775 432 16137 172
57703 287117 331710 413 16144 150
57586 287059 331678 395 16158 130
57516 287028 331664 402 16164 119
57476 287016 331654 409 16158 125
57458 287009 331630 395 16140 129
57449 287007 331624 382 16122 127
57448 287022 331630 379 16126 125
57467 287053 331641 378 16144 122
57482 287060 331631 370 16177 169
57474 287029 331625 352 16179 203
57445 286985 331607 342 16154 180
57411 286961 331591 357 16142 171
57379 286941 331592 375 16131 177
57354 286917 331591 393 16121 186
57337 286920 331582 415 16116 190
57341 286927 331590 416 16120 205
57355 286945 331590 417 16126 215
57376 286976 331600 434 16130 213
57397 286998 331617 472 16146 251
57423 287017 331634 499 16144 275
57452 287056 331629 496 16109 238
57486 287082 331628 487 16103 213
57518 287112 331643 471 16116 215
57552 287128 331648 472 16141 224
57585 287159 331646 484 16154 226
57617 287191 331658 477 16132 213
57647 287215 331676 471 16111 212
57680 287252 331686 457 16108 213
57713 287290 331690 412 16149 220
57741 287313 331700 386 16165 183
57772 287335 331689 378 16159 171
57791 287365 331668 383 16138 175
57827 287410 331663 393 16139 187
57877 287438 331664 404 16158 217
57925 287425 331663 409 16148 243
57921 287298 331627 404 16116 236
57819 287123 331596 386 16100 204
57666 286957 331549 390 16114 207
57507 286814 331499 403 16147 238
57385 286741 331452 390 16152 230
57307 286736 331433 377 16142 194
57264 286718 331417 376 16141 172
57253 286717 331419 372 16138 171
57257 286714 331418 374 16144 183
57265 286719 331407 371 16145 196
57283 286737 331415 357 16135 210
57312 286754 331422 360 16129 215
57343 286772 331423 366 16177 239
57356 286758 331417 357 16168 223
57358 286748 331419 354 16142 215
57352 286727 331414 364 16128 223
57344 286719 331415 381 16127 236
57344 286712 331408 391 16134 250
57355 286729 331418 387 16133 236
57378 286743 331425 386 16137 216
57408 286768 331439 390 16132 211
57447 286786 331444 405 16125 218
57486 286831 331457 420 16141 234
57529 286859 331476 417 16144 232
57579 286896 331493 417 16135 211
57624 286952 331508 417 16126 196
57681 286986 331538 425 16121 203
57735 287044 331565 447 16122 220
57793 287087 331579 450 16120 221
57856 287145 331607 436 16116 221
57913 287189 331628 423 16109 219
57972 287227 331656 413 16108 211
58031 287279 331685 412 16135 216
58087 287327 331721 414 16157 208
58150 287387 331726 412 16150 189
58209 287438 331755 416 16134 184
58268 287501 331775 413 16112 170
58336 287546 331807 422 16121 180
58413 287592 331827 440 16135 216
58470 287548 331830 447 16126 217
58458 287430 331788 432 16112 188
58383 287281 331752 410 16106 174
58287 287159 331707 469 16198 208
58200 287083 331673 456 16187 184
58151 287033 331664 443 16161 168
58132 287020 331661 437 16145 178
58136 287024 331670 446 16143 212
58156 287044 331674 448 16131 240
58186 287061 331678 426 16128 232
58218 287083 331680 408 16131 191
58261 287125 331714 395 16142 166
58312 287160 331724 392 16167 185
58356 287178 331734 404 16159 198
58386 287158 331727 407 16125 196
58412 287161 331725 405 16105 207
58435 287163 331739 406 16111 213
58460 287168 331744 401 16117 196
58486 287197 331755 408 16115 182
58524 287215 331765 415 16114 185
58571 287256 331792 411 16114 190
58617 287295 331804 417 16122 187
58673 287333 331833 460 16142 215
58733 287377 331852 459 16125 214
58794 287424 331869 455 16115 199
58864 287480 331903 460 16122 196
58929 287528 331927 469 16125 203
58999 287581 331951 471 16136 215
59064 287630 331965 460 16132 200
59135 287679 332006 447 16126 190
59203 287746 332022 445 16134 191
59270 287793 332046 446 16148 194
59338 287838 332052 441 16145 214
59404 287884 332071 430 16139 216
59464 287930 332100 412 16132 199
59534 287992 332125 402 16119 195
59598 288042 332152 402 16129 188
59665 288112 332183 417 16151 205
59744 288192 332230 424 16136 248
59825 288249 332236 421 16112 255
59903 288243 332262 414 16108 214
59948 288160 332259 406 16111 202
59943 288037 332238 432 16164 275
59906 287935 332222 445 16192 282
59858 287866 332194 421 16155 222
59830 287840 332178 403 16124 207
59815 287829 332179 396 16114 209
59823 287858 332183 405 16118 222
59844 287866 332197 409 16119 235
59876 287900 332198 393 16126 230
59911 287933 332202 387 16131 202
59958 287986 332225 383 16138 198
60012 288028 332253 392 16144 225
60059 288035 332251 403 16121 193
60094 288021 332254 403 16108 206
60123 288020 332258 411 16113 215
60149 288019 332258 427 16136 212
60167 288026 332271 442 16141 219
60196 288043 332278 448 16126 221
60228 288076 332297 445 16115 218
60265 288102 332304 448 16121 229
60309 288143 332321 468 16145 255
60355 288184 332341 492 16163 257
60406 288239 332362 494 16155 222
60462 288265 332376 491 16138 200
60511 288315 332405 491 16126 221
60564 288357 332417 496 16123 243
60618 288397 332440 507 16124 244
60672 288443 332460 500 16119 244
60723 288487 332465 491 16118 238
60771 288529 332488 500 16118 224
60826 288583 332498 505 16123 265
60878 288621 332516 492 16120 248
60929 288657 332535 472 16118 239
60977 288700 332551 456 16128 231
61025 288746 332579 460 16138 245
61073 288782 332582 483 16146 291
61122 288843 332604 501 16133 293
61182 288891 332630 505 16120 275
61240 288936 332648 496 16126 274
61295 288911 332636 491 16143 286
61311 288807 332604 497 16165 305
61289 288688 332568 500 16164 280
61234 288578 332537 500 16144 240
61165 288509 332496 495 16120 231
61107 288475 332470 485 16105 249
61071 288456 332450 489 16112 264
61048 288464 332451 487 16135 256
61042 288478 332433 468 16144 237
61049 288493 332439 463 16140 237
61060 288528 332431 468 16140 265
61088 288565 332455 483 16137 299
61119 288584 332448 494 16122 319
61138 288573 332442 498 16118 323
61152 288559 332443 506 16128 312
61146 288555 332434 510 16132 283
61142 288536 332427 511 16138 271
61138 288538 332424 511 16134 276
61138 288541 332429 516 16109 290
61147 288545 332437 512 16093 313
61157 288562 332432 487 16086 325
61175 288580 332441 483 16137 299
61191 288597 332445 494 16122 319
61210 288608 332441 498 16118 323
61230 288626 332441 506 16128 312
61252 288647 332454 510 16132 283
61278 288675 332464 511 16138 271
61299 288700 332457 511 16134 276
61322 288717 332461 516 16109 290
61351 288739 332476 512 16093 313
61377 288759 332480 487 16086 325
61406 288768 332480 488 16120 321
61434 288810 332491 503 16128 290
61463 288832 332505 497 16149 282
61496 288858 332506 504 16184 267
61523 288898 332509 506 16184 251
61557 288937 332530 527 16177 251
61603 288992 332546 527 16164 269
61642 289018 332557 516 16157 266
61664 288954 332540 513 16147 252
61630 288827 332519 490 16150 252
61529 288691 332473 474 16166 261
61394 288565 332410 456 16140 268
61258 288475 332372 446 16119 264
61144 288420 332349 457 16126 258
61055 288391 332315 484 16133 274
60993 288378 332305 490 16130 292
60950 288375 332284 468 16112 280
60911 288361 332266 448 16111 259
60891 288361 332263 448 16130 246
60880 288369 332257 383 16235 188
60883 288370 332254 340 16222 172
60870 288354 332250 320 16190 153
60839 288332 332219 316 16169 133
60796 288291 332197 320 16161 122
60753 288262 332187 315 16172 132
60707 288250 332174 296 16158 137
60675 288244 332164 291 16135 149
60651 288249 332159 298 16139 159
60640 288255 332163 299 16144 148
60633 288272 332161 305 16144 152
60639 288273 332153 311 16132 163
60641 288297 332148 307 16115 164
60649 288299 332152 308 16114 165
60657 288319 332144 322 16127 167
60670 288344 332142 339 16146 173
60676 288355 332130 344 16159 174
60691 288379 332145 349 16156 173
60707 288410 332133 360 16157 164
60725 288427 332142 364 16168 164
60740 288459 332130 374 16183 190
60754 288474 332135 387 16180 207
60774 288491 332140 391 16150 200
60796 288528 332142 398 16125 202
60822 288563 332169 397 16112 219
60847 288590 332162 413 16121 235
60875 288640 332191 432 16140 234
60903 288680 332198 434 16139 227
60933 288683 332200 430 16146 224
60929 288581 332173 422 16153 209
60837 288413 332113 410 16160 243
60669 288225 332029 394 16167 275
60461 288067 331967 388 16156 264
60274 287952 331913 386 16148 244
60116 287862 331857 398 16145 235
59992 287803 331826 420 16148 273
59906 287772 331805 435 16141 302
59848 287767 331792 432 16117 291
59795 287754 331771 432 16108 283
59753 287734 331744 440 16123 289
59725 287741 331750 441 16181 298
59717 287744 331739 434 16171 274
59687 287712 331708 428 16141 263
59636 287673 331702 408 16120 274
59578 287626 331665 409 16134 284
59519 287593 331649 410 16151 277
59466 287566 331631 391 16150 252
59422 287552 331602 384 16148 254
59385 287540 331592 395 16151 255
59361 287542 331594 420 16154 280
59353 287554 331594 425 16162 299
59353 287576 331605 434 16142 304
59357 287597 331611 438 16125 308
59364 287620 331610 460 16124 325
59374 287642 331620 475 16124 341
59390 287665 331627 462 16119 330
59403 287691 331623 447 16125 321
59419 287724 331631 453 16130 302
59438 287755 331644 501 16145 310
59460 287784 331650 515 16140 297
59479 287819 331668 507 16120 295
59498 287856 331674 513 16112 290
59520 287881 331690 524 16118 296
59544 287914 331692 521 16130 304
59570 287944 331705 500 16132 293
59597 287995 331726 467 16120 292
59622 288035 331734 443 16122 270
59665 288081 331757 447 16147 251
59701 288113 331768 469 16180 275
59735 288090 331751 481 16184 284
59694 287960 331709 483 16155 272
59563 287769 331638 476 16131 259
59367 287587 331576 493 16138 254
59160 287430 331518 517 16152 291
58989 287324 331462 506 16140 322
58863 287251 331411 490 16118 298
58778 287216 331408 493 16110 269
58724 287198 331392 519 16127 282
58691 287180 331364 549 16166 313
58672 287189 331368 541 16193 307
58658 287196 331359 517 16183 282
58671 287231 331368 498 16155 269
58676 287240 331367 463 16127 270
58671 287216 331352 454 16116 296
58647 287183 331337 451 16126 312
58615 287166 331330 427 16134 290
58579 287147 331325 422 16137 275
58546 287131 331318 426 16146 279
58528 287125 331316 439 16145 319
58522 287143 331312 423 16130 331
58526 287160 331321 414 16116 334
58541 287186 331324 417 16107 313
58544 287203 331302 424 16113 317
58553 287211 331282 430 16132 335
58569 287225 331261 434 16145 331
58595 287254 331274 449 16143 317
58629 287294 331278 453 16133 311
58666 287327 331307 496 16148 378
58705 287381 331312 501 16139 372
58732 287410 331305 507 16128 339
58761 287444 331306 509 16108 318
58795 287475 331309 498 16092 307
58836 287519 331321 492 16099 331
58874 287551 331330 485 16111 337
58906 287566 331319 468 16123 306
58944 287623 331336 449 16136 286
58997 287678 331359 444 16134 300
59043 287727 331378 464 16127 324
59090 287780 331390 472 16128 330
59143 287820 331397 450 16134 317
59200 287817 331400 439 16144 302
59206 287713 331379 441 16161 278
59132 287543 331321 461 16171 273
59000 287378 331270 494 16160 292
58853 287250 331219 504 16145 296
58724 287146 331165 486 16124 275
58636 287100 331132 489 16120 266
58590 287085 331123 511 16145 295
58572 287096 331115 496 16153 281
58582 287111 331117 453 16141 242
58595 287144 331122 431 16136 235
58634 287185 331154 440 16134 260
58684 287249 331192 451 16127 297
58735 287278 331212 452 16115 313
58769 287283 331224 441 16108 297
58788 287270 331233 425 16104 285
58798 287260 331226 409 16127 296
58788 287262 331211 412 16163 335
58780 287247 331198 418 16160 357
58780 287250 331200 421 16132 355
58796 287275 331185 434 16114 357
58829 287307 331203 437 16115 343
58868 287346 331229 441 16126 337
58918 287382 331249 467 16137 336
58962 287424 331260 486 16132 332
59001 287449 331253 484 16119 331
59040 287491 331257 493 16114 328
59089 287540 331277 531 16163 330
59141 287582 331280 521 16156 336
59190 287633 331286 522 16144 334
59239 287674 331298 533 16135 330
59297 287716 331314 549 16133 323
59354 287754 331333 541 16135 326
59412 287804 331353 517 16134 332
59461 287854 331359 506 16137 323
59515 287889 331369 507 16136 299
59571 287955 331388 500 16154 313
59629 287999 331408 472 16146 287
59690 288058 331426 455 16124 281
59748 288118 331432 453 16120 288
59816 288148 331445 472 16122 275
59869 288075 331431 497 16133 281
59870 287940 331406 501 16137 331
59821 287809 331385 510 16132 352
59746 287699 331340 514 16119 311
59668 287628 331310 527 16138 317
59613 287590 331274 506 16159 326
59592 287575 331265 474 16166 290
59587 287597 331266 472 16159 260
59604 287642 331273 482 16144 272
59624 287659 331269 477 16140 297
59655 287689 331272 466 16131 300
59699 287739 331272 456 16123 282
59744 287763 331293 429 16123 279
59787 287767 331281 419 16153 327
59813 287759 331275 439 16183 376
59824 287736 331251 454 16164 377
59834 287739 331256 456 16132 371
59850 287741 331268 464 16121 378
59867 287758 331262 458 16118 392
59885 287773 331259 443 16124 390
59911 287794 331259 448 16137 365
59951 287830 331272 457 16138 352
59994 287871 331285 464 16134 363
60031 287896 331287 482 16130 362
60081 287950 331295 514 16139 375
60130 287992 331311 542 16141 378
60177 288039 331335 557 16126 358
60226 288069 331324 568 16124 359
60278 288106 331350 577 16120 354
60333 288161 331355 576 16117 349
60388 288203 331381 555 16120 354
60442 288245 331386 530 16120 359
60496 288299 331409 512 16130 347
60552 288342 331425 495 16143 329
60612 288393 331447 495 16164 345
60672 288432 331460 488 16165 351
60725 288498 331464 465 16150 324
60783 288545 331483 460 16136 307
60847 288591 331511 463 16120 282
60914 288577 331511 469 16138 294
60951 288478 331490 488 16150 326
60943 288358 331460 502 16136 326
60905 288258 331427 511 16118 300
60857 288176 331401 515 16103 282
60817 288144 331365 555 16186 348
60787 288128 331343 543 16177 313
60785 288142 331344 510 16156 299
60792 288166 331346 492 16145 310
60811 288192 331340 485 16123 331
60836 288234 331367 471 16117 336
60880 288305 331402 454 16123 307
60933 288356 331427 425 16131 280
60986 288383 331441 398 16147 280
61018 288368 331436 427 16154 342
61041 288363 331434 439 16136 343
61060 288360 331427 445 16135 349
61080 288356 331436 449 16135 323
61100 288376 331435 464 16129 296
61127 288400 331448 488 16140 300
61162 288435 331457 500 16138 314
61199 288478 331489 501 16127 330
61235 288514 331494 504 16127 325
61273 288565 331499 528 16136 310
61309 288591 331511 565 16156 325
61347 288634 331523 572 16156 330
61395 288660 331541 545 16134 317
61441 288714 331561 520 16120 320
61476 288746 331547 524 16138 328
61519 288778 331558 542 16155 336
61566 288803 331566 536 16137 327
61609 288834 331576 516 16116 317
61635 288850 331555 498 16117 320
61660 288879 331543 482 16122 317
61696 288914 331548 473 16119 324
61741 288959 331574 454 16119 320
61788 289015 331597 436 16129 288
61846 289070 331626 436 16136 265
61907 289106 331660 453 16156 284
61968 289078 331657 473 16164 315
61973 288956 331629 475 16129 320
61946 288837 331590 458 16094 304
61890 288744 331573 443 16095 286
61824 288692 331539 443 16131 287
61778 288652 331528 467 16167 282
61747 288664 331529 441 16144 308
61733 288680 331545 427 16118 327
61733 288727 331551 422 16104 329
61728 288732 331534 416 16104 315
61729 288749 331540 406 16121 280
61745 288790 331547 399 16151 256
61773 288816 331553 402 16176 271
61791 288806 331543 410 16169 284
61803 288799 331548 441 16157 313
61805 288771 331548 465 16150 333
61809 288773 331554 455 16135 325
61814 288781 331570 443 16132 320
61821 288795 331595 445 16132 297
61833 288828 331601 462 16141 293
61849 288860 331633 475 16136 304
61872 288884 331649 482 16118 310
61900 288918 331664 484 16114 305
61924 288954 331697 483 16129 285
61951 288993 331709 539 16167 300
61979 289030 331722 550 16143 300
62006 289056 331736 545 16124 299
62036 289082 331751 544 16118 296
62066 289124 331768 547 16123 309
62096 289162 331781 538 16137 314
62132 289198 331800 525 16129 289
62164 289232 331822 513 16119 279
62197 289274 331837 494 16126 279
62231 289311 331855 491 16127 293
62262 289349 331862 486 16138 319
62297 289401 331893 481 16153 307
62339 289442 331902 485 16151 296
62382 289442 331906 492 16137 290
62401 289362 331892 499 16125 278
62371 289230 331860 494 16116 283
62290 289103 331823 498 16125 288
62186 289011 331778 505 16134 275
62080 288939 331746 497 16139 254
61982 288898 331715 491 16148 271
61913 288878 331699 506 16147 328
61862 288874 331688 515 16138 350
61827 288887 331684 502 16128 313
61801 288890 331672 480 16120 280
61785 288919 331683 458 16130 263
61789 288941 331682 447 16162 271
61792 288937 331674 438 16174 289
61780 288911 331657 437 16159 274
61755 288877 331655 459 16138 264
61719 288849 331631 477 16112 287
61689 288838 331637 499 16126 332
61660 288827 331633 497 16151 337
61636 288827 331617 476 16145 303
61616 288829 331622 479 16140 292
61607 288838 331621 489 16141 297
61601 288861 331628 510 16141 314
61599 288869 331624 527 16132 307
61603 288890 331638 524 16125 286
61613 288908 331620 522 16123 294
61619 288931 331627 528 16130 296
61630 288948 331638 554 16154 319
61639 288968 331645 535 16136 315
61653 289001 331657 515 16129 302
61669 289026 331661 510 16139 298
61688 289041 331662 507 16150 301
61702 289060 331684 499 16144 291
61721 289097 331696 480 16123 283
61737 289120 331701 454 16108 266
61749 289158 331723 444 16117 257
61775 289186 331729 510 16167 354
61801 289220 331726 507 16139 342
61819 289183 331723 485 16111 302
61787 289057 331679 473 16098 282
61677 288897 331621 495 16130 286
61521 288746 331556 512 16161 272
61350 288631 331507 507 16152 250
61202 288560 331468 496 16139 250
61076 288512 331437 488 16128 258
60989 288475 331418 484 16127 303
60924 288454 331396 472 16139 286
60873 288449 331369 460 16148 248
60824 288447 331360 455 16158 260
60792 288440 331341 455 16152 279
60756 288422 331303 464 16133 278
60713 288376 331253 474 16132 280
60655 288314 331216 488 16135 276
60588 288272 331172 503 16133 249
60520 288225 331149 515 16136 233
60461 288193 331135 524 16152 272
60416 288172 331140 519 16156 301
60368 288154 331111 513 16146 298
60322 288142 331079 524 16136 282
60299 288132 331054 543 16131 274
60281 288129 331031 558 16135 295
60264 288129 331031 564 16123 299
60261 288135 331041 563 16102 298
60267 288153 331057 554 16095 306
60273 288177 331062 541 16105 307
60286 288203 331076 543 16137 340
60302 288237 331101 549 16164 354
60319 288255 331117 533 16159 322
60332 288271 331129 516 16140 286
60345 288301 331133 511 16139 272
60356 288323 331132 495 16152 288
60356 288333 331119 463 16148 267
60361 288352 331114 455 16147 227
60367 288364 331120 473 16155 240
60387 288396 331122 490 16147 265
60411 288417 331129 543 16137 340
60426 288371 331112 549 16164 354
60369 288249 331061 533 16159 322
60215 288059 330985 516 16140 286
60027 287898 330909 511 16139 272
59851 287779 330830 495 16152 288
59707 287675 330803 463 16148 267
59599 287629 330776 455 16147 227
59534 287601 330762 473 16155 240
59475 287588 330736 490 16147 265
59434 287556 330705 508 16146 312
59395 287544 330704 501 16140 324
59378 287560 330692 514 16149 334
59376 287558 330700 527 16163 313
59365 287542 330697 517 16160 311
59326 287495 330681 509 16137 325
59274 287453 330643 507 16125 328
59220 287414 330610 499 16123 326
59179 287391 330600 482 16126 318
59145 287373 330588 478 16139 306
59119 287364 330561 489 16146 301
59092 287348 330543 490 16138 315
59065 287322 330475 482 16121 312
59045 287289 330427 485 16108 311
59029 287284 330392 500 16110 337
59032 287282 330393 499 16119 338
59046 287311 330403 489 16126 324
59065 287344 330418 476 16130 313
59067 287350 330411 471 16132 298
59075 287370 330402 497 16147 315
59092 287397 330416 522 16157 362
59120 287422 330441 506 16135 369
59145 287456 330449 476 16116 351
59176 287481 330473 463 16111 345
59210 287516 330495 478 16123 352
59227 287544 330479 492 16127 356
59238 287556 330456 485 16116 354
59264 287576 330453 484 16118 339
59308 287618 330455 491 16132 334
59348 287630 330477 495 16136 345
59360 287560 330470 496 16143 374
59294 287435 330456 464 16146 334
59161 287286 330401 452 16140 310
59005 287154 330331 461 16150 320
58864 287050 330249 470 16154 323
58745 286959 330155 481 16149 323
58675 286905 330118 482 16144 334
58646 286889 330100 470 16129 333
58640 286892 330105 457 16114 298
58650 286908 330144 446 16122 300
58673 286936 330186 442 16161 337
58709 286984 330235 432 16179 318
58733 286992 330260 425 16170 277
58728 286977 330234 439 16156 279
58708 286932 330215 458 16127 312
58684 286909 330177 455 16115 318
58661 286885 330152 444 16130 321
58656 286866 330164 437 16153 310
58660 286872 330164 434 16163 283
58653 286866 330126 450 16172 298
58631 286849 330072 474 16175 325
58626 286831 330025 474 16145 342
58643 286833 330008 468 16129 354
58673 286852 330022 468 16140 350
58710 286864 330038 462 16157 346
58747 286911 330056 456 16156 333
58785 286945 330072 453 16140 319
58825 286980 330100 453 16136 315
58866 287019 330124 460 16139 305
58917 287054 330159 480 16138 313
58969 287095 330194 509 16143 341
58996 287117 330173 511 16142 346
59000 287121 330121 494 16138 325
59022 287132 330096 496 16140 300
59064 287153 330102 491 16136 301
59111 287209 330141 483 16121 318
59155 287253 330154 476 16108 333
59181 287273 330123 471 16112 333
59215 287259 330086 470 16131 319
59241 287183 330054 462 16144 308
59194 287051 330005 466 16164 329
59122 286917 329974 466 16173 330
59024 286817 329908 447 16143 308
58914 286716 329818 436 16117 300
58846 286657 329760 453 16127 300
58813 286614 329733 474 16144 337
58816 286606 329741 476 16141 357
58817 286605 329723 468 16135 326
58807 286589 329680 451 16119 292
58800 286589 329650 453 16123 296
58831 286611 329661 483 16185 357
58870 286618 329677 469 16172 329
58874 286593 329634 454 16159 309
58870 286562 329600 437 16151 311
58866 286532 329588 421 16132 323
58882 286530 329598 406 16125 325
58904 286539 329595 393 16136 309
58934 286547 329615 391 16159 290
58970 286585 329636 398 16176 303
58985 286605 329622 417 16162 331
59004 286611 329606 428 16129 345
59039 286634 329604 425 16108 333
59086 286670 329626 423 16109 318
59144 286694 329659 429 16124 324
59208 286749 329710 422 16132 341
59269 286805 329743 416 16130 336
59304 286832 329726 425 16133 333
59330 286851 329706 436 16127 331
59374 286880 329713 447 16122 335
59433 286919 329742 459 16140 353
59496 286973 329778 468 16141 351
59552 287005 329798 463 16131 334
59593 287043 329803 459 16130 332
59637 287083 329811 475 16139 332
59698 287129 329828 474 16144 329
59766 287193 329882 449 16130 336
59843 287247 329921 433 16126 324
59914 287293 329956 424 16125 301
59970 287230 329947 421 16122 305
59977 287123 329920 426 16149 332
59927 287002 329851 423 16160 327
59842 286901 329779 412 16137 296
59777 286825 329705 429 16138 289
59742 286785 329690 454 16155 318
59736 286763 329691 458 16155 318
59749 286775 329710 451 16127 281
59766 286800 329724 437 16110 261
59774 286799 329710 434 16127 276
59782 286799 329697 442 16161 285
59810 286836 329712 457 16180 279
59848 286848 329728 456 16174 284
59875 286839 329722 435 16145 288
59894 286823 329697 423 16119 288
59914 286811 329700 432 16120 304
59932 286815 329708 435 16140 319
59948 286830 329714 422 16148 299
59953 286833 329682 418 16149 296
59957 286826 329638 427 16151 307
59967 286829 329621 422 16131 296
59997 286845 329635 451 16148 374
60048 286892 329659 449 16132 339
60095 286929 329685 435 16126 292
60144 286967 329699 436 16140 288
60191 286998 329728 445 16154 297
60230 287032 329736 455 16148 290
60257 287065 329722 469 16135 293
60278 287080 329703 473 16119 305
60308 287093 329685 474 16116 319
60351 287116 329704 533 16151 328
60396 287159 329709 528 16135 304
60414 287171 329684 509 16130 293
60441 287187 329671 503 16140 303
60480 287218 329672 498 16150 305
60528 287252 329688 483 16141 295
60584 287308 329717 457 16128 285
60613 287349 329726 433 16133 267
60650 287369 329711 415 16140 243
60691 287365 329683 410 16180 297
60733 287292 329665 417 16170 303
60741 287176 329629 419 16146 271
60697 287073 329599 429 16139 262
60642 286987 329546 440 16126 287
60591 286947 329541 436 16106 298
60563 286944 329539 418 16097 286
60528 286929 329511 393 16104 270
60497 286903 329477 396 16135 260
60484 286893 329462 420 16162 250
60486 286898 329470 439 16176 266
60497 286906 329490 427 16167 279
60524 286939 329510 406 16142 280
60565 286958 329544 409 16133 290
60591 286961 329555 414 16127 292
60605 286970 329580 394 16131 287
60613 286953 329580 377 16137 264
60613 286951 329573 381 16144 257
60623 286966 329593 384 16147 281
60632 286993 329603 392 16136 293
60651 287022 329641 415 16141 312
60672 287052 329654 432 16153 331
60691 287071 329645 433 16150 321
60715 287107 329655 420 16141 320
60747 287139 329670 426 16148 329
60764 287151 329670 434 16147 326
60779 287181 329670 423 16130 330
60807 287217 329669 428 16122 332
60838 287236 329692 442 16118 305
60873 287285 329711 456 16122 285
60909 287316 329727 487 16149 314
60945 287360 329741 518 16162 326
60982 287386 329756 523 16142 309
61016 287423 329777 511 16127 302
61029 287448 329768 496 16133 298
61028 287450 329708 489 16151 298
61039 287461 329683 471 16150 286
61067 287505 329697 459 16136 260
61107 287553 329729 453 16123 243
61162 287593 329777 433 16114 242
61212 287613 329799 433 16172 309
61246 287550 329797 422 16151 308
61224 287450 329772 408 16132 291
61162 287331 329727 412 16138 301
61075 287261 329687 423 16144 323
60998 287213 329665 436 16135 303
60931 287186 329651 448 16122 264
60890 287173 329655 450 16115 249
60857 287182 329652 439 16134 252
60831 287168 329651 435 16174 276
60808 287162 329633 432 16154 284
60783 287191 329628 423 16121 275
60778 287194 329631 418 16098 271
60765 287171 329593 405 16105 285
60736 287124 329551 386 16118 296
60704 287090 329524 391 16120 286
60642 287049 329457 420 16147 329
60589 287021 329410 438 16157 377
60551 286992 329372 442 16125 364
60503 286943 329302 430 16114 358
60446 286920 329237 408 16115 365
60422 286898 329216 413 16109 371
60419 286917 329202 456 16117 404
60420 286932 329209 483 16148 422
60433 286951 329239 485 16164 406
60446 287000 329244 498 16146 405
60440 287020 329233 510 16125 424
60442 287037 329208 523 16110 427
60452 287050 329195 556 16099 434
60468 287074 329195 599 16114 474
60476 287110 329192 605 16139 479
60480 287116 329175 572 16138 442
60486 287122 329134 541 16129 441
60478 287119 329082 539 16137 458
60468 287089 329016 541 16141 440
60449 287067 328951 520 16140 408
60444 287062 328907 500 16140 392
60439 287069 328877 492 16138 392
60449 287088 328869 484 16141 394
60472 287121 328880 486 16153 443
60512 287136 328884 465 16124 447
60555 287088 328904 448 16115 436
60516 286979 328862 465 16122 462
60411 286839 328795 507 16123 513
60290 286720 328754 508 16121 499
60186 286633 328720 464 16119 443
60094 286574 328699 434 16121 410
60009 286530 328656 447 16132 433
59928 286500 328620 527 16135 572
59854 286498 328558 589 16118 589
59807 286505 328544 621 16105 597
59791 286527 328557 592 16110 579
59809 286554 328603 579 16137 559
59840 286595 328651 565 16126 546
59874 286627 328714 567 16093 605
59918 286665 328792 608 16104 678
59970 286710 328920 644 16125 665
60039 286798 329093 801 16100 708
60132 286926 329320 813 16129 684
60231 287095 329557 770 16154 615
60325 287242 329760 726 16160 590
60408 287368 329921 732 16153 592
60483 287467 330054 778 16135 599
60543 287571 330159 827 16116 618
60593 287661 330241 866 16098 663
60642 287735 330319 901 16086 692
60673 287818 330360 953 16095 700
60694 287878 330389 1003 16119 739
60709 287933 330402 1029 16114 758
60730 287969 330423 1061 16100 733
60756 288013 330429 1077 16104 710
60782 288064 330447 1038 16130 719
60819 288115 330465 1003 16141 724
60862 288167 330505 997 16122 730
60910 288229 330550 995 16117 756
60957 288307 330598 989 16117 748
61000 288370 330619 999 16100 733
61048 288437 330636 1044 16064 764
61092 288484 330667 1067 16051 786
61138 288493 330671 1074 16075 781
61127 288400 330650 1081 16080 782
61034 288277 330618 1093 16084 805
60904 288153 330574 1101 16098 810
60772 288063 330527 1073 16096 739
60658 288002 330485 1027 16122 681
60572 287962 330459 999 16139 663
60514 287944 330437 1004 16124 643
60477 287925 330421 1055 16118 701
60449 287918 330403 1033 16107 723
60411 287887 330350 1018 16099 717
60373 287854 330290 1017 16104 713
60361 287853 330267 1016 16114 730
60351 287823 330231 1001 16109 732
60329 287790 330208 966 16102 732
60293 287758 330197 954 16095 710
60245 287712 330136 965 16092 689
60199 287670 330090 960 16102 757
60149 287610 330016 927 16107 759
60109 287572 329963 911 16108 745
60093 287558 329925 907 16105 720
60095 287566 329929 913 16104 704
60087 287574 329905 925 16098 696
60092 287592 329912 928 16086 691
60116 287624 329947 932 16092 689
60145 287671 329974 949 16102 688
60184 287698 330011 979 16101 707
60223 287749 330042 991 16108 735
60268 287794 330075 971 16111 724
60316 287854 330127 948 16107 707
60369 287911 330179 922 16113 687
60416 287964 330221 902 16121 661
60449 288010 330226 899 16118 640
60473 288045 330228 892 16106 607
60501 288057 330200 884 16097 598
60521 288065 330185 885 16084 641
60541 288014 330136 886 16083 697
60505 287905 330085 878 16098 712
60413 287769 330054 851 16095 683
60300 287669 330031 832 16096 668
60198 287606 330029 832 16110 659
60123 287582 330031 849 16122 633
60058 287557 330009 861 16127 620
60013 287541 329984 838 16109 619
59995 287539 329965 808 16095 608
59988 287549 329971 789 16092 622
59992 287575 329974 787 16101 658
60012 287611 329997 799 16134 686
60051 287639 330031 812 16153 677
60076 287647 330034 814 16146 643
60078 287657 330046 816 16120 621
60067 287635 330033 825 16105 628
60048 287622 329998 835 16101 648
60035 287610 329984 837 16092 647
60035 287613 329987 835 16087 649
60043 287636 329995 828 16091 651
60063 287658 330002 831 16100 643
60087 287696 330030 870 16118 676
60123 287742 330052 902 16138 711
60160 287789 330083 904 16138 690
60195 287821 330102 913 16130 666
60229 287862 330105 922 16120 665
60252 287871 330103 926 16112 668
60280 287896 330097 934 16108 636
60317 287933 330099 928 16106 603
60360 287967 330118 904 16100 611
60402 288033 330128 891 16101 618
60454 288086 330159 904 16136 655
60494 288112 330135 892 16114 662
60509 288066 330074 866 16094 645
60493 287960 330009 834 16097 639
60430 287832 329952 818 16116 642
60337 287713 329898 811 16132 647
60247 287638 329871 807 16137 626
60186 287590 329847 809 16124 601
60151 287595 329852 799 16111 599
60151 287614 329876 817 16134 639
60156 287637 329881 820 16136 631
60161 287654 329862 795 16135 595
60167 287660 329847 769 16134 563
60190 287698 329856 772 16156 591
60222 287712 329853 769 16163 628
60228 287703 329822 770 16130 636
60233 287684 329798 789 16098 651
60239 287668 329786 803 16086 665
60232 287654 329763 822 16102 676
60222 287649 329724 833 16123 695
60227 287642 329715 833 16119 688
60249 287666 329722 838 16105 665
60282 287696 329742 842 16099 686
60322 287727 329761 843 16098 717
60366 287768 329772 848 16095 710
60411 287813 329823 863 16087 692
60462 287861 329849 876 16087 689
60515 287919 329874 871 16090 688
60562 287952 329898 882 16104 704
60599 287991 329888 917 16131 732
60637 288020 329894 933 16126 716
60681 288069 329891 924 16103 676
60731 288123 329923 914 16100 683
60794 288165 329931 906 16106 719
60853 288170 329951 885 16100 719
60888 288106 329936 852 16080 675
60871 288010 329896 828 16067 637
60814 287910 329858 822 16080 623
60749 287845 329838 814 16107 617
60700 287803 329818 837 16143 635
60671 287789 329802 863 16158 631
60655 287782 329786 841 16123 585
60653 287788 329777 804 16086 572
60664 287790 329759 784 16081 591
60672 287816 329769 770 16095 586
60691 287852 329776 758 16103 557
60711 287859 329764 758 16112 576
60728 287848 329728 752 16115 592
60738 287839 329708 757 16103 583
60751 287827 329689 811 16117 626
60760 287819 329683 863 16126 672
60773 287819 329664 865 16099 678
60797 287849 329693 863 16083 653
60822 287868 329697 876 16094 632
60859 287894 329728 881 16116 623
60901 287914 329733 876 16120 610
60939 287953 329750 881 16104 609
60981 287995 329748 905 16090 610
61027 288028 329778 927 16090 616
61069 288065 329796 946 16143 656
61114 288094 329806 926 16129 635
61160 288143 329813 901 16119 616
61204 288179 329848 888 16115 612
61251 288225 329833 865 16111 600
61297 288266 329862 864 16099 571
61345 288312 329877 870 16090 551
61395 288367 329887 870 16097 559
61448 288405 329904 875 16099 580
61505 288382 329899 847 16100 617
61525 288294 329860 843 16083 623
61502 288189 329805 852 16102 638
61452 288084 329777 852 16115 615
61394 288030 329729 856 16130 586
61342 287997 329702 874 16140 568
61305 287968 329681 880 16124 562
61293 287969 329661 872 16116 576
61288 287967 329654 864 16111 573
61290 287947 329645 855 16122 579
61297 287972 329633 858 16142 608
61311 288001 329654 842 16149 621
61336 288014 329650 805 16140 611
61360 288027 329655 810 16128 613
61373 288007 329625 832 16127 634
61382 287999 329638 846 16112 650
61394 288002 329608 856 16093 635
61401 288002 329607 859 16090 609
61417 288009 329606 858 16087 600
61439 288018 329613 852 16088 613
61455 288037 329596 865 16105 668
61467 288050 329594 869 16129 687
61484 288057 329572 852 16141 658
61507 288082 329576 840 16139 647
61531 288111 329563 835 16137 643
61561 288124 329567 855 16126 643
61596 288150 329578 896 16104 637
61634 288176 329585 908 16085 620
61676 288219 329604 891 16080 610
61715 288248 329601 879 16093 609
61744 288276 329596 877 16134 646
61775 288294 329592 850 16118 598
61812 288326 329607 840 16132 592
61853 288376 329632 824 16137 630
61900 288415 329641 809 16126 655
61950 288433 329661 788 16101 619
61984 288373 329625 771 16086 565
61968 288242 329541 797 16098 557
61916 288117 329499 822 16112 544
61851 288039 329452 879 16093 609
61785 287986 329402 877 16134 646
61730 287937 329383 850 16118 598
61697 287937 329357 840 16132 592
61683 287944 329366 824 16137 630
61674 287956 329379 809 16126 655
61669 287963 329382 788 16101 619
61656 287963 329365 771 16086 565
61655 287976 329362 797 16098 557
61662 287981 329360 822 16112 544
61662 287971 329348 822 16156 587
61663 287969 329337 808 16142 610
61657 287958 329310 808 16111 623
61647 287962 329300 810 16101 629
61643 287962 329283 799 16114 626
61645 287972 329280 790 16120 610
61653 287987 329283 780 16123 597
61667 288005 329281 776 16120 586
61681 288036 329284 779 16101 573
61700 288064 329290 847 16123 623
61732 288094 329300 844 16097 642
61761 288131 329317 841 16088 666
61788 288172 329333 844 16092 681
61815 288216 329341 827 16090 686
61844 288248 329355 834 16084 680
61880 288287 329378 853 16082 685
61917 288326 329383 861 16078 682
61956 288351 329416 882 16078 674
61997 288404 329442 912 16071 692
62040 288448 329467 926 16078 727
62074 288490 329472 925 16092 727
62108 288546 329479 912 16103 695
62145 288586 329482 885 16109 680
62177 288571 329461 858 16108 681
62180 288465 329405 838 16117 674
62137 288331 329317 820 16114 659
62062 288218 329263 795 16104 664
61978 288146 329228 795 16101 677
61907 288104 329209 825 16104 678
61858 288093 329208 862 16125 721
61822 288094 329205 881 16128 762
61782 288083 329176 859 16105 720
61751 288073 329151 824 16095 678
61734 288073 329122 816 16104 686
61726 288082 329131 826 16135 692
61736 288107 329134 810 16160 668
61755 288116 329147 787 16153 643
61754 288105 329144 788 16129 620
61740 288100 329136 801 16108 603
61710 288077 329099 835 16112 676
61686 288064 329078 815 16111 640
61676 288066 329076 818 16112 628
61678 288085 329105 830 16124 658
61690 288111 329112 834 16121 646
61686 288136 329098 839 16105 632
61684 288146 329089 862 16093 645
61695 288153 329084 875 16088 629
61713 288181 329092 865 16091 614
61734 288212 329110 887 16107 636
61752 288231 329121 912 16120 665
61780 288260 329122 911 16113 658
61790 288283 329107 916 16118 624
61809 288307 329113 915 16118 605
61832 288335 329121 906 16102 607
61867 288377 329142 910 16093 602
61900 288415 329159 922 16093 585
61928 288457 329178 938 16106 573
61964 288498 329190 942 16116 563
62001 288520 329201 936 16125 561
62029 288465 329181 954 16127 601
62008 288360 329141 961 16116 618
61931 288246 329118 935 16110 598
61832 288179 329104 903 16112 587
61739 288135 329079 879 16117 609
61677 288121 329082 869 16118 638
61632 288123 329099 869 16109 626
61605 288124 329106 881 16104 618
61583 288133 329096 873 16101 633
61570 288138 329102 868 16096 667
61563 288171 329117 873 16112 693
61571 288202 329126 868 16124 666
61577 288214 329140 859 16115 646
61566 288218 329124 839 16101 641
61545 288181 329120 832 16081 633
61523 288181 329116 838 16076 638
61498 288174 329127 830 16100 644
61487 288189 329115 819 16122 641
61473 288194 329123 824 16124 646
61456 288202 329085 836 16112 657
61441 288205 329067 859 16095 686
61439 288219 329069 861 16091 713
61445 288243 329065 841 16092 701
61456 288255 329073 834 16101 682
61469 288285 329085 822 16120 686
61493 288320 329102 813 16119 688
61525 288358 329138 809 16104 684
61552 288401 329165 817 16097 682
61580 288449 329192 830 16085 667
61614 288491 329206 836 16070 646
61644 288526 329215 925 16096 713
61671 288571 329247 929 16103 678
61709 288620 329259 929 16099 665
61750 288645 329281 921 16103 682
61780 288628 329274 915 16097 676
61760 288534 329244 911 16100 643
61674 288398 329202 904 16108 629
61540 288278 329156 895 16108 618
61403 288189 329114 906 16111 597
61291 288134 329069 943 16139 689
61201 288096 329051 932 16110 665
61145 288082 329030 897 16091 644
61105 288074 329031 879 16103 642
61079 288078 329033 891 16120 628
61056 288089 329034 885 16111 590
61047 288108 329046 866 16101 575
61053 288132 329049 863 16095 585
61043 288113 329053 879 16088 598
61021 288097 329038 882 16125 645
60988 288079 329018 848 16147 618
60957 288052 328999 835 16154 586
60927 288032 328994 822 16150 588
60910 288030 328977 803 16132 580
60895 288029 328978 827 16116 580
60893 288047 328981 851 16108 599
60898 288075 328998 837 16114 607
60915 288099 329010 826 16124 597
60930 288132 329028 857 16125 617
60945 288170 329032 918 16102 671
60966 288193 329054 965 16076 710
60992 288230 329066 981 16060 713
61018 288259 329087 972 16056 699
61040 288301 329099 942 16088 670
61072 288326 329129 916 16123 636
61097 288369 329129 905 16137 614
61125 288391 329133 910 16134 591
61158 288425 329156 913 16110 577
61188 288469 329185 912 16098 607
61220 288510 329189 924 16107 661
61261 288557 329213 911 16112 671
61301 288574 329217 871 16111 626
61313 288523 329206 853 16122 582
61253 288385 329148 854 16131 576
61126 288230 329112 854 16123 577
60968 288105 329040 859 16113 595
60823 288008 328986 860 16104 632
60710 287938 328941 863 16098 632
60634 287902 328920 856 16088 595
60578 287881 328917 891 16145 664
60538 287861 328906 861 16136 617
60502 287845 328882 849 16127 565
60469 287842 328877 846 16125 575
60456 287857 328886 846 16117 602
60454 287862 328878 849 16110 606
60439 287841 328884 850 16101 597
60414 287812 328859 842 16098 585
60381 287771 328828 835 16102 563
60353 287765 328824 863 16150 623
60323 287760 328815 837 16136 585
60310 287761 328817 846 16118 559
60305 287768 328831 849 16105 591
60311 287784 328842 855 16095 614
60325 287812 328849 867 16088 602
60342 287832 328875 875 16084 593
60361 287860 328876 888 16083 584
60385 287887 328885 891 16079 583
60408 287922 328899 900 16087 615
60437 287951 328905 929 16097 631
60463 287977 328927 936 16094 613
60499 288005 328934 927 16091 599
60534 288041 328946 919 16094 613
60569 288085 328968 919 16088 634
60605 288110 328980 921 16075 629
60639 288145 329003 911 16071 613
60673 288190 329020 895 16077 610
60714 288236 329051 886 16086 609
60754 288288 329079 901 16100 617
60801 288343 329108 918 16117 640
60847 288393 329116 907 16133 619
60894 288385 329137 901 16133 578
60903 288284 329101 902 16131 569
60839 288138 329050 892 16123 568
60718 288004 328991 891 16106 600
60586 287885 328928 892 16094 622
60473 287805 328893 881 16083 597
60386 287757 328850 880 16082 583
60322 287723 328842 901 16108 616
60284 287693 328815 932 16163 647
60254 287671 328803 933 16181 609
60226 287653 328781 914 16150 559
60204 287642 328776 902 16117 540
60197 287652 328772 895 16098 567
60204 287650 328778 891 16104 613
60203 287640 328773 900 16108 620
60189 287627 328754 897 16101 593
60176 287618 328747 881 16094 558
60163 287611 328738 876 16107 562
60160 287618 328745 896 16116 597
60165 287624 328748 918 16109 613
60171 287638 328750 919 16100 615
60183 287663 328746 925 16084 620
60201 287675 328755 936 16095 630
60223 287715 328771 943 16109 635
60251 287754 328787 947 16101 612
60282 287787 328805 948 16089 598
60322 287823 328830 939 16085 600
60359 287860 328845 924 16086 600
60400 287905 328850 980 16124 667
60442 287939 328878 977 16112 631
60480 287982 328883 973 16105 597
60518 288027 328902 952 16109 610
60561 288055 328929 929 16115 606
60605 288093 328931 919 16110 566
60649 288134 328954 909 16102 552
60694 288188 328969 887 16104 568
60742 288231 328996 872 16109 584
60790 288270 329017 910 16130 613
60840 288329 329040 890 16111 604
60894 288386 329061 859 16101 595
60948 288410 329086 850 16112 602
60993 288366 329058 859 16121 584
60988 288254 329017 873 16116 600
60925 288124 328975 890 16116 633
60836 288016 328931 900 16105 616
60744 287938 328887 896 16078 585
60677 287894 328857 901 16090 611
60627 287861 328842 921 16142 654
60596 287848 328818 926 16153 617
60576 287827 328799 922 16124 566
60568 287821 328789 917 16105 575
60559 287813 328778 905 16099 597
60552 287833 328759 908 16095 596
60556 287832 328734 920 16090 597
60561 287809 328705 912 16087 603
60556 287790 328678 893 16090 610
60556 287777 328653 880 16114 637
60554 287763 328653 884 16134 644
60564 287769 328655 886 16123 596
60575 287789 328656 891 16104 574
60594 287808 328684 900 16093 593
60622 287841 328697 891 16097 614
60654 287879 328718 879 16106 610
60696 287920 328744 884 16110 589
60735 287959 328759 894 16112 579
60773 287994 328772 889 16106 580
60815 288035 328800 892 16108 580
60857 288083 328807 914 16121 600
60899 288129 328823 928 16124 614
60945 288166 328852 936 16114 599
60995 288214 328875 936 16102 582
61045 288264 328885 942 16092 573
61098 288309 328913 949 16090 568
61154 288358 328939 949 16095 560
61209 288415 328965 945 16096 557
61256 288460 328984 932 16091 560
61309 288502 329015 924 16089 556
61364 288566 329044 940 16120 581
61420 288620 329077 914 16112 552
61471 288686 329103 897 16118 559
61526 288727 329118 909 16130 586
61587 288760 329135 912 16129 587
61635 288693 329106 919 16119 587
61639 288572 329075 944 16104 606
61603 288469 329049 954 16099 625
61550 288387 329012 938 16087 606
61498 288342 328992 936 16108 638
61455 288323 328985 924 16126 607
61429 288312 328981 895 16126 542
61411 288327 328990 887 16122 507
61407 288332 328976 905 16109 513
61406 288329 328970 926 16091 545
61407 288354 328982 933 16084 584
61423 288397 329004 921 16087 584
61441 288401 328978 901 16082 555
61438 288371 328925 914 16108 580
61429 288353 328897 937 16146 627
61428 288328 328887 928 16129 592
61409 288290 328802 910 16102 564
61362 288234 328694 914 16107 615
61332 288187 328604 916 16114 625
61289 288134 328489 911 16114 601
61235 288058 328346 938 16103 654
61222 288029 328279 984 16080 703
61257 288050 328290 992 16067 696
61306 288080 328334 958 16081 677
61357 288108 328387 969 16090 713
61433 288164 328467 1051 16060 786
61504 288226 328545 1117 16031 822
61544 288315 328592 1147 16060 884
61577 288395 328616 1204 16063 920
61634 288448 328655 1301 16009 901
61701 288502 328699 1344 16029 889
61762 288572 328754 1269 16088 846
61820 288618 328762 1208 16117 857
61881 288671 328797 1278 16131 910
61957 288751 328868 1376 16139 943
62049 288840 328959 1425 16133 948
62148 288941 329063 1452 16109 947
62241 289052 329170 1462 16096 980
62343 289148 329263 1459 16098 1003
62439 289182 329330 1492 16104 994
62514 289130 329356 1565 16078 1032
62535 289042 329370 1630 16038 1106
62514 288965 329389 1646 16026 1135
62479 288932 329382 1624 16036 1116
62440 288911 329380 1561 16087 1109
62408 288906 329370 1565 16110 1079
62371 288903 329346 1553 16119 1060
62332 288891 329310 1518 16121 1044
62299 288910 329271 1494 16105 1050
62281 288918 329256 1512 16085 1062
62285 288967 329270 1515 16086 1064
62312 289011 329288 1479 16093 1085
62347 289030 329314 1461 16094 1125
62374 289048 329318 1471 16053 1183
62396 289076 329348 1495 16031 1150
62412 289093 329353 1522 16025 1149
62419 289109 329354 1535 16028 1138
62432 289134 329360 1562 16049 1105
62450 289145 329363 1571 16072 1086
62467 289174 329382 1569 16075 1072
62493 289215 329403 1606 16076 1081
62518 289249 329420 1642 16073 1107
62548 289281 329431 1655 16073 1099
62572 289319 329437 1646 16063 1078
62612 289362 329457 1660 16058 1089
62647 289403 329474 1664 16049 1128
62679 289445 329490 1666 16050 1138
62710 289478 329497 1677 16064 1124
62747 289523 329510 1674 16071 1109
62786 289557 329528 1665 16072 1081
62819 289599 329543 1673 16073 1048
62857 289621 329559 1646 16073 1037
62896 289678 329572 1593 16073 1024
62929 289714 329585 1575 16075 998
62969 289773 329611 1580 16083 986
63008 289800 329618 1574 16083 1019
63056 289801 329633 1566 16081 1052
63077 289718 329603 1558 16074 1035
63050 289606 329560 1543 16057 1022
62989 289499 329526 1547 16058 1030
62906 289418 329492 1559 16074 1017
62826 289371 329466 1553 16094 997
62764 289343 329449 1529 16110 1008
62713 289336 329437 1517 16107 999
62680 289343 329439 1510 16102 976
62657 289350 329443 1501 16100 984
62645 289359 329450 1493 16093 986
62635 289368 329439 1470 16083 977
62643 289389 329446 1452 16077 985
62641 289394 329447 1438 16078 985
62640 289375 329433 1408 16082 957
62624 289354 329421 1395 16080 934
62608 289356 329416 1401 16096 953
62590 289350 329408 1402 16105 976
62581 289349 329422 1411 16089 979
62575 289365 329422 1420 16084 982
62576 289385 329441 1438 16086 970
62579 289405 329456 1460 16085 940
62592 289445 329466 1478 16078 917
62610 289461 329475 1494 16063 911
62626 289487 329496 1505 16057 916
62642 289522 329500 1503 16064 934
62667 289557 329524 1483 16088 937
62690 289594 329535 1507 16081 875
62711 289627 329540 1503 16061 850
62735 289653 329562 1484 16064 879
62762 289700 329576 1488 16074 904
62787 289741 329590 1479 16066 895
62818 289795 329621 1463 16069 908
62853 289831 329635 1451 16074 927
62890 289843 329637 1421 16071 919
62902 289770 329624 1348 16094 896
62863 289661 329594 1336 16105 899
62782 289545 329550 1360 16107 877
62676 289456 329515 1384 16106 843
62575 289395 329480 1381 16097 843
62498 289359 329473 1351 16082 850
62436 289351 329454 1326 16073 854
62393 289356 329453 1321 16071 855
62368 289360 329450 1319 16079 844
62348 289376 329444 1314 16092 859
62340 289402 329464 1314 16123 899
62347 289430 329472 1297 16128 899
62351 289433 329462 1302 16105 868
62343 289417 329452 1355 16093 875
62322 289399 329449 1378 16078 893
62298 289382 329448 1371 16076 890
62270 289384 329430 1387 16083 883
62253 289391 329433 1404 16078 875
62243 289398 329442 1415 16071 887
62240 289409 329450 1433 16077 900
62240 289441 329449 1436 16088 919
62247 289465 329458 1441 16086 908
62264 289481 329466 1455 16076 873
62277 289514 329486 1464 16074 878
62290 289534 329491 1461 16071 891
62310 289563 329491 1459 16063 869
62321 289591 329491 1457 16059 839
62344 289614 329504 1431 16058 840
62368 289650 329510 1412 16067 848
62394 289690 329523 1413 16074 862
62426 289745 329547 1375 16084 880
62460 289779 329550 1360 16088 828
62483 289739 329532 1362 16090 822
62462 289629 329493 1371 16102 864
62387 289511 329457 1365 16105 877
62276 289402 329410 1355 16099 844
62160 289335 329366 1355 16092 825
62069 289287 329343 1348 16078 829
61999 289267 329325 1327 16072 850
61953 289269 329315 1312 16092 872
61923 289271 329306 1306 16111 876
61907 289287 329314 1306 16102 870
61901 289307 329313 1300 16096 869
61912 289346 329327 1307 16092 868
61921 289352 329325 1329 16079 862
61924 289342 329322 1334 16075 881
61910 289319 329315 1346 16084 881
61892 289306 329304 1372 16090 855
61866 289288 329289 1388 16088 855
61848 289281 329290 1393 16076 873
61834 289299 329284 1408 16075 874
61835 289313 329288 1424 16076 853
61837 289321 329291 1439 16084 849
61850 289353 329291 1449 16094 854
61871 289382 329314 1459 16097 835
61888 289403 329329 1460 16089 811
61909 289441 329338 1455 16076 805
61933 289478 329347 1476 16068 797
61961 289508 329372 1487 16072 812
61989 289547 329385 1480 16089 842
62019 289580 329384 1485 16095 847
62056 289624 329405 1482 16079 840
62094 289661 329418 1454 16057 826
62135 289659 329421 1412 16048 817
62142 289584 329394 1401 16065 829
62086 289457 329346 1417 16087 816
61980 289338 329300 1413 16100 776
61855 289242 329254 1385 16102 754
61749 289182 329208 1351 16105 769
61666 289142 329184 1328 16118 800
61611 289122 329174 1301 16112 818
61581 289122 329173 1281 16099 799
61566 289125 329150 1287 16092 783
61552 289129 329154 1292 16098 804
61554 289158 329172 1284 16100 799
61571 289166 329178 1292 16078 772
61576 289167 329168 1320 16074 799
61569 289161 329171 1363 16085 827
61552 289143 329165 1392 16085 830
61525 289125 329145 1383 16090 842
61498 289116 329124 1399 16091 822
61454 289120 329086 1419 16079 792
61406 289139 329055 1412 16072 785
61373 289155 329068 1420 16069 795
61362 289195 329074 1434 16069 802
61351 289250 329093 1465 16074 777
61345 289301 329121 1520 16076 782
61347 289360 329165 1578 16084 824
61359 289402 329215 1620 16094 830
61384 289469 329250 1622 16110 839
61409 289532 329285 1617 16108 858
61451 289579 329320 1631 16086 840
61490 289631 329358 1639 16082 815
61524 289682 329381 1635 16090 837
61574 289733 329413 1610 16088 851
61619 289757 329426 1570 16083 808
61654 289713 329420 1536 16095 761
61626 289598 329371 1544 16116 749
61540 289465 329322 1567 16115 758
61425 289358 329278 1622 16110 839
61318 289274 329229 1617 16108 858
61230 289223 329209 1631 16086 840
61159 289193 329176 1639 16082 815
61080 289169 329113 1635 16090 837
61008 289165 329050 1610 16088 851
60988 289176 329071 1570 16083 808
61004 289213 329121 1536 16095 761
61044 289275 329190 1544 16116 749
61072 289303 329218 1567 16115 758
61062 289304 329220 1525 16124 769
61027 289285 329212 1522 16100 793
60984 289290 329191 1556 16073 791
60930 289279 329159 1582 16045 778
60887 289297 329143 1565 16033 813
60847 289330 329143 1533 16046 846
60817 289365 329151 1552 16069 846
60794 289415 329154 1577 16081 827
60780 289456 329179 1579 16071 785
60779 289519 329208 1597 16085 807
60788 289575 329249 1648 16072 815
60801 289617 329284 1690 16058 825
60820 289689 329309 1698 16051 844
60839 289742 329342 1725 16047 849
60866 289801 329354 1772 16055 839
60893 289859 329385 1787 16073 840
60922 289928 329413 1803 16084 851
60958 289983 329461 1848 16078 862
61002 290048 329489 1887 16067 861
61046 290098 329527 1896 16066 864
61094 290159 329551 1907 16067 890
61143 290150 329570 1928 16070 879
61158 290080 329561 1935 16065 865
61110 289990 329526 1937 16043 865
61046 289903 329524 1944 16039 864
60983 289852 329511 1948 16068 846
60934 289826 329504 1953 16082 824
60907 289802 329484 1966 16063 850
60898 289795 329477 1978 16045 883
60904 289796 329486 1929 16047 880
60927 289813 329522 1900 16058 838
60943 289832 329527 1940 16068 810
60970 289862 329541 1957 16072 818
61009 289880 329552 1946 16066 803
61046 289882 329565 1944 16053 778
61066 289879 329570 1954 16045 784
61096 289863 329563 1960 16035 815
61124 289854 329556 1957 16028 853
61148 289853 329561 1935 16033 859
61161 289848 329569 1819 16060 872
61178 289859 329562 1819 16087 868
61193 289876 329573 1806 16077 865
61206 289906 329571 1812 16056 858
61217 289932 329581 1846 16054 872
61238 289953 329594 1876 16049 871
61255 289984 329585 1892 16036 862
61281 290015 329586 1909 16037 859
61309 290045 329614 1916 16053 849
61340 290084 329618 1871 16067 871
61370 290119 329630 1840 16067 897
61405 290151 329644 1850 16062 903
61447 290198 329657 1853 16061 912
61496 290242 329694 1855 16045 920
61540 290296 329719 1894 16044 933
61597 290355 329755 1949 16049 948
61649 290393 329767 1981 16035 939
61703 290385 329777 1990 16027 926
61728 290298 329763 1985 16029 924
61707 290202 329722 1936 16087 953
61660 290118 329694 1929 16087 946
61610 290062 329673 1928 16076 965
61571 290032 329641 1920 16056 1006
61553 290021 329642 1914 16048 995
61545 290023 329651 1918 16045 927
61545 290030 329640 1925 16035 896
61551 290037 329629 1939 16048 911
61553 290049 329623 1945 16065 912
61572 290086 329633 1931 16072 922
61594 290090 329641 1906 16073 942
61611 290096 329636 1919 16069 943
61622 290086 329635 1947 16060 942
61626 290087 329626 1945 16049 953
61619 290069 329623 1942 16038 952
61618 290076 329627 1950 16040 935
61621 290088 329624 1942 16061 930
61626 290113 329630 1939 16069 907
61636 290137 329631 1962 16061 880
61644 290164 329653 1978 16061 901
61657 290202 329663 1981 16060 957
61672 290229 329672 1988 16048 993
61694 290261 329697 2000 16036 1005
61706 290293 329698 2000 16029 1031
61717 290326 329704 1989 16036 1039
61725 290361 329701 2001 16054 1007
61754 290412 329740 2033 16049 964
61796 290458 329791 2061 16041 956
61848 290510 329840 2070 16038 977
61898 290580 329903 2066 16034 1011
61947 290630 329954 2116 16009 1039
61971 290671 329960 2112 16022 1019
61983 290649 329926 2121 16026 1027
61976 290554 329884 2150 16019 1056
61935 290458 329833 2154 16014 1049
61881 290363 329791 2118 16022 1025
61819 290312 329753 2096 16043 1033
61767 290279 329712 2145 16021 1069
61729 290275 329716 2224 15981 1111
61709 290285 329729 2212 16059 1139
61709 290298 329745 2271 16053 1190
61690 290241 329684 2311 16022 1207
61646 290183 329567 2321 15996 1205
61601 290056 329359 2334 15997 1246
61593 290019 329311 2391 15993 1320
61634 290077 329423 2568 15988 1429
61667 290125 329508 2716 16019 1503
61677 290123 329518 2710 16045 1490
61671 290114 329500 2772 16007 1524
61665 290083 329480 2886 15936 1606
61672 290086 329472 2900 15929 1644
61679 290099 329466 2946 15945 1667
61697 290110 329476 3072 15902 1701
61719 290140 329487 3165 15917 1717
61743 290172 329514 3217 15981 1727
61766 290210 329531 3294 15970 1772
61794 290231 329567 3371 15916 1815
61823 290264 329573 3411 15913 1826
61849 290275 329574 3416 15905 1832
61863 290283 329539 3445 15784 1847
61851 290273 329476 3549 15695 1862
61819 290272 329375 3625 15764 1863
61831 290304 329357 3632 15835 1859
61892 290370 329427 3637 15866 1856
61966 290438 329495 3661 15870 1846
62036 290473 329557 3688 15848 1829
62081 290440 329557 3715 15822 1813
62065 290351 329509 3722 15796 1801
62008 290255 329465 3685 15793 1813
61932 290193 329437 3604 15822 1857
61857 290143 329401 3567 15860 1868
61783 290093 329355 3626 15847 1856
61725 290076 329339 3705 15784 1837
61689 290070 329330 3699 15766 1787
61675 290067 329335 3641 15844 1739
61665 290066 329337 3592 15900 1716
61649 290091 329339 3581 15899 1725
61658 290113 329349 3615 15879 1725
61666 290103 329342 3594 15861 1715
61662 290091 329339 3537 15851 1769
61655 290077 329321 3562 15869 1739
61638 290057 329309 3560 15858 1703
61624 290042 329295 3551 15863 1698
61613 290034 329282 3522 15898 1679
61612 290041 329284 3497 15911 1655
61611 290056 329279 3488 15918 1662
61613 290054 329276 3478 15912 1688
61619 290066 329275 3472 15906 1705
61629 290077 329289 3438 15885 1692
61651 290099 329294 3402 15858 1678
61665 290111 329285 3422 15859 1681
61677 290122 329275 3459 15871 1695
61688 290136 329275 3481 15868 1685
61706 290156 329271 3481 15876 1683
61726 290182 329279 3481 15910 1695
61741 290198 329267 3485 15913 1695
61762 290214 329277 3495 15886 1699
61786 290229 329265 3514 15871 1704
61817 290223 329270 3443 15823 1718
61812 290134 329234 3460 15836 1705
61762 290012 329181 3493 15879 1713
61670 289901 329154 3488 15885 1728
61575 289827 329124 3471 15880 1721
61486 289771 329094 3438 15892 1694
61414 289734 329063 3410 15880 1671
61355 289703 329054 3409 15884 1681
61307 289683 329019 3419 15916 1694
61271 289651 329006 3406 15914 1688
61242 289643 328991 3369 15887 1682
61224 289656 329004 3366 15892 1673
61223 289646 329001 3372 15912 1669
61210 289645 329003 3367 15897 1664
61190 289620 328981 3359 15880 1657
61166 289600 328969 3339 15898 1653
61143 289578 328950 3317 15924 1657
61118 289567 328956 3312 15930 1646
61101 289559 328948 3313 15922 1603
61091 289557 328941 3303 15929 1594
61088 289577 328941 3266 15909 1627
61089 289586 328949 3248 15892 1648
61094 289596 328948 3263 15907 1650
61097 289604 328959 3266 15896 1638
61109 289616 328948 3277 15880 1614
61122 289635 328962 3294 15884 1613
61133 289657 328981 3293 15897 1611
61150 289677 328975 3279 15925 1595
61174 289704 328982 3267 15945 1595
61194 289733 328995 3262 15942 1590
61215 289765 329001 3214 15892 1587
61242 289789 328998 3228 15922 1591
61272 289812 329013 3240 15925 1586
61280 289752 328983 3235 15920 1580
61231 289626 328938 3238 15935 1586
61136 289508 328887 3247 15947 1630
61027 289401 328845 3249 15943 1660
60924 289332 328806 3249 15929 1645
60838 289283 328783 3237 15906 1630
60771 289249 328758 3217 15884 1640
60725 289228 328728 3211 15887 1661
60689 289211 328730 3230 15909 1646
60662 289198 328718 3230 15919 1613
60636 289211 328714 3211 15904 1599
60641 289224 328724 3192 15888 1630
60636 289215 328714 3189 15885 1668
60621 289213 328707 3189 15897 1671
60605 289178 328693 3173 15929 1652
60585 289157 328688 3169 15957 1652
60562 289158 328687 3133 15894 1620
60551 289164 328692 3151 15906 1603
60544 289157 328683 3167 15945 1611
60550 289174 328689 3158 15933 1612
60552 289198 328697 3148 15918 1606
60563 289210 328711 3141 15933 1609
60578 289235 328722 3139 15940 1615
60592 289251 328735 3151 15946 1602
60608 289277 328751 3151 15961 1577
60630 289303 328750 3129 15944 1566
60654 289332 328777 3102 15914 1547
60682 289355 328786 3107 15919 1533
60707 289389 328796 3139 15939 1526
60736 289424 328801 3152 15942 1513
60765 289446 328820 3142 15939 1513
60796 289477 328832 3135 15943 1525
60823 289512 328838 3129 15948 1516
60859 289561 328853 3113 15973 1493
60898 289599 328876 3099 15997 1501
60937 289586 328887 3105 16000 1521
60930 289501 328872 3095 15978 1527
60863 289369 328826 3089 15956 1532
60756 289266 328788 3101 15952 1546
60653 289178 328748 3077 15940 1541
60569 289128 328715 3021 15927 1491
60503 289090 328701 3010 15953 1468
60461 289074 328692 3031 15991 1498
60433 289065 328693 3025 15999 1496
60419 289061 328696 3019 15997 1472
60411 289068 328701 3018 15987 1469
60407 289095 328717 3009 15949 1484
60424 289102 328723 3013 15926 1508
60429 289103 328721 3024 15948 1521
60423 289085 328709 3014 15961 1512
60411 289077 328709 3001 15956 1507
60406 289067 328708 2989 15958 1529
60395 289065 328703 2984 15962 1526
60391 289071 328708 2992 15973 1527
60394 289075 328712 3003 15983 1546
60402 289090 328723 3004 15976 1549
60417 289118 328732 2991 15942 1545
60439 289140 328745 3001 15947 1552
60456 289175 328758 3009 15939 1541
60485 289207 328774 2997 15926 1513
60514 289250 328805 2993 15936 1513
60546 289290 328815 3010 15963 1535
60578 289313 328839 3024 15969 1555
60612 289356 328857 3028 15960 1569
60650 289388 328879 3032 15944 1568
60691 289427 328895 3043 15934 1547
60728 289472 328911 3040 15911 1527
60767 289508 328935 3022 15920 1535
60805 289551 328954 3004 15964 1548
60845 289589 328973 2983 15951 1531
60881 289628 328990 2960 15946 1511
60925 289687 329024 2948 15972 1503
60975 289727 329037 2954 15977 1493
61024 289741 329064 2965 15979 1495
61048 289687 329061 2978 15985 1489
61012 289572 329040 2982 15999 1517
60948 289484 329021 2974 15963 1571
60873 289431 329019 2968 15926 1550
60813 289413 329025 2954 15933 1501
60777 289416 329034 2935 15928 1491
60775 289442 329082 2920 15933 1521
60777 289481 329118 2916 15947 1509
60795 289523 329158 2925 15959 1468
60813 289552 329181 2933 15985 1473
60837 289592 329217 2931 15997 1504
60885 289635 329241 2930 15980 1546
60916 289644 329273 2933 15935 1563
60941 289646 329287 2924 15890 1562
60953 289647 329293 2910 15899 1579
60950 289659 329290 2887 15920 1575
60945 289633 329285 2870 15925 1553
60937 289642 329266 2857 15943 1552
60943 289646 329266 2838 15970 1529
60966 289665 329261 2847 15998 1521
60993 289691 329295 2867 16023 1547
61035 289723 329332 2906 16021 1579
61076 289748 329350 2915 15936 1603
61117 289762 329366 2879 15941 1593
61162 289787 329371 2845 15960 1578
61206 289801 329377 2845 15954 1567
61251 289820 329384 2871 15942 1577
61303 289849 329400 2901 15947 1594
61360 289880 329423 2936 15967 1620
61419 289914 329446 2958 15975 1648
61471 289950 329459 2952 15969 1666
61524 289988 329459 2940 15956 1699
61577 290030 329487 2925 15914 1721
61633 290071 329502 2891 15901 1724
61699 290118 329527 2845 15923 1721
61761 290135 329536 2813 15914 1716
61817 290090 329516 2797 15917 1725
61827 289980 329476 2759 15958 1754
61805 289882 329441 2720 15980 1772
61766 289795 329395 2708 15972 1774
61724 289741 329348 2694 15952 1761
61693 289716 329329 2686 15947 1771
61674 289706 329307 2712 15936 1821
61678 289706 329312 2710 15933 1825
61692 289737 329316 2656 15946 1799
61712 289760 329320 2640 15924 1793
61733 289805 329331 2621 15925 1785
61766 289836 329340 2566 15956 1791
61798 289842 329351 2515 15967 1797
61825 289853 329345 2464 15948 1774
61835 289842 329324 2426 15950 1741
61848 289847 329320 2405 15977 1713
61862 289860 329324 2441 15935 1670
61875 289882 329342 2425 15945 1673
61893 289901 329344 2450 15948 1680
61923 289931 329364 2498 15959 1672
61955 289966 329383 2502 15983 1649
61982 290011 329390 2503 15999 1626
62014 290040 329403 2527 16003 1628
62046 290082 329417 2544 15994 1642
62087 290119 329439 2570 15992 1641
62127 290159 329456 2655 15968 1613
62166 290181 329463 2657 15973 1607
62211 290229 329474 2651 15972 1608
62258 290264 329498 2658 15955 1591
62302 290303 329506 2663 15960 1583
62341 290335 329525 2650 15974 1592
62387 290371 329530 2643 15978 1588
62432 290410 329544 2623 15980 1594
62478 290450 329567 2578 15975 1613
62522 290495 329603 2536 15979 1530
62568 290520 329616 2520 15977 1524
62602 290476 329603 2526 15980 1558
62602 290362 329563 2527 15955 1556
62571 290260 329540 2505 15929 1533
62534 290188 329531 2507 15952 1528
62495 290146 329535 2499 15988 1544
62452 290129 329530 2488 15996 1543
62423 290122 329502 2467 15992 1497
62404 290123 329499 2441 15988 1467
62388 290123 329487 2445 15978 1488
62382 290121 329469 2449 15978 1515
62379 290143 329455 2452 15983 1524
62391 290184 329454 2458 15976 1527
62409 290191 329449 2464 15987 1536
62430 290187 329434 2442 16012 1543
62445 290181 329424 2410 16012 1533
62455 290180 329427 2390 16006 1548
62465 290170 329415 2385 16010 1573
62476 290177 329406 2405 15997 1573
62487 290179 329410 2446 15965 1561
62500 290202 329406 2461 15947 1545
62518 290228 329426 2427 15951 1537
62537 290271 329442 2416 15949 1525
62560 290302 329463 2415 15957 1499
62585 290334 329469 2386 15988 1496
62614 290363 329481 2359 16010 1507
62642 290404 329498 2362 16013 1507
62674 290431 329510 2382 15999 1510
62705 290479 329528 2393 15982 1515
62740 290519 329551 2464 15956 1529
62781 290571 329575 2446 15980 1551
62819 290626 329606 2460 15982 1545
62853 290667 329620 2479 15965 1512
62895 290723 329649 2486 15963 1519
62931 290768 329652 2502 15961 1543
62958 290825 329662 2523 15958 1540
62993 290870 329679 2542 15967 1521
63024 290898 329688 2545 15983 1519
63069 290867 329682 2565 15964 1558
63091 290761 329663 2499 15970 1516
63067 290643 329621 2497 15970 1495
63031 290564 329603 2538 15976 1522
62984 290528 329609 2552 15999 1531
62947 290514 329606 2521 16006 1520
62916 290523 329613 2459 15997 1510
62892 290552 329621 2416 15992 1486
62882 290594 329628 2399 16000 1489
62887 290621 329641 2447 15993 1509
62893 290657 329644 2426 15990 1503
62912 290701 329666 2400 15988 1496
62931 290732 329681 2413 15971 1467
62947 290732 329678 2430 15980 1458
62963 290728 329678 2441 16010 1469
62973 290727 329687 2453 16022 1452
62974 290723 329670 2455 16023 1435
62976 290737 329695 2439 16015 1441
62978 290751 329698 2448 15999 1439
62987 290777 329706 2521 15966 1456
62996 290798 329707 2568 15945 1479
63008 290837 329723 2570 15953 1473
63025 290861 329723 2588 15957 1455
63040 290885 329734 2620 15962 1428
63059 290911 329726 2641 15981 1428
63082 290957 329752 2652 15990 1451
63108 290984 329752 2653 15986 1471
63135 291024 329765 2649 15978 1490
63160 291058 329765 2652 15968 1491
63186 291074 329770 2667 15945 1480
63215 291118 329788 2675 15938 1479
63239 291146 329790 2644 15968 1459
63269 291194 329803 2634 15972 1414
63292 291228 329799 2667 15970 1424
63323 291276 329811 2676 15985 1452
63358 291301 329840 2671 15994 1452
63397 291276 329820 2672 15992 1440
63410 291165 329785 2678 15992 1447
63390 291026 329751 2694 16001 1470
63332 290921 329716 2700 15983 1417
63259 290845 329682 2654 15988 1396
63179 290796 329645 2634 15966 1378
63117 290770 329621 2607 15949 1389
63072 290766 329619 2562 15964 1419
63041 290781 329614 2492 15982 1408
63017 290801 329599 2442 16005 1368
63003 290821 329600 2432 16036 1361
63000 290860 329607 2433 16050 1354
63010 290885 329616 2480 16031 1350
63011 290867 329603 2533 16023 1371
63007 290841 329583 2532 16018 1381
62991 290811 329574 2535 16003 1379
62973 290804 329564 2539 16000 1373
62953 290791 329542 2515 15999 1374
62934 290797 329534 2475 15993 1385
62920 290796 329531 2451 15997 1388
62913 290816 329539 2460 15992 1384
62911 290840 329534 2477 15988 1395
62910 290852 329536 2566 15971 1422
62914 290870 329537 2567 15975 1425
62927 290890 329534 2564 15973 1409
62937 290908 329536 2575 15962 1390
62951 290934 329536 2555 15976 1390
62966 290965 329534 2528 15995 1394
62979 290989 329536 2526 16001 1385
62996 291020 329544 2548 15993 1374
63016 291044 329552 2579 15995 1374
63033 291090 329555 2603 15992 1423
63050 291120 329570 2616 15967 1461
63082 291165 329580 2575 15963 1432
63112 291186 329588 2532 15951 1381
63136 291117 329572 2548 15951 1361
63118 290993 329542 2577 15986 1358
63048 290851 329492 2565 15996 1353
62943 290746 329454 2529 16006 1345
62829 290660 329420 2516 16009 1325
62727 290609 329386 2501 15996 1318
62638 290580 329367 2492 15975 1342
62573 290574 329353 2522 15943 1360
62523 290569 329340 2524 15948 1349
62486 290567 329324 2495 15983 1339
62461 290573 329318 2464 15992 1317
62451 290607 329318 2428 15985 1287
62450 290600 329324 2429 15986 1274
62432 290583 329305 2436 15990 1274
62411 290574 329286 2450 15987 1296
62377 290546 329277 2478 15986 1306
62343 290510 329250 2489 15981 1303
62304 290509 329247 2522 15943 1360
62275 290493 329232 2524 15948 1349
62254 290506 329238 2495 15983 1339
62244 290523 329233 2464 15992 1317
62235 290539 329241 2428 15985 1287
62236 290554 329235 2429 15986 1274
62236 290575 329251 2436 15990 1274
62243 290605 329256 2450 15987 1296
62253 290625 329266 2478 15986 1306
62262 290652 329272 2489 15981 1303
62276 290670 329271 2548 15985 1327
62285 290689 329273 2515 15999 1321
62304 290725 329278 2507 15996 1307
62321 290757 329289 2501 15995 1287
62341 290798 329314 2490 16008 1281
62366 290843 329321 2495 16019 1283
62395 290845 329329 2502 16021 1284
62400 290769 329299 2490 16012 1285
62341 290632 329270 2483 16004 1284
62228 290492 329222 2523 15986 1294
62085 290390 329188 2553 15977 1298
61950 290311 329133 2554 15981 1271
61832 290252 329107 2563 15986 1262
61742 290228 329080 2565 15998 1280
61677 290202 329069 2548 16009 1289
61630 290195 329051 2500 16002 1259
61594 290188 329047 2480 15998 1236
61568 290201 329050 2504 16007 1264
61560 290229 329053 2515 16015 1270
61553 290215 329042 2558 16028 1223
61533 290207 329034 2547 16016 1226
61506 290172 329032 2539 16000 1234
61465 290151 329020 2510 15971 1250
61431 290142 328999 2447 15954 1246
61401 290122 328992 2408 15967 1234
61380 290130 329003 2397 15987 1246
61364 290140 329005 2389 15998 1223
61356 290155 329008 2377 16003 1177
61358 290172 329021 2403 16009 1185
61362 290180 329023 2456 16006 1196
61367 290202 329026 2474 16010 1183
61385 290233 329051 2482 16003 1186
61403 290256 329055 2503 15997 1211
61422 290285 329077 2525 16005 1217
61440 290321 329084 2529 16004 1207
61465 290348 329095 2518 16007 1206
61493 290386 329128 2525 16011 1218
61521 290425 329140 2529 16011 1224
61550 290462 329169 2538 16011 1226
61590 290502 329186 2586 15991 1239
61628 290522 329212 2610 15986 1252
61638 290459 329193 2595 15998 1246
61580 290333 329161 2591 16003 1232
61473 290198 329122 2575 16010 1213
61352 290115 329102 2544 16009 1203
61245 290046 329070 2513 16009 1199
61163 290013 329052 2488 16018 1216
61113 289999 329037 2455 16029 1248
61087 289991 329038 2417 16028 1231
61080 290011 329050 2479 15987 1202
61073 290018 329055 2469 16005 1217
61077 290051 329079 2458 16008 1208
61107 290092 329107 2447 16006 1175
61124 290101 329116 2415 16002 1165
61129 290098 329121 2386 15993 1186
61126 290092 329118 2376 15992 1213
61121 290083 329132 2380 15986 1238
61113 290072 329126 2381 15972 1225
61114 290089 329140 2410 16008 1224
61116 290101 329149 2430 16045 1241
61125 290121 329162 2396 16031 1206
61148 290151 329193 2387 16009 1179
61172 290183 329197 2370 16012 1196
61200 290216 329214 2347 16030 1200
61231 290253 329233 2348 16032 1188
61263 290292 329252 2364 16025 1182
61303 290323 329286 2396 16023 1170
61340 290356 329301 2427 16022 1174
61379 290386 329323 2504 16000 1179
61419 290417 329335 2497 15998 1166
61460 290467 329346 2491 15992 1169
61505 290506 329365 2478 15992 1160
61550 290556 329390 2454 16005 1154
61600 290608 329417 2452 16007 1158
61652 290654 329443 2462 16000 1143
61702 290643 329445 2467 15998 1145
61722 290568 329427 2470 16002 1168
61676 290442 329397 2499 16001 1180
61601 290339 329369 2528 15998 1172
61514 290262 329337 2525 16008 1174
61440 290218 329314 2510 16002 1196
61396 290204 329305 2502 15994 1197
61378 290205 329296 2473 16009 1177
61371 290216 329304 2456 16012 1180
61388 290240 329312 2461 16019 1204
61401 290256 329318 2462 16032 1202
61429 290302 329345 2467 16032 1167
61471 290323 329352 2460 16009 1145
61500 290328 329355 2464 15987 1160
61518 290319 329365 2449 15996 1173
61526 290310 329347 2419 16010 1178
61531 290298 329351 2421 16011 1174
61535 290303 329362 2425 16027 1165
61545 290323 329363 2421 16040 1168
61564 290340 329381 2418 16025 1157
61588 290368 329382 2417 16006 1155
61618 290384 329394 2435 16005 1182
61652 290421 329414 2454 16010 1212
61690 290447 329419 2532 15988 1233
61730 290469 329422 2520 15990 1202
61767 290503 329445 2521 15980 1209
61807 290529 329443 2521 15983 1217
61852 290559 329455 2504 15984 1208
61899 290593 329471 2494 15988 1228
61943 290639 329489 2501 16000 1253
61988 290671 329494 2494 16008 1243
62036 290720 329521 2487 16006 1203
62091 290769 329548 2517 15982 1197
62144 290783 329558 2541 15980 1216
62192 290743 329545 2529 16001 1218
62204 290648 329531 2528 16010 1218
62176 290542 329497 2516 16021 1194
62126 290468 329471 2497 16020 1203
62080 290432 329450 2489 15995 1235
62051 290410 329437 2482 15985 1231
62038 290412 329434 2482 15999 1219
62043 290428 329427 2467 15998 1216
62060 290443 329446 2522 15979 1242
62083 290459 329451 2502 15990 1222
62112 290504 329470 2472 15992 1206
