Time(s)	RED_denoised_wiener
0.000000	55.171557
0.010000	85.722302
0.020000	87.296589
0.030000	100.288885
0.040000	108.649789
0.050000	123.916511
0.060000	147.293161
0.070000	172.174517
0.080000	189.916036
0.090000	186.402545
0.100000	154.208940
0.110000	106.338273
0.120000	51.474848
0.130000	16.308257
0.140000	-6.033352
0.150000	-23.072204
0.160000	-34.201279
0.170000	-46.154947
0.180000	-57.027658
0.190000	-69.933724
0.200000	-74.833550
0.210000	-71.421607
0.220000	-76.368503
0.230000	-91.885606
0.240000	-108.888322
0.250000	-116.025999
0.260000	-114.124261
0.270000	-111.536472
0.280000	-110.024895
0.290000	-106.382820
0.300000	-100.617269
0.310000	-89.570111
0.320000	-79.251183
0.330000	-67.752069
0.340000	-58.248865
0.350000	-51.610883
0.360000	-40.239870
0.370000	-26.513731
0.380000	-8.234995
0.390000	0.856242
0.400000	7.141687
0.410000	12.530417
0.420000	17.831782
0.430000	24.857059
0.440000	34.836610
0.450000	50.838355
0.460000	73.818526
0.470000	95.443639
0.480000	118.814628
0.490000	146.697394
0.500000	168.423169
0.510000	183.628736
0.520000	180.984146
0.530000	159.905426
0.540000	126.211819
0.550000	84.494459
0.560000	55.800343
0.570000	29.980067
0.580000	18.095991
0.590000	12.396136
0.600000	6.042889
0.610000	-2.524627
0.620000	-21.045235
0.630000	-32.395220
0.640000	-39.540048
0.650000	-41.606846
0.660000	-45.073356
0.670000	-50.487219
0.680000	-54.948958
0.690000	-51.708842
0.700000	-50.220953
0.710000	-44.907795
0.720000	-42.879804
0.730000	-44.105868
0.740000	-48.557459
0.750000	-59.331382
0.760000	-74.908018
0.770000	-95.246600
0.780000	-114.261006
0.790000	-132.866808
0.800000	-147.286924
0.810000	-168.546881
0.820000	-187.276088
0.830000	-207.282470
0.840000	-225.265101
0.850000	-242.717321
0.860000	-262.610988
0.870000	-277.476358
0.880000	-293.346875
0.890000	-304.890472
0.900000	-310.780103
0.910000	-314.002819
0.920000	-316.229473
0.930000	-332.505031
0.940000	-369.341913
0.950000	-424.335959
0.960000	-488.790309
0.970000	-541.820017
0.980000	-581.644478
0.990000	-604.318123
1.000000	-617.884926
1.010000	-628.831987
1.020000	-640.470034
1.030000	-654.026858
1.040000	-666.062390
1.050000	-676.918858
1.060000	-682.663076
1.070000	-690.194010
1.080000	-693.916170
1.090000	-696.177691
1.100000	-697.183405
1.110000	-693.504733
1.120000	-685.480969
1.130000	-675.524084
1.140000	-668.137527
1.150000	-659.540558
1.160000	-644.142278
1.170000	-629.613242
1.180000	-619.154488
1.190000	-611.025364
1.200000	-598.171724
1.210000	-580.810346
1.220000	-567.899123
1.230000	-559.256310
1.240000	-549.631945
1.250000	-529.376122
1.260000	-503.089760
1.270000	-473.844165
1.280000	-441.223675
1.290000	-405.332556
1.300000	-378.075494
1.310000	-358.136699
1.320000	-358.986553
1.330000	-375.575169
1.340000	-405.255970
1.350000	-431.995187
1.360000	-448.902040
1.370000	-464.475570
1.380000	-469.183235
1.390000	-467.679452
1.400000	-455.791264
1.410000	-436.921765
1.420000	-407.063103
1.430000	-357.836109
1.440000	-297.731849
1.450000	-243.456789
1.460000	-207.405723
1.470000	-162.318720
1.480000	-88.450262
1.490000	16.421332
1.500000	123.737580
1.510000	232.220041
1.520000	339.573167
1.530000	445.006897
1.540000	538.701437
1.550000	631.167213
1.560000	708.079251
1.570000	788.737771
1.580000	855.005589
1.590000	934.418577
1.600000	999.766484
1.610000	1067.203521
1.620000	1107.387561
1.630000	1147.462182
1.640000	1169.536951
1.650000	1204.841178
1.660000	1214.479241
1.670000	1228.394822
1.680000	1210.559307
1.690000	957.808447
1.700000	672.405326
1.710000	397.103092
1.720000	351.389256
1.730000	328.880581
1.740000	298.173007
1.750000	289.145645
1.760000	264.758910
1.770000	254.579621
1.780000	234.516764
1.790000	231.807253
1.800000	222.453265
1.810000	220.458644
1.820000	214.974239
1.830000	217.490808
1.840000	207.727377
1.850000	202.277023
1.860000	199.082072
1.870000	207.748063
1.880000	209.678776
1.890000	214.616410
1.900000	222.233970
1.910000	235.814155
1.920000	241.728869
1.930000	247.054921
1.940000	254.865593
1.950000	267.613467
1.960000	279.967085
1.970000	294.513237
1.980000	313.052554
1.990000	330.045643
2.000000	346.475390
2.010000	368.912837
2.020000	383.829111
2.030000	394.478871
2.040000	384.448203
2.050000	359.759230
2.060000	315.690465
2.070000	264.739537
2.080000	226.270881
2.090000	202.993361
2.100000	191.487029
2.110000	184.221762
2.120000	177.031581
2.130000	170.783114
2.140000	165.559741
2.150000	161.664124
2.160000	159.741190
2.170000	157.188523
2.180000	152.912385
2.190000	143.358391
2.200000	136.099660
2.210000	134.836429
2.220000	138.258602
2.230000	146.637527
2.240000	154.052541
2.250000	162.445510
2.260000	172.160667
2.270000	187.583117
2.280000	202.558321
2.290000	209.368187
2.300000	209.299078
2.310000	213.164409
2.320000	227.680177
2.330000	246.242253
2.340000	260.040032
2.350000	267.992751
2.360000	275.067863
2.370000	288.734755
2.380000	300.703646
2.390000	308.142922
2.400000	319.020195
2.410000	332.511309
2.420000	353.670519
2.430000	373.491971
2.440000	388.988188
2.450000	401.134253
2.460000	402.266121
2.470000	386.097562
2.480000	348.199646
2.490000	297.748642
2.500000	259.492922
2.510000	238.328754
2.520000	234.089088
2.530000	237.533981
2.540000	235.992435
2.550000	229.423738
2.560000	220.553119
2.570000	218.313517
2.580000	215.719619
2.590000	207.189918
2.600000	193.553052
2.610000	175.715754
2.620000	163.393124
2.630000	153.856417
2.640000	150.231504
2.650000	149.629341
2.660000	150.388593
2.670000	153.725393
2.680000	152.838772
2.690000	156.512578
2.700000	163.242240
2.710000	172.283280
2.720000	181.623536
2.730000	189.034580
2.740000	203.015368
2.750000	222.406971
2.760000	244.717702
2.770000	260.741625
2.780000	271.428508
2.790000	278.391890
2.800000	285.793305
2.810000	299.694235
2.820000	318.450334
2.830000	335.964280
2.840000	342.744503
2.850000	343.920808
2.860000	352.707060
2.870000	362.468866
2.880000	370.660080
2.890000	363.632184
2.900000	339.624692
2.910000	293.097245
2.920000	238.288933
2.930000	192.549331
2.940000	158.223623
2.950000	132.966704
2.960000	108.118980
2.970000	88.398669
2.980000	72.308287
2.990000	66.831456
3.000000	66.440597
3.010000	68.582949
3.020000	65.869997
3.030000	66.353727
3.040000	64.906577
3.050000	59.108489
3.060000	51.934358
3.070000	46.172288
3.080000	50.287116
3.090000	60.177460
3.100000	70.946744
3.110000	75.485441
3.120000	79.617280
3.130000	85.759285
3.140000	92.920174
3.150000	100.007735
3.160000	103.524509
3.170000	112.264489
3.180000	118.725127
3.190000	129.200007
3.200000	138.200751
3.210000	148.799565
3.220000	159.972145
3.230000	169.034747
3.240000	176.057777
3.250000	181.243454
3.260000	192.136563
3.270000	204.058064
3.280000	219.875374
3.290000	236.829671
3.300000	250.582113
3.310000	251.224735
3.320000	240.626433
3.330000	216.246069
3.340000	179.319322
3.350000	128.899414
3.360000	77.353261
3.370000	35.519521
3.380000	1.322496
3.390000	-24.214620
3.400000	-50.098770
3.410000	-78.626809
3.420000	-106.200514
3.430000	-138.762064
3.440000	-179.324602
3.450000	-230.593721
3.460000	-284.115475
3.470000	-331.790643
3.480000	-376.968940
3.490000	-412.322905
3.500000	-444.893383
3.510000	-472.528282
3.520000	-495.188841
3.530000	-512.431264
3.540000	-522.178705
3.550000	-528.717453
3.560000	-529.181487
3.570000	-526.051051
3.580000	-524.223795
3.590000	-525.074685
3.600000	-524.283660
3.610000	-520.473082
3.620000	-511.708825
3.630000	-506.600747
3.640000	-499.461838
3.650000	-493.787550
3.660000	-485.561606
3.670000	-477.694229
3.680000	-468.349317
3.690000	-452.292680
3.700000	-426.176771
3.710000	-400.630867
3.720000	-384.367091
3.730000	-381.992691
3.740000	-390.571715
3.750000	-400.370977
3.760000	-424.206845
3.770000	-446.372933
3.780000	-476.279738
3.790000	-492.993756
3.800000	-503.464854
3.810000	-516.655841
3.820000	-531.658682
3.830000	-546.350500
3.840000	-550.198739
3.850000	-551.800440
3.860000	-556.766747
3.870000	-565.605923
3.880000	-573.021774
3.890000	-574.115527
3.900000	-564.314122
3.910000	-553.367623
3.920000	-543.956929
3.930000	-538.990270
3.940000	-532.612309
3.950000	-531.684535
3.960000	-528.932262
3.970000	-524.770023
3.980000	-513.605858
3.990000	-499.251511
4.000000	-487.321273
4.010000	-471.403531
4.020000	-456.438117
4.030000	-441.242339
4.040000	-430.274074
4.050000	-424.107449
4.060000	-419.135528
4.070000	-410.004751
4.080000	-397.049600
4.090000	-379.602967
4.100000	-365.356964
4.110000	-351.208531
4.120000	-332.697594
4.130000	-313.205954
4.140000	-301.757367
4.150000	-307.239974
4.160000	-329.495917
4.170000	-361.960005
4.180000	-401.948721
4.190000	-440.031746
4.200000	-476.465016
4.210000	-505.122822
4.220000	-530.046071
4.230000	-548.231358
4.240000	-563.683151
4.250000	-580.376555
4.260000	-600.017366
4.270000	-614.865803
4.280000	-621.734031
4.290000	-622.405268
4.300000	-622.831991
4.310000	-623.633204
4.320000	-620.285554
4.330000	-615.249985
4.340000	-604.089763
4.350000	-595.271725
4.360000	-583.224859
4.370000	-570.685645
4.380000	-551.036876
4.390000	-532.509537
4.400000	-513.190130
4.410000	-489.029903
4.420000	-460.391073
4.430000	-431.596620
4.440000	-394.593392
4.450000	-346.880514
4.460000	-285.496263
4.470000	-217.560471
4.480000	-146.423707
4.490000	-76.277548
4.500000	-18.405321
4.510000	33.017791
4.520000	77.561429
4.530000	114.277371
4.540000	140.823466
4.550000	172.551449
4.560000	203.660090
4.570000	227.790129
4.580000	226.095335
4.590000	188.352191
4.600000	136.251379
4.610000	77.174875
4.620000	37.426092
4.630000	1.850503
4.640000	-25.379191
4.650000	-56.217803
4.660000	-92.857188
4.670000	-130.967617
4.680000	-160.351712
4.690000	-180.777334
4.700000	-202.908587
4.710000	-221.241621
4.720000	-237.851809
4.730000	-247.050000
4.740000	-260.541440
4.750000	-268.832002
4.760000	-279.309169
4.770000	-284.605090
4.780000	-291.814778
4.790000	-292.032262
4.800000	-286.713420
4.810000	-274.482771
4.820000	-255.647668
4.830000	-236.313391
4.840000	-212.585171
4.850000	-191.203808
4.860000	-167.187595
4.870000	-144.148143
4.880000	-126.154786
4.890000	-115.116581
4.900000	-106.133172
4.910000	-93.111500
4.920000	-73.149938
4.930000	-55.836864
4.940000	-34.150413
4.950000	-12.623149
4.960000	5.490246
4.970000	17.897644
4.980000	37.142897
4.990000	71.712012
5.000000	98.346557
5.010000	108.872821
5.020000	89.172375
5.030000	51.745367
5.040000	0.279425
5.050000	-44.028419
5.060000	-70.670499
5.070000	-87.212653
5.080000	-97.637916
5.090000	-114.447472
5.100000	-122.890865
5.110000	-124.086115
5.120000	-117.499373
5.130000	-115.119103
5.140000	-114.762097
5.150000	-120.529009
5.160000	-139.726474
5.170000	-160.244955
5.180000	-162.362494
5.190000	-144.035191
5.200000	-118.733379
5.210000	-95.839635
5.220000	-74.768837
5.230000	-73.386554
5.240000	-81.752904
5.250000	-82.604851
5.260000	-81.825214
5.270000	-73.147629
5.280000	-65.630643
5.290000	-13.564187
5.300000	90.768860
5.310000	180.457054
5.320000	226.582311
5.330000	225.189944
5.340000	231.200706
5.350000	271.489195
5.360000	326.334668
5.370000	419.885964
5.380000	559.399409
5.390000	711.815995
5.400000	834.080829
5.410000	919.824390
5.420000	979.786985
5.430000	1035.506983
5.440000	1038.278206
5.450000	994.318546
5.460000	925.457202
5.470000	827.704197
5.480000	711.654693
5.490000	576.370034
5.500000	450.913207
5.510000	344.627081
5.520000	262.806056
5.530000	214.205835
5.540000	195.310811
5.550000	182.708961
5.560000	165.829928
5.570000	131.183230
5.580000	84.380745
5.590000	39.326244
5.600000	-5.464661
5.610000	-48.877495
5.620000	-95.680047
5.630000	-126.034073
5.640000	-146.989635
5.650000	-161.867356
5.660000	-173.651846
5.670000	-185.721864
5.680000	-199.662534
5.690000	-208.573061
5.700000	-206.027783
5.710000	-199.147980
5.720000	-192.405525
5.730000	-182.721853
5.740000	-168.139293
5.750000	-151.662222
5.760000	-144.581940
5.770000	-134.222799
5.780000	-124.088309
5.790000	-85.046274
5.800000	-10.676174
5.810000	97.756777
5.820000	194.595090
5.830000	215.155382
5.840000	169.720148
5.850000	78.228488
5.860000	16.312902
5.870000	-7.233841
5.880000	4.521310
5.890000	20.876238
5.900000	30.096873
5.910000	31.665597
5.920000	19.639423
5.930000	-3.540045
5.940000	-12.105242
5.950000	7.536338
5.960000	39.050109
5.970000	40.859020
5.980000	-4.412359
5.990000	-59.017779
6.000000	-100.935477
6.010000	-116.936107
6.020000	-139.267468
6.030000	-156.752384
6.040000	-173.659016
6.050000	-201.605901
6.060000	-216.970740
6.070000	-211.518562
6.080000	-201.700394
6.090000	-216.148052
6.100000	-228.295060
6.110000	-226.501733
6.120000	-218.960631
6.130000	-233.926859
6.140000	-244.490935
6.150000	-250.441464
6.160000	-232.652008
6.170000	-169.966449
6.180000	-135.755224
6.190000	-160.723334
6.200000	-238.104505
6.210000	-283.281940
6.220000	-299.042618
6.230000	-324.622656
6.240000	-358.550816
6.250000	-380.927871
6.260000	-370.069110
6.270000	-295.891572
6.280000	-225.201622
6.290000	-235.231894
6.300000	-305.079125
6.310000	-369.130492
6.320000	-377.347021
6.330000	-398.703461
6.340000	-450.821233
6.350000	-503.158043
6.360000	-528.986355
6.370000	-488.590583
6.380000	-450.796418
6.390000	-478.353116
6.400000	-557.075045
6.410000	-628.339989
6.420000	-648.073198
6.430000	-661.585115
6.440000	-674.307747
6.450000	-674.462066
6.460000	-671.278929
6.470000	-654.965525
6.480000	-624.285530
6.490000	-611.238673
6.500000	-598.501549
6.510000	-595.931175
6.520000	-560.583723
6.530000	-526.512806
6.540000	-505.615827
6.550000	-477.014999
6.560000	-451.077459
6.570000	-405.103207
6.580000	-363.344673
6.590000	-360.563355
6.600000	-344.047831
6.610000	-306.156601
6.620000	-231.405202
6.630000	-190.328303
6.640000	-183.245027
6.650000	-164.716073
6.660000	-169.647045
6.670000	-193.336349
6.680000	-259.133836
6.690000	-240.552583
6.700000	-162.042449
6.710000	-50.783345
6.720000	-12.841190
6.730000	-12.297361
6.740000	-17.324156
6.750000	-30.913097
6.760000	-72.190620
6.770000	-116.748206
6.780000	-155.437705
6.790000	-232.067233
6.800000	-272.365375
6.810000	-285.286171
6.820000	-248.879248
6.830000	-262.174900
6.840000	-285.349011
6.850000	-301.463506
6.860000	-304.853174
6.870000	-322.177417
6.880000	-343.259101
6.890000	-362.573456
6.900000	-371.325141
6.910000	-376.682180
6.920000	-381.380923
6.930000	-385.117539
6.940000	-393.119952
6.950000	-415.233367
6.960000	-437.461017
6.970000	-459.721329
6.980000	-467.763471
6.990000	-480.634108
7.000000	-550.489950
7.010000	-608.213267
7.020000	-562.153723
7.030000	-329.482215
7.040000	-159.394697
7.050000	-129.611832
7.060000	-231.396217
7.070000	-276.245422
7.080000	-301.014107
7.090000	-321.150660
7.100000	-341.934204
7.110000	-311.896537
7.120000	-267.090880
7.130000	-305.140739
7.140000	-347.425728
7.150000	-288.974494
7.160000	-108.986704
7.170000	-57.212632
7.180000	-42.605968
7.190000	2.156747
7.200000	245.057562
7.210000	491.871277
7.220000	678.084319
7.230000	735.917453
7.240000	649.929090
7.250000	487.198186
7.260000	293.724178
7.270000	102.785831
7.280000	-97.596220
7.290000	-283.518853
7.300000	-415.865419
7.310000	-458.488647
7.320000	-417.908462
7.330000	-303.790099
7.340000	-99.535418
7.350000	172.478994
7.360000	475.810226
7.370000	753.035340
7.380000	981.931065
7.390000	1059.047412
7.400000	1054.541183
7.410000	1172.439919
7.420000	1651.259061
7.430000	2346.460324
7.440000	2979.957062
7.450000	3102.691664
7.460000	2326.168835
7.470000	1377.334309
7.480000	646.804732
7.490000	537.024184
7.500000	447.701478
7.510000	295.482322
7.520000	169.420393
7.530000	-40.591067
7.540000	-7.644739
7.550000	313.912228
7.560000	989.694300
7.570000	1552.301077
7.580000	1793.762241
7.590000	1502.697082
7.600000	896.691718
7.610000	355.221222
7.620000	103.547939
7.630000	64.264491
7.640000	28.727610
7.650000	-10.455461
7.660000	-77.120390
7.670000	-189.141421
7.680000	-97.885326
7.690000	216.896555
7.700000	731.580580
7.710000	1054.608774
7.720000	806.431063
7.730000	401.854475
7.740000	27.673800
7.750000	35.237424
7.760000	44.593366
7.770000	9.890181
7.780000	5.194584
7.790000	-108.021905
7.800000	-137.944378
7.810000	-110.178535
7.820000	167.534438
7.830000	371.266597
7.840000	282.321899
7.850000	66.788295
7.860000	-113.883539
7.870000	-59.229575
7.880000	-1.590989
7.890000	33.006042
7.900000	73.873820
7.910000	91.099366
7.920000	74.413063
7.930000	-10.519482
7.940000	-90.732290
7.950000	-142.586341
7.960000	-134.835841
7.970000	-87.105236
7.980000	-10.895958
7.990000	61.339556
8.000000	102.078805
8.010000	97.510121
8.020000	110.619389
8.030000	184.648122
8.040000	361.845686
8.050000	499.299440
8.060000	480.165567
8.070000	298.611077
8.080000	82.875876
8.090000	-48.414742
8.100000	-82.348450
8.110000	-53.548646
8.120000	-27.969591
8.130000	-19.182676
8.140000	-30.205649
8.150000	-49.420316
8.160000	-50.712272
8.170000	-30.697334
8.180000	22.828479
8.190000	113.692552
8.200000	287.507337
8.210000	562.029368
8.220000	884.683223
8.230000	1157.598740
8.240000	1234.416314
8.250000	1147.349043
8.260000	968.282247
8.270000	832.296868
8.280000	725.429500
8.290000	652.988364
8.300000	633.637561
8.310000	660.634252
8.320000	736.562123
8.330000	828.206072
8.340000	924.906260
8.350000	999.757597
8.360000	1047.333738
8.370000	1091.079453
8.380000	1128.380693
8.390000	1160.770422
8.400000	1174.409817
8.410000	1137.770521
8.420000	1101.689533
8.430000	1093.731048
8.440000	1191.129992
8.450000	1412.220751
8.460000	1712.087640
8.470000	2055.761966
8.480000	2429.460943
8.490000	2829.354581
8.500000	3207.403468
8.510000	3409.345995
8.520000	3395.684966
8.530000	3151.094093
8.540000	2746.560337
8.550000	2310.356161
8.560000	1935.027352
8.570000	1615.372652
8.580000	1257.941317
8.590000	835.927949
8.600000	407.778275
8.610000	-16.962472
8.620000	-416.328992
8.630000	-709.336059
8.640000	-841.487880
8.650000	-833.227933
8.660000	-784.511203
8.670000	-723.903369
8.680000	-660.126579
8.690000	-605.569005
8.700000	-570.048597
8.710000	-557.198256
8.720000	-552.568453
8.730000	-535.123815
8.740000	-507.467854
8.750000	-493.422492
8.760000	-513.673699
8.770000	-542.910104
8.780000	-560.541325
8.790000	-571.784287
8.800000	-583.061488
8.810000	-581.922728
8.820000	-562.582916
8.830000	-548.792108
8.840000	-537.681239
8.850000	-517.286702
8.860000	-488.799403
8.870000	-467.470471
8.880000	-475.253374
8.890000	-508.568350
8.900000	-559.011840
8.910000	-608.958812
8.920000	-645.768738
8.930000	-669.368695
8.940000	-678.841710
8.950000	-671.759638
8.960000	-664.284435
8.970000	-671.466366
8.980000	-692.335470
8.990000	-703.430435
9.000000	-695.076953
9.010000	-686.459809
9.020000	-689.785433
9.030000	-692.741456
9.040000	-684.150095
9.050000	-676.073442
9.060000	-686.517697
9.070000	-686.596685
9.080000	-652.887117
9.090000	-617.258701
9.100000	-611.576855
9.110000	-628.466689
9.120000	-617.468755
9.130000	-590.165653
9.140000	-582.748892
9.150000	-604.110354
9.160000	-615.552436
9.170000	-606.787262
9.180000	-598.428424
9.190000	-606.439022
9.200000	-610.525839
9.210000	-597.096910
9.220000	-583.028035
9.230000	-573.042558
9.240000	-564.163590
9.250000	-558.657147
9.260000	-558.619915
9.270000	-579.630024
9.280000	-621.019568
9.290000	-682.592162
9.300000	-751.706354
9.310000	-804.177254
9.320000	-853.150335
9.330000	-891.695205
9.340000	-919.600766
9.350000	-925.838097
9.360000	-910.737034
9.370000	-887.337184
9.380000	-869.530236
9.390000	-862.801075
9.400000	-862.951367
9.410000	-851.547017
9.420000	-808.021076
9.430000	-738.019336
9.440000	-644.069878
9.450000	-541.180192
9.460000	-435.749230
9.470000	-329.649404
9.480000	-230.097307
9.490000	-117.030996
9.500000	7.172429
9.510000	132.913768
9.520000	231.402395
9.530000	286.238921
9.540000	306.381777
9.550000	316.954990
9.560000	321.648885
9.570000	319.003584
9.580000	308.933178
9.590000	307.443191
9.600000	320.202635
9.610000	334.512639
9.620000	337.819513
9.630000	325.617947
9.640000	309.160153
9.650000	301.408495
9.660000	310.835731
9.670000	329.835538
9.680000	350.524594
9.690000	366.948645
9.700000	388.269122
9.710000	420.066112
9.720000	458.669152
9.730000	502.871299
9.740000	539.717911
9.750000	563.377081
9.760000	556.081621
9.770000	524.631436
9.780000	480.472553
9.790000	435.568364
9.800000	409.900012
9.810000	382.407093
9.820000	334.014130
9.830000	253.949851
9.840000	158.550600
9.850000	65.510913
9.860000	-16.924303
9.870000	-81.583051
9.880000	-127.067137
9.890000	-171.382375
9.900000	-216.150364
9.910000	-249.797511
9.920000	-267.905287
9.930000	-269.540922
9.940000	-256.987734
9.950000	-254.663805
9.960000	-260.315587
9.970000	-284.473781
9.980000	-319.579052
9.990000	-352.253052
10.000000	-368.158471
10.010000	-344.327183
10.020000	-309.531874
10.030000	-282.024265
10.040000	-276.547458
10.050000	-289.656510
10.060000	-306.182593
10.070000	-307.932165
10.080000	-298.195081
10.090000	-279.524103
10.100000	-233.468148
10.110000	-121.713045
10.120000	82.241490
10.130000	403.442553
10.140000	873.317228
10.150000	1502.890737
10.160000	2305.748659
10.170000	3181.374227
10.180000	3965.019062
10.190000	4496.886717
10.200000	4727.942404
10.210000	4693.312386
10.220000	4377.742671
10.230000	3798.175026
10.240000	3071.499214
10.250000	2374.216347
10.260000	1843.830103
10.270000	1489.586670
10.280000	1276.052680
10.290000	1146.579583
10.300000	1064.343679
10.310000	1024.340297
10.320000	989.894531
10.330000	947.511269
10.340000	875.435705
10.350000	771.749476
10.360000	650.031935
10.370000	529.348304
10.380000	436.661805
10.390000	373.555763
10.400000	306.205818
10.410000	238.210450
10.420000	155.044208
10.430000	66.943683
10.440000	-15.439346
10.450000	-85.323757
10.460000	-123.211639
10.470000	-143.341143
10.480000	-145.936352
10.490000	-137.700860
10.500000	-114.623123
10.510000	-79.069871
10.520000	-51.685491
10.530000	-42.067556
10.540000	-46.704486
10.550000	-53.367549
10.560000	-47.042367
10.570000	-28.370697
10.580000	-21.772661
10.590000	-27.635224
10.600000	-36.135918
10.610000	-27.199545
10.620000	4.465316
10.630000	55.550661
10.640000	123.740470
10.650000	188.254400
10.660000	249.745122
10.670000	338.376205
10.680000	450.326493
10.690000	563.785040
10.700000	658.916107
10.710000	734.581087
10.720000	813.573682
10.730000	870.914519
10.740000	907.637665
10.750000	946.642656
10.760000	1012.373559
10.770000	1137.059525
10.780000	1302.972599
10.790000	1480.443620
10.800000	1641.241941
10.810000	1762.174220
10.820000	1926.469224
10.830000	2249.658820
10.840000	2703.299299
10.850000	3102.377900
10.860000	3060.908154
10.870000	2529.685656
10.880000	1528.035136
10.890000	588.064594
10.900000	-3.850492
10.910000	-367.008850
10.920000	-505.759053
10.930000	-377.960414
10.940000	-59.999449
10.950000	237.044638
10.960000	304.760226
10.970000	465.165485
10.980000	284.769954
10.990000	-59.713066
11.000000	-35.250847
11.010000	839.256070
11.020000	2520.277255
11.030000	3164.270685
11.040000	3023.550631
11.050000	2293.784719
11.060000	2233.397423
11.070000	2305.020403
11.080000	1944.156408
11.090000	1577.965878
11.100000	1453.071740
11.110000	1754.059236
11.120000	1732.742810
11.130000	1362.785581
11.140000	872.763762
11.150000	591.101936
11.160000	506.834340
11.170000	345.341948
11.180000	-162.432666
11.190000	-621.614689
11.200000	-1026.455956
11.210000	-986.536309
11.220000	-861.227444
11.230000	-664.866424
11.240000	-535.696056
11.250000	-529.995536
11.260000	-556.450715
11.270000	-705.983900
11.280000	-1097.976226
11.290000	-1475.966633
11.300000	-1591.216887
11.310000	-1290.238865
11.320000	-961.641619
11.330000	-739.842031
11.340000	-688.902801
11.350000	-652.871177
11.360000	-792.731991
11.370000	-1144.254498
11.380000	-1495.913962
11.390000	-1674.442116
11.400000	-1347.024173
11.410000	-913.676172
11.420000	-492.393998
11.430000	-312.918546
11.440000	-293.944773
11.450000	-503.607151
11.460000	-870.481877
11.470000	-1106.738199
11.480000	-1015.974098
11.490000	-719.780480
11.500000	-570.805949
11.510000	-480.650230
11.520000	-522.454152
11.530000	-474.416389
11.540000	-564.043387
11.550000	-1138.217880
11.560000	-1869.154197
11.570000	-2177.704060
11.580000	-1648.423505
11.590000	-948.205621
11.600000	-633.098142
11.610000	-563.506758
11.620000	-627.559558
11.630000	-1382.022085
11.640000	-2245.606704
11.650000	-2915.681319
11.660000	-2251.063001
11.670000	-1410.035563
11.680000	-713.933617
11.690000	-582.373171
11.700000	-604.904843
11.710000	-575.987704
11.720000	-1432.728911
11.730000	-2387.580154
11.740000	-2915.321963
11.750000	-2109.507669
11.760000	-1198.828445
11.770000	-708.886843
11.780000	-720.496309
11.790000	-699.627274
11.800000	-973.914373
11.810000	-2233.747880
11.820000	-3331.334490
11.830000	-3288.050804
11.840000	-2072.741484
11.850000	-1011.131974
11.860000	-799.136995
11.870000	-695.651457
11.880000	-538.173729
11.890000	-374.133086
11.900000	-232.211365
11.910000	-88.188644
11.920000	181.303926
11.930000	622.825277
11.940000	1126.670304
11.950000	1507.244206
11.960000	1550.237758
11.970000	1284.276808
11.980000	875.128128
11.990000	539.729341
12.000000	335.526296
12.010000	158.350303
12.020000	7.487381
12.030000	-165.882302
12.040000	-346.430333
12.050000	-468.364839
12.060000	-490.805214
12.070000	-483.206043
12.080000	-564.705719
12.090000	-712.379763
12.100000	-790.352231
12.110000	-748.846396
12.120000	-603.234307
12.130000	-357.003872
12.140000	-95.063681
12.150000	71.710147
12.160000	60.459870
12.170000	-106.009834
12.180000	-336.219011
12.190000	-546.810021
12.200000	-677.352270
12.210000	-719.812370
12.220000	-729.718528
12.230000	-756.857539
12.240000	-829.417549
12.250000	-943.206017
12.260000	-1093.173283
12.270000	-1242.192274
12.280000	-1368.697781
12.290000	-1451.906838
12.300000	-1515.738011
12.310000	-1552.260333
12.320000	-1565.537704
12.330000	-1554.994372
12.340000	-1530.760179
12.350000	-1506.799070
12.360000	-1492.363247
12.370000	-1496.329667
12.380000	-1502.624771
12.390000	-1498.596691
12.400000	-1486.320474
12.410000	-1481.962841
12.420000	-1479.014334
12.430000	-1473.396113
12.440000	-1461.436423
12.450000	-1451.255539
12.460000	-1438.885723
12.470000	-1425.857115
12.480000	-1407.712255
12.490000	-1389.545220
12.500000	-1384.621470
12.510000	-1381.893389
12.520000	-1389.978130
12.530000	-1409.947518
12.540000	-1450.081179
12.550000	-1492.322473
12.560000	-1511.892148
12.570000	-1521.526733
12.580000	-1524.402999
12.590000	-1542.508662
12.600000	-1559.534522
12.610000	-1570.580962
12.620000	-1574.401614
12.630000	-1558.347304
12.640000	-1549.101913
12.650000	-1535.735318
12.660000	-1536.273186
12.670000	-1534.754549
12.680000	-1532.549734
12.690000	-1530.830676
12.700000	-1522.193260
12.710000	-1514.004318
12.720000	-1511.888685
12.730000	-1512.877438
12.740000	-1499.934942
12.750000	-1472.518366
12.760000	-1446.749179
12.770000	-1429.856773
12.780000	-1406.556496
12.790000	-1368.602437
12.800000	-1327.137989
12.810000	-1297.747541
12.820000	-1275.717289
12.830000	-1253.605014
12.840000	-1216.996934
12.850000	-1185.942927
12.860000	-1158.267599
12.870000	-1141.358776
12.880000	-1140.583986
12.890000	-1166.840678
12.900000	-1208.890023
12.910000	-1225.958153
12.920000	-1208.665217
12.930000	-1178.208772
12.940000	-1160.167829
12.950000	-1151.094599
12.960000	-1124.655390
12.970000	-1073.413000
12.980000	-1017.933397
12.990000	-973.429753
13.000000	-944.561651
13.010000	-906.410674
13.020000	-862.980916
13.030000	-802.726621
13.040000	-731.826086
13.050000	-645.054623
13.060000	-564.789921
13.070000	-498.049432
13.080000	-454.803665
13.090000	-420.351074
13.100000	-370.164483
13.110000	-323.145519
13.120000	-290.543931
13.130000	-283.311581
13.140000	-279.872595
13.150000	-276.230601
13.160000	-265.564291
13.170000	-253.888449
13.180000	-219.883932
13.190000	-137.903540
13.200000	-21.346055
13.210000	90.976888
13.220000	190.574308
13.230000	319.629598
13.240000	473.332593
13.250000	570.707329
13.260000	609.274579
13.270000	676.667885
13.280000	824.085698
13.290000	948.842202
13.300000	960.233349
13.310000	850.214373
13.320000	717.645979
13.330000	631.810519
13.340000	610.556406
13.350000	604.528330
13.360000	559.426677
13.370000	533.195021
13.380000	563.883407
13.390000	622.318677
13.400000	603.106216
13.410000	521.750309
13.420000	425.058075
13.430000	350.800683
13.440000	280.165228
13.450000	210.540074
13.460000	173.678431
13.470000	166.495920
13.480000	165.113798
13.490000	107.326248
13.500000	16.765148
13.510000	-61.804687
13.520000	-113.016416
13.530000	-169.418928
13.540000	-261.811071
13.550000	-371.581552
13.560000	-469.259520
13.570000	-509.049152
13.580000	-504.553784
13.590000	-498.278325
13.600000	-526.178437
13.610000	-569.705690
13.620000	-586.752454
13.630000	-560.883814
13.640000	-513.777568
13.650000	-453.704367
13.660000	-382.129409
13.670000	-288.169249
13.680000	-184.557186
13.690000	-93.336932
13.700000	-31.313960
13.710000	-13.509251
13.720000	-10.958950
13.730000	-4.717596
13.740000	13.024144
13.750000	16.641414
13.760000	23.451549
13.770000	59.350868
13.780000	125.137414
13.790000	194.981762
13.800000	241.480710
13.810000	261.341143
13.820000	261.514924
13.830000	242.011411
13.840000	206.222225
13.850000	179.071792
13.860000	165.205303
13.870000	155.760386
13.880000	135.503365
13.890000	136.244508
13.900000	177.434298
13.910000	215.556339
13.920000	229.427725
13.930000	247.673288
13.940000	308.115225
13.950000	366.567636
13.960000	383.151021
13.970000	339.190518
13.980000	262.652371
13.990000	206.219222
14.000000	192.743545
14.010000	212.831599
14.020000	208.039387
14.030000	182.288469
14.040000	167.084673
14.050000	179.379526
14.060000	187.003014
14.070000	161.154952
14.080000	148.805052
14.090000	200.616585
14.100000	289.737390
14.110000	327.251429
14.120000	328.299673
14.130000	374.747483
14.140000	498.068631
14.150000	594.885368
14.160000	626.695113
14.170000	639.936349
14.180000	683.341483
14.190000	761.546922
14.200000	827.527112
14.210000	867.931582
14.220000	891.789577
14.230000	911.675114
14.240000	924.358198
14.250000	891.004172
14.260000	777.958114
14.270000	591.460287
14.280000	352.282495
14.290000	110.682340
14.300000	-112.789363
14.310000	-289.721602
14.320000	-443.651090
14.330000	-550.641951
14.340000	-638.635029
14.350000	-732.867538
14.360000	-851.578674
14.370000	-963.602616
14.380000	-1036.496920
14.390000	-1067.062369
14.400000	-1036.683424
14.410000	-958.920667
14.420000	-881.272877
14.430000	-851.087844
14.440000	-847.316651
14.450000	-842.545931
14.460000	-844.097093
14.470000	-885.717401
14.480000	-932.997336
14.490000	-967.907049
14.500000	-970.531778
14.510000	-983.908487
14.520000	-1004.911160
14.530000	-1002.805330
14.540000	-971.328484
14.550000	-914.366930
14.560000	-873.819914
14.570000	-839.086847
14.580000	-800.616207
14.590000	-754.791179
14.600000	-692.030360
14.610000	-644.243166
14.620000	-595.947498
14.630000	-528.987071
14.640000	-436.527773
14.650000	-332.419264
14.660000	-278.537536
14.670000	-263.614241
14.680000	-240.745869
14.690000	-195.193435
14.700000	-140.326706
14.710000	-110.458210
14.720000	-85.719551
14.730000	-67.408028
14.740000	-99.188428
14.750000	-161.142299
14.760000	-204.202423
14.770000	-204.570572
14.780000	-214.382329
14.790000	-267.572294
14.800000	-310.277281
14.810000	-297.219869
14.820000	-215.883901
14.830000	-110.644803
14.840000	-30.791196
14.850000	35.812381
14.860000	122.072561
14.870000	190.457358
14.880000	171.563965
14.890000	114.142623
14.900000	136.964046
14.910000	245.232921
14.920000	240.522374
14.930000	117.571886
14.940000	68.341089
14.950000	262.234860
14.960000	538.974175
14.970000	556.786469
14.980000	377.102389
14.990000	299.380116
15.000000	478.221597
15.010000	631.831254
15.020000	573.993313
15.030000	513.424328
15.040000	705.617960
15.050000	1060.125591
15.060000	1272.714333
15.070000	1303.946919
15.080000	1363.555061
15.090000	1568.239929
15.100000	1822.206545
15.110000	1950.042508
15.120000	1973.127286
15.130000	1998.141960
15.140000	2098.018405
15.150000	2208.260837
15.160000	2261.298420
15.170000	2276.014958
15.180000	2280.669075
15.190000	2112.643470
15.200000	1588.715522
15.210000	843.544515
15.220000	82.355613
15.230000	-445.031756
15.240000	-792.437697
15.250000	-922.957911
15.260000	-897.097244
15.270000	-880.437659
15.280000	-901.979606
15.290000	-836.424510
15.300000	-486.929308
15.310000	-6.636070
15.320000	284.399499
15.330000	272.456433
15.340000	107.523688
15.350000	-65.727518
15.360000	-186.844886
15.370000	-234.947873
15.380000	-181.452954
15.390000	-59.598277
15.400000	104.364984
15.410000	323.600124
15.420000	577.163532
15.430000	808.107659
15.440000	964.718206
15.450000	1062.207830
15.460000	1125.375082
15.470000	1166.683713
15.480000	1181.060426
15.490000	1200.672220
15.500000	1240.108197
15.510000	1293.348518
15.520000	1322.814033
15.530000	1327.537127
15.540000	1336.347129
15.550000	1364.099769
15.560000	1360.112951
15.570000	1198.535659
15.580000	819.807518
15.590000	229.564248
15.600000	-359.849589
15.610000	-746.688741
15.620000	-832.709823
15.630000	-685.315259
15.640000	-459.729552
15.650000	-275.428252
15.660000	-188.827118
15.670000	-205.987014
15.680000	-284.040740
15.690000	-379.126517
15.700000	-444.496272
15.710000	-436.858382
15.720000	-357.991489
15.730000	-222.541174
15.740000	-42.060155
15.750000	195.927065
15.760000	483.567362
15.770000	804.123232
15.780000	1102.508861
15.790000	1330.758574
15.800000	1499.029923
15.810000	1640.878400
15.820000	1727.466795
15.830000	1722.732506
15.840000	1648.483675
15.850000	1603.552819
15.860000	1628.428546
15.870000	1667.196832
15.880000	1671.482831
15.890000	1636.382499
15.900000	1605.425943
15.910000	1615.973886
15.920000	1661.003339
15.930000	1733.321170
15.940000	1806.283845
15.950000	1853.091381
15.960000	1875.065090
15.970000	1896.347910
15.980000	1957.648930
15.990000	2028.499485
16.000000	2071.638087
16.010000	2088.849029
16.020000	2117.148147
16.030000	2174.236390
16.040000	2232.625005
16.050000	2253.684102
16.060000	2262.367474
16.070000	2289.572455
16.080000	2286.649105
16.090000	2260.370658
16.100000	2283.536341
16.110000	2417.896056
16.120000	2598.833985
16.130000	2692.990048
16.140000	2681.871100
16.150000	2649.121775
16.160000	2671.312533
16.170000	2740.444835
16.180000	2755.588840
16.190000	2684.045237
16.200000	2570.500778
16.210000	2462.743701
16.220000	2364.380687
16.230000	2269.170862
16.240000	2194.414075
16.250000	2128.941717
16.260000	2047.497034
16.270000	1940.176041
16.280000	1853.155012
16.290000	1813.445058
16.300000	1777.372510
16.310000	1694.782921
16.320000	1577.847476
16.330000	1480.989415
16.340000	1416.960190
16.350000	1336.778165
16.360000	1225.250450
16.370000	1118.124494
16.380000	1061.653481
16.390000	1048.406869
16.400000	1044.399973
16.410000	1036.830041
16.420000	1029.273626
16.430000	1010.627953
16.440000	968.224243
16.450000	916.247085
16.460000	874.269990
16.470000	859.940780
16.480000	846.941015
16.490000	846.817354
16.500000	859.658957
16.510000	909.504260
16.520000	965.302977
16.530000	1003.956546
16.540000	1024.082999
16.550000	1020.139906
16.560000	1000.643610
16.570000	945.653213
16.580000	904.134377
16.590000	907.525400
16.600000	939.567274
16.610000	951.046316
16.620000	927.166713
16.630000	918.150585
16.640000	928.377777
16.650000	936.922300
16.660000	931.014273
16.670000	912.469849
16.680000	902.104792
16.690000	878.302088
16.700000	859.706517
16.710000	840.801306
16.720000	827.405431
16.730000	811.661723
16.740000	782.159379
16.750000	747.641653
16.760000	716.977188
16.770000	694.338219
16.780000	676.503575
16.790000	637.032573
16.800000	578.838151
16.810000	531.192895
16.820000	518.552398
16.830000	531.318581
16.840000	529.240675
16.850000	499.911617
16.860000	473.435906
16.870000	467.192541
16.880000	466.598836
16.890000	457.195264
16.900000	427.156433
16.910000	384.639605
16.920000	326.402087
16.930000	272.867614
16.940000	246.705202
16.950000	239.059624
16.960000	233.704616
16.970000	232.350065
16.980000	240.429378
16.990000	253.995818
17.000000	252.823120
17.010000	246.102009
17.020000	241.591856
17.030000	244.913866
17.040000	241.683128
17.050000	224.454880
17.060000	209.883293
17.070000	209.022492
17.080000	219.755200
17.090000	228.933663
17.100000	240.045925
17.110000	259.224493
17.120000	276.998791
17.130000	287.228733
17.140000	282.986353
17.150000	284.677502
17.160000	294.626301
17.170000	317.500684
17.180000	350.947531
17.190000	386.339788
17.200000	426.332155
17.210000	456.496967
17.220000	476.787185
17.230000	487.351504
17.240000	499.635974
17.250000	507.519763
17.260000	490.138811
17.270000	441.088177
17.280000	383.415548
17.290000	345.028842
17.300000	337.338435
17.310000	337.900541
17.320000	334.646388
17.330000	317.466745
17.340000	308.731888
17.350000	318.018699
17.360000	334.113720
17.370000	345.923627
17.380000	341.177503
17.390000	336.258313
17.400000	341.909393
17.410000	353.901341
17.420000	367.321404
17.430000	375.554222
17.440000	392.135822
17.450000	410.163887
17.460000	425.971235
17.470000	436.118811
17.480000	446.843710
17.490000	450.044020
17.500000	457.780412
17.510000	-291.480813
17.520000	-1547.496764
17.530000	-2961.729292
17.540000	-3513.589208
17.550000	-2667.973114
17.560000	-1455.645142
17.570000	-280.826248
17.580000	-14.981989
17.590000	55.342040
17.600000	101.860805
17.610000	-1032.138144
17.620000	-2975.511735
17.630000	-5102.599153
17.640000	-5664.956569
17.650000	-4277.820274
17.660000	-2393.528399
17.670000	-805.569288
17.680000	-364.929597
17.690000	-296.858494
17.700000	-1660.707645
17.710000	-3902.314773
17.720000	-5913.254197
17.730000	-6146.823708
17.740000	-4176.293629
17.750000	-2110.758304
17.760000	-609.725129
17.770000	-498.685178
17.780000	-435.003541
17.790000	-318.034082
17.800000	-283.943643
17.810000	-223.387050
17.820000	-206.722810
17.830000	-166.708025
17.840000	-134.451825
17.850000	-59.150848
17.860000	3.178504
17.870000	70.929660
17.880000	124.021678
17.890000	198.148102
17.900000	275.368514
17.910000	356.735907
17.920000	434.006569
17.930000	524.710811
17.940000	603.843660
17.950000	705.831026
17.960000	804.161676
17.970000	889.646655
17.980000	922.376023
17.990000	920.936526
18.000000	906.243204
18.010000	893.857656
18.020000	864.660612
18.030000	806.108504
18.040000	705.054192
18.050000	564.380713
18.060000	368.039271
18.070000	148.763227
18.080000	-41.948300
18.090000	-167.921054
18.100000	-235.076708
18.110000	-312.805389
18.120000	-383.993774
18.130000	-452.774836
18.140000	-522.268660
18.150000	-622.846909
18.160000	-737.107279
18.170000	-809.509682
18.180000	-816.396079
18.190000	-813.754317
18.200000	-817.605370
18.210000	-801.914188
18.220000	-739.509431
18.230000	-659.928178
18.240000	-644.253901
18.250000	-712.807910
18.260000	-813.499242
18.270000	-873.330433
18.280000	-881.950643
18.290000	-881.698781
18.300000	-903.739570
18.310000	-927.293110
18.320000	-937.580726
18.330000	-935.967952
18.340000	-945.183814
18.350000	-975.980232
18.360000	-1030.467242
18.370000	-1090.975997
18.380000	-1139.454487
18.390000	-1157.676540
18.400000	-1166.588293
18.410000	-1172.375890
18.420000	-1182.097540
18.430000	-1194.425614
18.440000	-1206.309146
18.450000	-1219.529380
18.460000	-1215.840186
18.470000	-1209.764585
18.480000	-1205.050057
18.490000	-1209.051775
18.500000	-1209.247715
18.510000	-1201.070160
18.520000	-1199.207904
18.530000	-1195.402111
18.540000	-1191.238669
18.550000	-1186.105163
18.560000	-1177.642038
18.570000	-1160.511025
18.580000	-1139.450988
18.590000	-1124.977564
18.600000	-1113.934098
18.610000	-1088.114707
18.620000	-1047.178430
18.630000	-1012.356801
18.640000	-977.727423
18.650000	-935.974507
18.660000	-885.672224
18.670000	-845.025949
18.680000	-810.270011
18.690000	-755.396474
18.700000	-697.366158
18.710000	-648.468008
18.720000	-622.179570
18.730000	-614.204883
18.740000	-617.031791
18.750000	-639.367428
18.760000	-648.150557
18.770000	-656.705446
18.780000	-645.226538
18.790000	-624.843436
18.800000	-592.980010
18.810000	-556.723226
18.820000	-531.137437
18.830000	-496.890704
18.840000	-475.121626
18.850000	-451.676968
18.860000	-435.551885
18.870000	-410.777258
18.880000	-380.751364
18.890000	-349.929911
18.900000	-317.987264
18.910000	-289.144698
18.920000	-261.255411
18.930000	-238.092237
18.940000	-220.899861
18.950000	-216.772507
18.960000	-218.221004
18.970000	-215.496736
18.980000	-203.939703
18.990000	-189.299881
19.000000	-181.052370
19.010000	-169.768252
19.020000	-157.246431
19.030000	-139.604985
19.040000	-136.890251
19.050000	-134.731299
19.060000	-117.581691
19.070000	-96.648681
19.080000	-83.324631
19.090000	-80.928282
19.100000	-88.440117
19.110000	-117.627533
19.120000	-181.944835
19.130000	-246.244627
19.140000	-295.556368
19.150000	-330.623010
19.160000	-359.907297
19.170000	-386.371206
19.180000	-416.319054
19.190000	-462.856454
19.200000	-506.359343
19.210000	-520.709011
19.220000	-514.881219
19.230000	-525.021434
19.240000	-560.381181
19.250000	-586.933649
19.260000	-574.610711
19.270000	-563.423739
19.280000	-683.473104
19.290000	-972.712860
19.300000	-1277.862397
19.310000	-1467.781616
19.320000	-1547.009845
19.330000	-1605.136140
19.340000	-1616.225498
19.350000	-1561.896897
19.360000	-1513.406139
19.370000	-1504.607020
19.380000	-1520.170412
19.390000	-1504.257876
19.400000	-1474.521798
19.410000	-1444.950528
19.420000	-1423.241016
19.430000	-1392.961931
19.440000	-1368.763856
19.450000	-1356.333525
19.460000	-1377.047818
19.470000	-1407.633719
19.480000	-1458.809572
19.490000	-1501.876606
19.500000	-1536.700584
19.510000	-1546.123379
19.520000	-1532.361950
19.530000	-1455.638435
19.540000	-1286.769183
19.550000	-1002.887410
19.560000	-683.841559
19.570000	-388.127218
19.580000	-128.838495
19.590000	240.020894
19.600000	606.741287
19.610000	913.267796
19.620000	971.916684
19.630000	979.522681
19.640000	970.598343
19.650000	1077.665728
19.660000	1093.967324
19.670000	999.273801
19.680000	778.302799
19.690000	638.112311
19.700000	485.433347
19.710000	413.750540
19.720000	255.467109
19.730000	236.423170
19.740000	49.323873
19.750000	-795.450840
19.760000	-1725.280880
19.770000	-2322.128294
19.780000	-1707.332531
19.790000	-724.581493
19.800000	60.334090
19.810000	447.592342
19.820000	398.064143
19.830000	431.256130
19.840000	174.299042
19.850000	-1164.273765
19.860000	-2811.546470
19.870000	-4106.153607
19.880000	-3392.370919
19.890000	-1922.396736
19.900000	-529.420740
19.910000	27.186941
19.920000	-5.415055
19.930000	-887.331336
19.940000	-2242.704418
19.950000	-3508.710907
19.960000	-3887.389134
19.970000	-2986.244992
19.980000	-1682.936290
19.990000	-363.468909
20.000000	169.331901
20.010000	263.094196
20.020000	-769.615184
20.030000	-2252.636175
20.040000	-3769.981825
20.050000	-3677.029920
20.060000	-2367.317265
20.070000	-798.677300
20.080000	143.175397
20.090000	315.011755
20.100000	52.948889
20.110000	-472.455846
20.120000	-679.182308
20.130000	-448.898006
20.140000	124.737034
20.150000	393.770690
20.160000	431.938945
20.170000	435.409857
20.180000	474.429672
20.190000	532.445760
20.200000	587.541266
20.210000	609.428064
20.220000	622.773649
20.230000	613.607883
20.240000	605.747235
20.250000	623.760968
20.260000	649.241088
20.270000	687.952525
20.280000	713.285201
20.290000	735.217518
20.300000	740.572417
20.310000	751.887729
20.320000	771.110621
20.330000	794.516982
20.340000	812.942242
20.350000	828.820188
20.360000	844.415894
20.370000	861.431401
20.380000	880.529968
20.390000	897.004855
20.400000	916.315999
20.410000	938.541266
20.420000	969.094792
20.430000	996.676902
20.440000	1009.517778
20.450000	1001.808076
20.460000	989.981366
20.470000	983.232547
20.480000	974.380150
20.490000	955.635850
20.500000	920.429762
20.510000	880.737884
20.520000	812.695701
20.530000	702.515994
20.540000	557.334466
20.550000	396.643692
20.560000	266.027493
20.570000	150.588156
20.580000	27.682409
20.590000	-123.813099
20.600000	-286.573358
20.610000	-453.592036
20.620000	-619.850314
20.630000	-783.729095
20.640000	-917.069545
20.650000	-1011.268080
20.660000	-1069.335268
20.670000	-1084.461054
20.680000	-1063.318684
20.690000	-1007.988433
20.700000	-948.726189
20.710000	-894.136057
20.720000	-843.454018
20.730000	-780.253048
20.740000	-708.917720
20.750000	-632.043493
20.760000	-555.401496
20.770000	-461.447565
20.780000	-343.926919
20.790000	-178.478853
20.800000	51.182231
20.810000	360.812189
20.820000	711.799542
20.830000	1089.493559
20.840000	1489.102146
20.850000	1829.958440
20.860000	2141.699969
20.870000	2385.895636
20.880000	2639.273688
20.890000	2917.993061
20.900000	3277.281604
20.910000	3696.208488
20.920000	4065.039729
20.930000	4302.496433
20.940000	4432.748733
20.950000	4568.021014
20.960000	4637.951212
20.970000	4597.610558
20.980000	4296.191448
20.990000	3793.106139
21.000000	3270.764889
21.010000	2889.870851
21.020000	2774.232425
21.030000	2790.591599
21.040000	2896.611747
21.050000	2985.129647
21.060000	3034.220470
21.070000	2893.978059
21.080000	2682.894811
21.090000	2672.575329
21.100000	2790.284921
21.110000	2883.949390
21.120000	2614.155023
21.130000	2106.929501
21.140000	1473.645683
21.150000	910.469761
21.160000	495.138093
21.170000	86.402015
21.180000	-458.045866
21.190000	-1117.892795
21.200000	-1698.424780
21.210000	-2060.013109
21.220000	-2172.779581
21.230000	-2121.790472
21.240000	-1987.463178
21.250000	-1831.524938
21.260000	-1635.267817
21.270000	-1417.370902
21.280000	-1251.231726
21.290000	-1195.853138
21.300000	-1255.721859
21.310000	-1393.229187
21.320000	-1609.327471
21.330000	-1878.208096
21.340000	-2117.788332
21.350000	-2286.976173
21.360000	-2387.042224
21.370000	-2432.791518
21.380000	-2424.934232
21.390000	-2358.936008
21.400000	-2294.680091
21.410000	-2233.596898
21.420000	-2184.790648
21.430000	-2138.549726
21.440000	-2116.998909
21.450000	-2103.406062
21.460000	-1902.393359
21.470000	-1487.402867
21.480000	-967.503706
21.490000	-604.830048
21.500000	-480.125731
21.510000	-574.326213
21.520000	-769.151600
21.530000	-915.413725
21.540000	-891.596265
21.550000	-737.954902
21.560000	-558.893010
21.570000	-380.958008
21.580000	-194.098201
21.590000	-41.449367
21.600000	-22.132528
21.610000	-139.018264
21.620000	-283.535865
21.630000	-369.323111
21.640000	-440.973695
21.650000	-529.933185
21.660000	-617.615305
21.670000	-644.438378
21.680000	-633.491543
21.690000	-644.050372
21.700000	-704.623867
21.710000	-785.509579
21.720000	-861.776225
21.730000	-931.371719
21.740000	-1024.356702
21.750000	-1135.142350
21.760000	-1229.531489
21.770000	-1295.312726
21.780000	-1347.119167
21.790000	-1418.540788
21.800000	-1480.540239
21.810000	-1458.649254
21.820000	-1336.793311
21.830000	-1167.617838
21.840000	-1053.855075
21.850000	-1034.415332
21.860000	-1096.779520
21.870000	-1212.171839
21.880000	-1259.119416
21.890000	-1225.899547
21.900000	-1086.756907
21.910000	-894.846491
21.920000	-723.117627
21.930000	-647.470086
21.940000	-683.982270
21.950000	-733.110684
21.960000	-718.244135
21.970000	-635.284348
21.980000	-573.429144
21.990000	-503.800263
22.000000	-445.746154
22.010000	-420.320052
22.020000	-394.580368
22.030000	-382.299963
22.040000	-309.505037
22.050000	-257.036178
22.060000	-185.764264
22.070000	53.198702
22.080000	342.247899
22.090000	521.989172
22.100000	470.032433
22.110000	402.714416
22.120000	517.102172
22.130000	807.888982
22.140000	1002.443196
22.150000	910.629330
22.160000	554.038627
22.170000	157.935643
22.180000	-100.491088
22.190000	-258.005114
22.200000	-316.918613
22.210000	-293.309110
22.220000	-160.888206
22.230000	-4.910893
22.240000	117.561884
22.250000	182.921788
22.260000	223.508564
22.270000	225.303740
22.280000	169.786479
22.290000	107.552797
22.300000	97.765530
22.310000	160.037836
22.320000	217.491167
22.330000	242.002058
22.340000	241.327625
22.350000	254.732086
22.360000	281.400267
22.370000	303.094186
22.380000	310.845286
22.390000	310.510917
22.400000	320.004316
22.410000	328.530015
22.420000	339.884962
22.430000	351.546943
22.440000	375.153332
22.450000	407.539029
22.460000	445.771799
22.470000	489.220532
22.480000	529.385389
22.490000	569.952542
22.500000	608.332412
22.510000	633.679510
22.520000	637.303280
22.530000	630.145280
22.540000	638.334359
22.550000	667.239478
22.560000	709.349117
22.570000	759.693318
22.580000	810.375434
22.590000	870.881429
22.600000	946.410098
22.610000	1025.711405
22.620000	1099.470701
22.630000	1158.897018
22.640000	1218.282474
22.650000	1262.021850
22.660000	1292.164291
22.670000	1317.520356
22.680000	1355.090580
22.690000	1394.632881
22.700000	1426.039605
22.710000	1457.484835
22.720000	1492.331473
22.730000	1521.993525
22.740000	1537.311477
22.750000	1549.915841
22.760000	1571.982973
22.770000	1607.171550
22.780000	1638.955938
22.790000	1662.817250
22.800000	1673.951899
22.810000	1686.873205
22.820000	1700.930154
22.830000	1713.614736
22.840000	1715.580359
22.850000	1714.761176
22.860000	1706.887861
22.870000	1716.009567
22.880000	1735.468543
22.890000	1706.472288
22.900000	1625.224458
22.910000	1503.334821
22.920000	1407.489111
22.930000	1329.682974
22.940000	1256.763672
22.950000	1193.103251
22.960000	1123.675546
22.970000	1057.613736
22.980000	989.571424
22.990000	932.865834
23.000000	895.476232
23.010000	866.756934
23.020000	841.419136
23.030000	807.653397
23.040000	769.094280
23.050000	734.252953
23.060000	707.781731
23.070000	697.885038
23.080000	695.109986
23.090000	691.878099
23.100000	685.473947
23.110000	669.215797
23.120000	657.250492
23.130000	643.519886
23.140000	640.432814
23.150000	640.123177
23.160000	642.658310
23.170000	644.738430
23.180000	642.235896
23.190000	648.088066
23.200000	667.813766
23.210000	694.758070
23.220000	719.738301
23.230000	723.420266
23.240000	701.056103
23.250000	670.163278
23.260000	661.429529
23.270000	680.857725
23.280000	690.367556
23.290000	667.614178
23.300000	622.746722
23.310000	594.467378
23.320000	613.789522
23.330000	618.749721
23.340000	662.499427
23.350000	679.724039
23.360000	731.573772
23.370000	758.383366
23.380000	782.222520
23.390000	799.655618
23.400000	807.554819
23.410000	796.593274
23.420000	772.276673
23.430000	711.133205
23.440000	672.908663
23.450000	617.413268
23.460000	599.482626
23.470000	544.017127
23.480000	462.641819
23.490000	347.581090
23.500000	315.489173
23.510000	448.396043
23.520000	587.353766
23.530000	624.363044
23.540000	593.620699
23.550000	558.087171
23.560000	598.280314
23.570000	428.817115
23.580000	-886.169557
23.590000	-2467.457554
23.600000	-3395.833154
23.610000	-2015.700260
23.620000	-455.213329
23.630000	612.395224
23.640000	500.377881
23.650000	480.210661
23.660000	413.437859
23.670000	-798.937812
23.680000	-2697.213750
23.690000	-4178.312176
23.700000	-3144.459945
23.710000	-1098.235376
23.720000	464.652270
23.730000	719.022384
23.740000	309.139496
23.750000	-1206.028535
23.760000	-2951.754173
23.770000	-3565.066748
23.780000	-2043.299289
23.790000	-206.185619
23.800000	663.969435
23.810000	655.129960
23.820000	69.163052
23.830000	-1269.194389
23.840000	-2628.482582
23.850000	-2261.057522
23.860000	-886.568135
23.870000	569.182989
23.880000	615.798654
23.890000	637.321265
23.900000	507.018743
23.910000	-931.365516
23.920000	-3096.103842
23.930000	-4641.460481
23.940000	-3325.608336
23.950000	-1049.654105
23.960000	591.571590
23.970000	698.183256
23.980000	547.298909
23.990000	618.498487
24.000000	614.226721
24.010000	748.219553
24.020000	717.403190
24.030000	747.059810
24.040000	661.145311
24.050000	665.282835
24.060000	576.822060
24.070000	551.770283
24.080000	454.030684
24.090000	426.023407
24.100000	363.228322
24.110000	358.819979
24.120000	324.594795
24.130000	328.378639
24.140000	300.918180
24.150000	302.626715
24.160000	277.254284
24.170000	272.493282
24.180000	244.672315
24.190000	240.273521
24.200000	218.516589
24.210000	213.926362
24.220000	196.850222
24.230000	196.406101
24.240000	181.015812
24.250000	182.725771
24.260000	179.364185
24.270000	192.162865
24.280000	208.617961
24.290000	240.664988
24.300000	257.752793
24.310000	267.603158
24.320000	252.147558
24.330000	222.619081
24.340000	174.496166
24.350000	138.060880
24.360000	127.129670
24.370000	129.761889
24.380000	134.093172
24.390000	132.136503
24.400000	131.428765
24.410000	134.493298
24.420000	142.422877
24.430000	161.526699
24.440000	165.990868
24.450000	161.308020
24.460000	139.517002
24.470000	132.527102
24.480000	134.266898
24.490000	134.729946
24.500000	126.016974
24.510000	108.616710
24.520000	93.456423
24.530000	82.806889
24.540000	80.894923
24.550000	82.965897
24.560000	84.326908
24.570000	85.465601
24.580000	90.762537
24.590000	90.920508
24.600000	86.551302
24.610000	77.031090
24.620000	75.703982
24.630000	88.446528
24.640000	101.461140
24.650000	104.195877
24.660000	86.544331
24.670000	65.678102
24.680000	59.955215
24.690000	59.406771
24.700000	57.031642
24.710000	34.427997
24.720000	-11.860536
24.730000	-83.555857
24.740000	-168.390992
24.750000	-242.183874
24.760000	-306.001207
24.770000	-358.816742
24.780000	-406.307285
24.790000	-445.102398
24.800000	-478.643224
24.810000	-510.399465
24.820000	-539.311566
24.830000	-557.355755
24.840000	-570.363149
24.850000	-579.979238
24.860000	-590.434018
24.870000	-599.263349
24.880000	-602.513300
24.890000	-598.566535
24.900000	-584.602083
24.910000	-565.570687
24.920000	-550.381501
24.930000	-537.225302
24.940000	-523.839710
24.950000	-509.230233
24.960000	-497.993573
24.970000	-483.551560
24.980000	-472.530913
24.990000	-453.503960
25.000000	-436.808813
25.010000	-410.743383
25.020000	-390.508269
25.030000	-365.259046
25.040000	-349.959824
25.050000	-333.384090
25.060000	-313.785498
25.070000	-279.830982
25.080000	-260.403237
25.090000	-254.878535
25.100000	-283.426547
25.110000	-317.474097
25.120000	-364.898612
25.130000	-388.628262
25.140000	-412.553592
25.150000	-413.334934
25.160000	-433.404863
25.170000	-427.483082
25.180000	-451.884299
25.190000	-445.324101
25.200000	-461.696017
25.210000	-433.180162
25.220000	-847.382654
25.230000	-1556.975123
25.240000	-1778.337855
25.250000	-1384.255852
25.260000	-682.169816
25.270000	-457.866707
25.280000	-455.156248
25.290000	-423.843723
25.300000	-436.044305
25.310000	-368.968477
25.320000	-551.856966
25.330000	-1581.845436
25.340000	-2492.725536
25.350000	-2418.012709
25.360000	-1308.521951
25.370000	-333.208746
25.380000	-163.635255
25.390000	-142.772014
25.400000	-351.792348
25.410000	-1374.398393
25.420000	-2476.345763
25.430000	-3399.013881
25.440000	-2998.149428
25.450000	-1560.910141
25.460000	-229.651155
25.470000	648.695869
25.480000	529.287906
25.490000	538.543279
25.500000	552.778077
25.510000	539.626231
25.520000	498.339937
25.530000	407.637746
25.540000	355.520352
25.550000	320.333261
25.560000	310.769398
25.570000	295.905348
25.580000	277.761075
25.590000	267.822347
25.600000	274.396363
25.610000	294.694641
25.620000	318.329976
25.630000	321.850337
25.640000	318.684260
25.650000	305.613105
25.660000	295.736242
25.670000	288.658439
25.680000	284.108274
25.690000	278.347373
25.700000	276.491158
25.710000	282.352674
25.720000	296.852782
25.730000	312.989636
25.740000	323.533940
25.750000	339.998302
25.760000	354.482072
25.770000	373.700804
25.780000	388.707607
25.790000	405.765562
25.800000	423.900469
25.810000	434.463168
25.820000	444.456970
25.830000	450.787069
25.840000	467.715219
25.850000	492.718994
25.860000	515.940820
25.870000	533.989550
25.880000	541.147605
25.890000	539.937009
25.900000	544.039342
25.910000	535.117522
25.920000	498.595760
25.930000	413.267526
25.940000	323.319505
25.950000	265.050264
25.960000	249.294389
25.970000	250.387173
25.980000	270.667278
25.990000	297.336939
26.000000	313.349598
26.010000	301.273416
26.020000	268.755235
26.030000	233.893032
26.040000	169.357198
26.050000	74.908145
26.060000	-51.391083
26.070000	-193.038355
26.080000	-339.501357
26.090000	-526.457377
26.100000	-770.905943
26.110000	-1021.033013
26.120000	-1240.364944
26.130000	-1404.988758
26.140000	-1598.130478
26.150000	-1813.377220
26.160000	-1995.774912
26.170000	-2106.154554
26.180000	-2141.865115
26.190000	-2153.089077
26.200000	-2127.127948
26.210000	-2034.656516
26.220000	-1889.186921
26.230000	-1739.666319
26.240000	-1664.337938
26.250000	-1641.412819
26.260000	-1640.476559
26.270000	-1628.830850
26.280000	-1607.050870
26.290000	-1596.984763
26.300000	-1594.564600
26.310000	-1620.550603
26.320000	-1705.782873
26.330000	-1850.041105
26.340000	-2004.544179
26.350000	-2115.193169
26.360000	-2172.102837
26.370000	-2203.458783
26.380000	-2170.152039
26.390000	-2037.745645
26.400000	-1754.829403
26.410000	-1451.538932
26.420000	-1228.098745
26.430000	-1120.161994
26.440000	-1085.494273
26.450000	-1093.155829
26.460000	-1151.336661
26.470000	-1184.926555
26.480000	-1167.651816
26.490000	-1083.062511
26.500000	-919.317486
26.510000	-637.795704
26.520000	-277.199244
26.530000	85.696563
26.540000	370.573044
26.550000	539.302239
26.560000	629.217204
26.570000	675.567219
26.580000	682.775472
26.590000	618.731039
26.600000	489.772264
26.610000	366.404419
26.620000	273.644504
26.630000	219.030569
26.640000	194.140746
26.650000	184.642045
26.660000	172.963374
26.670000	133.233056
26.680000	102.628559
26.690000	97.102210
26.700000	108.898786
26.710000	116.270137
26.720000	98.843711
26.730000	54.827065
26.740000	-0.827020
26.750000	-36.230762
26.760000	-42.555305
26.770000	-32.006870
26.780000	-17.612639
26.790000	-0.744046
26.800000	6.975837
26.810000	8.900930
26.820000	18.266182
26.830000	49.557785
26.840000	94.502842
26.850000	134.863142
26.860000	161.106332
26.870000	179.889596
26.880000	210.421305
26.890000	247.192216
26.900000	289.761297
26.910000	328.146773
26.920000	369.493509
26.930000	416.100239
26.940000	465.558717
26.950000	511.723064
26.960000	543.623999
26.970000	577.434120
26.980000	620.345325
26.990000	671.470720
27.000000	718.717291
27.010000	760.551422
27.020000	798.780543
27.030000	825.287314
27.040000	844.895457
27.050000	870.729118
27.060000	902.657403
27.070000	943.863783
27.080000	976.712908
27.090000	1019.448039
27.100000	1055.691339
27.110000	1083.757628
27.120000	1105.030134
27.130000	1098.023293
27.140000	1068.128578
27.150000	1015.627689
27.160000	970.662063
27.170000	943.530872
27.180000	925.162548
27.190000	918.153215
27.200000	917.663295
27.210000	913.114046
27.220000	910.898467
27.230000	911.747357
27.240000	923.508100
27.250000	929.668888
27.260000	923.834177
27.270000	911.645671
27.280000	899.852347
27.290000	888.292712
27.300000	877.896266
27.310000	867.289688
27.320000	861.647933
27.330000	855.948585
27.340000	848.766234
27.350000	837.962430
27.360000	811.882118
27.370000	769.696542
27.380000	724.393285
27.390000	693.801421
27.400000	676.542629
27.410000	655.554274
27.420000	626.417872
27.430000	606.391284
27.440000	598.612399
27.450000	603.579215
27.460000	606.456419
27.470000	602.820783
27.480000	589.997043
27.490000	575.783011
27.500000	564.219330
27.510000	545.064745
27.520000	519.498464
27.530000	478.343594
27.540000	422.163315
27.550000	345.966221
27.560000	277.276576
27.570000	260.661494
27.580000	278.578479
27.590000	301.349394
27.600000	272.833720
27.610000	223.634952
27.620000	187.791194
27.630000	206.299143
27.640000	291.362491
27.650000	402.511619
27.660000	537.732415
27.670000	678.037197
27.680000	839.892818
27.690000	976.415253
27.700000	1073.168856
27.710000	1118.159894
27.720000	1135.905078
27.730000	1152.602411
27.740000	1166.257138
27.750000	1174.737831
27.760000	1160.259481
27.770000	1144.341137
27.780000	1136.589024
27.790000	1134.270451
27.800000	1125.921118
27.810000	1099.223919
27.820000	1049.968599
27.830000	999.273356
27.840000	960.688303
27.850000	930.301110
27.860000	898.418339
27.870000	856.357774
27.880000	802.861483
27.890000	752.149579
27.900000	720.669948
27.910000	701.235573
27.920000	680.152877
27.930000	632.650034
27.940000	560.066303
27.950000	472.112821
27.960000	391.373632
27.970000	343.275171
27.980000	313.931283
27.990000	302.163925
28.000000	294.145560
28.010000	273.737569
28.020000	256.805508
28.030000	237.275252
28.040000	205.479747
28.050000	148.160423
28.060000	69.559264
28.070000	-9.217685
28.080000	-90.401725
28.090000	-144.485172
28.100000	-167.743559
28.110000	-165.755049
28.120000	-150.078802
28.130000	-117.628491
28.140000	-83.775338
28.150000	-67.154971
28.160000	-90.794814
28.170000	-183.341232
28.180000	-322.986868
28.190000	-459.092930
28.200000	-522.439314
28.210000	-505.993658
28.220000	-409.889801
28.230000	-271.642207
28.240000	-135.671200
28.250000	-46.269141
28.260000	-2.306703
28.270000	20.856189
28.280000	27.021465
28.290000	19.333830
28.300000	-1.636777
28.310000	-13.775478
28.320000	-31.374590
28.330000	-57.166064
28.340000	-117.156145
28.350000	-197.761184
28.360000	-281.573920
28.370000	-346.991621
28.380000	-384.672328
28.390000	-410.271121
28.400000	-421.368280
28.410000	-425.893009
28.420000	-433.382721
28.430000	-440.460273
28.440000	-445.382600
28.450000	-445.338987
28.460000	-446.053735
28.470000	-443.171259
28.480000	-432.038722
28.490000	-413.667178
28.500000	-401.372349
28.510000	-383.743447
28.520000	-359.716071
28.530000	-331.811320
28.540000	-305.382739
28.550000	-285.527062
28.560000	-258.312457
28.570000	-234.292105
28.580000	-213.528816
28.590000	-192.696694
28.600000	-155.358081
28.610000	-108.815470
28.620000	-54.486897
28.630000	-9.961103
28.640000	35.479529
28.650000	75.864865
28.660000	122.176554
28.670000	169.999190
28.680000	216.562013
28.690000	258.816606
28.700000	296.305044
28.710000	333.330825
28.720000	347.658844
28.730000	342.598796
28.740000	321.028311
28.750000	295.242747
28.760000	256.356308
28.770000	210.611545
28.780000	160.356827
28.790000	122.035527
28.800000	98.001705
28.810000	95.823471
28.820000	94.584573
28.830000	88.335329
28.840000	66.838388
28.850000	42.592271
28.860000	23.094353
28.870000	3.163524
28.880000	-14.278380
28.890000	-37.613978
28.900000	-54.913114
28.910000	-66.743685
28.920000	-54.145511
28.930000	-18.915118
28.940000	23.265820
28.950000	39.882327
28.960000	33.455073
28.970000	11.040506
28.980000	-9.979122
28.990000	-32.174680
29.000000	-44.695101
29.010000	-53.421219
29.020000	-58.046235
29.030000	-61.662665
29.040000	-61.032302
29.050000	-56.232288
29.060000	-47.337518
29.070000	-10.722722
29.080000	44.949262
29.090000	121.830476
29.100000	194.507510
29.110000	261.128816
29.120000	305.373026
29.130000	327.486253
29.140000	333.935801
29.150000	331.190442
29.160000	313.812532
29.170000	292.619176
29.180000	264.998852
29.190000	223.380664
29.200000	172.565428
29.210000	128.518993
29.220000	113.829602
29.230000	98.859853
29.240000	77.504276
29.250000	56.916228
29.260000	46.530878
29.270000	41.946820
29.280000	26.536014
29.290000	6.719395
29.300000	-13.453459
29.310000	-39.188319
29.320000	-66.405739
29.330000	-97.769637
29.340000	-156.736983
29.350000	-229.570759
29.360000	-277.655294
29.370000	-285.424022
29.380000	-265.306102
29.390000	-264.027188
29.400000	-277.807330
29.410000	-290.920111
29.420000	-295.987485
29.430000	-279.452154
29.440000	-260.914896
29.450000	-251.617514
29.460000	-251.467540
29.470000	-250.077715
29.480000	-268.095292
29.490000	-306.808031
29.500000	-355.346356
29.510000	-370.105220
29.520000	-346.695324
29.530000	-320.836176
29.540000	-283.578618
29.550000	-243.271727
29.560000	-218.480460
29.570000	-253.769245
29.580000	-306.466659
29.590000	-322.559635
29.600000	-271.842334
29.610000	-177.153197
29.620000	-42.824722
29.630000	110.550982
29.640000	264.875414
29.650000	429.339063
29.660000	629.295501
29.670000	855.039685
29.680000	1064.301582
29.690000	1235.806675
29.700000	1369.374229
29.710000	1462.241792
29.720000	1510.786311
29.730000	1516.699879
29.740000	1496.580936
29.750000	1470.843267
29.760000	1450.357382
29.770000	1476.411433
29.780000	1550.031005
29.790000	1656.276696
29.800000	1761.995388
29.810000	1843.174346
29.820000	1853.238239
29.830000	1773.488811
29.840000	1620.584913
29.850000	1454.929923
29.860000	1297.830483
29.870000	1155.335171
29.880000	1032.746471
29.890000	925.385222
29.900000	840.701065
29.910000	753.015980
29.920000	622.621882
29.930000	424.023592
29.940000	223.131289
29.950000	93.723401
29.960000	57.501295
29.970000	50.858920
29.980000	74.384006
29.990000	76.186405
30.000000	44.713317
30.010000	-28.141120
30.020000	-105.832840
30.030000	-158.151101
30.040000	-217.884044
30.050000	-273.371307
30.060000	-300.901411
30.070000	-281.604359
30.080000	-255.413455
30.090000	-264.176122
30.100000	-339.564620
30.110000	-424.504819
30.120000	-501.826346
30.130000	-504.029855
30.140000	-401.861294
30.150000	-148.508449
30.160000	168.733370
30.170000	406.189120
30.180000	490.184378
30.190000	429.443485
30.200000	323.548479
30.210000	211.862396
30.220000	119.870801
30.230000	75.951979
30.240000	42.340570
30.250000	-1.248255
30.260000	-66.169909
30.270000	-65.851240
30.280000	80.632099
30.290000	340.561370
30.300000	627.614327
30.310000	783.770890
30.320000	649.920445
30.330000	286.576891
30.340000	-146.507896
30.350000	-526.726444
30.360000	-815.173741
30.370000	-937.607288
30.380000	-751.660668
30.390000	-443.732921
30.400000	-301.100086
30.410000	-435.050892
30.420000	-656.724427
30.430000	-730.917825
30.440000	-609.204941
30.450000	-483.454855
30.460000	-546.699016
30.470000	-808.164343
30.480000	-1120.440418
30.490000	-1329.867791
30.500000	-1419.903119
30.510000	-1436.755196
30.520000	-1418.020666
30.530000	-1390.959596
30.540000	-1341.704181
30.550000	-1281.244736
30.560000	-1259.507294
30.570000	-1274.734100
30.580000	-1316.299073
30.590000	-1372.567218
30.600000	-1471.212167
30.610000	-1656.125050
30.620000	-1848.134243
30.630000	-1979.728692
30.640000	-2046.577088
30.650000	-2158.660323
30.660000	-2359.518238
30.670000	-2551.886101
30.680000	-2674.572750
30.690000	-2717.934468
30.700000	-2690.692090
30.710000	-2521.778106
30.720000	-2193.973756
30.730000	-1762.836049
30.740000	-1322.375438
30.750000	-902.064435
30.760000	-568.560241
30.770000	-375.604953
30.780000	-322.610033
30.790000	-337.964552
30.800000	-336.637048
30.810000	-317.903055
30.820000	-292.041563
30.830000	-260.832087
30.840000	-214.427945
30.850000	-162.829352
30.860000	-129.531705
30.870000	-123.466851
30.880000	-120.892542
30.890000	-101.794662
30.900000	-56.628793
30.910000	-8.558884
30.920000	13.606293
30.930000	2.723324
30.940000	-11.737718
30.950000	-20.061635
30.960000	-38.499206
30.970000	-66.145551
30.980000	-76.202233
30.990000	-58.287130
31.000000	-29.994591
31.010000	-13.119318
31.020000	0.282410
31.030000	26.057967
31.040000	55.145512
31.050000	82.233486
31.060000	90.966300
31.070000	73.086017
31.080000	30.804032
31.090000	-17.695976
31.100000	-40.665959
31.110000	-45.931556
31.120000	-49.503240
31.130000	-52.136632
31.140000	-48.000407
31.150000	-29.681924
31.160000	-14.576853
31.170000	-4.194640
31.180000	-5.178372
31.190000	-17.700473
31.200000	-39.784793
31.210000	-55.846311
31.220000	-50.736378
31.230000	-36.410474
31.240000	-32.720112
31.250000	-38.259962
31.260000	-32.996304
31.270000	-15.169845
31.280000	10.365892
31.290000	31.557133
31.300000	48.083706
31.310000	53.925267
31.320000	61.174834
31.330000	82.618956
31.340000	118.555398
31.350000	150.250863
31.360000	188.006280
31.370000	251.900284
31.380000	362.114854
31.390000	482.719746
31.400000	592.254073
31.410000	656.160887
31.420000	674.145119
31.430000	664.310357
31.440000	632.660796
31.450000	597.484825
31.460000	556.110222
31.470000	548.434256
31.480000	570.096183
31.490000	588.297053
31.500000	563.722436
31.510000	517.985420
31.520000	494.065638
31.530000	502.910775
31.540000	512.950392
31.550000	509.875231
31.560000	485.510376
31.570000	449.881413
31.580000	421.418534
31.590000	421.220028
31.600000	425.528610
31.610000	409.881833
31.620000	391.077144
31.630000	404.920987
31.640000	433.804108
31.650000	444.910180
31.660000	444.296311
31.670000	474.658470
31.680000	535.327866
31.690000	582.947959
31.700000	597.415051
31.710000	597.001263
31.720000	632.583511
31.730000	704.240078
31.740000	778.651915
31.750000	797.735848
31.760000	780.256321
31.770000	776.309231
31.780000	793.736184
31.790000	797.757010
31.800000	735.825322
31.810000	651.794235
31.820000	593.917824
31.830000	570.045023
31.840000	554.576255
31.850000	514.934365
31.860000	497.108110
31.870000	509.711941
31.880000	516.507569
31.890000	491.842629
31.900000	465.048655
31.910000	463.959714
31.920000	480.481468
31.930000	468.629702
31.940000	439.060044
31.950000	415.993702
31.960000	414.269491
31.970000	409.573357
31.980000	388.832885
31.990000	377.581998
32.000000	376.651258
32.010000	383.570942
32.020000	392.783723
32.030000	413.589803
32.040000	436.520279
32.050000	441.902812
32.060000	441.665663
32.070000	455.559198
32.080000	471.378363
32.090000	474.196379
32.100000	471.139753
32.110000	482.858672
32.120000	512.841822
32.130000	540.776581
32.140000	538.844101
32.150000	527.146771
32.160000	516.474630
32.170000	491.766282
32.180000	424.053781
32.190000	330.499131
32.200000	263.716761
32.210000	242.124330
32.220000	231.554738
32.230000	216.453220
32.240000	193.411790
32.250000	176.148004
32.260000	168.894793
32.270000	165.800231
32.280000	167.045982
32.290000	158.063364
32.300000	144.905032
32.310000	135.984007
32.320000	141.085347
32.330000	154.512760
32.340000	153.201723
32.350000	147.450042
32.360000	148.637767
32.370000	159.346319
32.380000	166.346678
32.390000	151.545322
32.400000	141.159840
32.410000	147.354735
32.420000	176.271929
32.430000	187.016886
32.440000	180.146251
32.450000	173.708587
32.460000	191.016327
32.470000	214.936954
32.480000	232.545496
32.490000	240.505646
32.500000	254.106262
32.510000	286.381702
32.520000	313.545900
32.530000	336.639062
32.540000	315.518655
32.550000	257.004745
32.560000	174.154317
32.570000	113.775343
32.580000	96.697280
32.590000	97.731303
32.600000	99.573423
32.610000	100.708588
32.620000	98.424001
32.630000	90.330921
32.640000	78.263436
32.650000	72.954719
32.660000	79.731477
32.670000	86.172992
32.680000	94.215264
32.690000	96.341380
32.700000	102.054976
32.710000	99.426505
32.720000	92.580814
32.730000	85.152075
32.740000	79.745379
32.750000	76.846471
32.760000	74.544434
32.770000	66.837128
32.780000	48.319051
32.790000	23.495352
32.800000	7.429437
32.810000	5.099070
32.820000	-2.887490
32.830000	-13.930770
32.840000	-33.253436
32.850000	-46.267308
32.860000	-50.012675
32.870000	-53.331189
32.880000	-63.128435
32.890000	-89.766646
32.900000	-125.891191
32.910000	-165.902823
32.920000	-222.734319
32.930000	-302.717248
32.940000	-384.865702
32.950000	-438.201083
32.960000	-451.080617
32.970000	-446.477317
32.980000	-438.635780
32.990000	-435.768098
33.000000	-428.841588
33.010000	-420.789977
33.020000	-405.387354
33.030000	-380.856073
33.040000	-351.649116
33.050000	-316.605846
33.060000	-280.292577
33.070000	-234.018719
33.080000	-186.015566
33.090000	-139.785190
33.100000	-93.089579
33.110000	-34.225989
33.120000	38.775819
33.130000	124.623526
33.140000	224.614072
33.150000	331.749134
33.160000	434.739214
33.170000	523.175635
33.180000	593.849065
33.190000	656.602713
33.200000	712.900419
33.210000	736.919150
33.220000	710.269611
33.230000	657.316880
33.240000	606.613943
33.250000	594.365701
33.260000	582.049536
33.270000	533.383609
33.280000	415.791330
33.290000	233.799202
33.300000	28.930267
33.310000	-159.495979
33.320000	-286.954808
33.330000	-351.613646
33.340000	-367.254918
33.350000	-352.450198
33.360000	-307.210028
33.370000	-254.054801
33.380000	-205.845077
33.390000	-167.343876
33.400000	-135.833201
33.410000	-107.002439
33.420000	-81.542494
33.430000	-56.358274
33.440000	-29.295614
33.450000	-7.447653
33.460000	-0.764963
33.470000	-7.212729
33.480000	-18.258652
33.490000	-26.690520
33.500000	-31.812898
33.510000	-29.535214
33.520000	-8.055761
33.530000	18.505532
33.540000	39.333520
33.550000	51.858423
33.560000	65.712242
33.570000	87.157753
33.580000	104.998469
33.590000	107.744833
33.600000	105.966936
33.610000	117.640332
33.620000	146.851765
33.630000	171.417949
33.640000	181.056645
33.650000	193.559797
33.660000	207.495606
33.670000	222.658318
33.680000	212.147644
33.690000	173.443284
33.700000	110.770780
33.710000	50.574931
33.720000	12.995338
33.730000	-10.754378
33.740000	-21.139007
33.750000	-26.487294
33.760000	-30.643292
33.770000	-46.962175
33.780000	-55.438710
33.790000	-55.874465
33.800000	-46.279129
33.810000	-45.895245
33.820000	-52.778444
33.830000	-59.618623
33.840000	-66.014317
33.850000	-63.036410
33.860000	-59.349926
33.870000	-57.489016
33.880000	-60.071000
33.890000	-61.304010
33.900000	-57.182712
33.910000	-51.860722
33.920000	-54.026432
33.930000	-56.426780
33.940000	-55.934860
33.950000	-46.371407
33.960000	-37.942154
33.970000	-30.341270
33.980000	-27.014099
33.990000	-24.346334
34.000000	-23.153045
34.010000	-23.404154
34.020000	-10.975265
34.030000	9.430755
34.040000	37.157828
34.050000	50.150845
34.060000	51.971659
34.070000	56.843689
34.080000	59.007167
34.090000	66.183213
34.100000	58.576509
34.110000	37.189024
34.120000	-9.279014
34.130000	-67.796327
34.140000	-113.827841
34.150000	-137.212968
34.160000	-139.133207
34.170000	-137.400918
34.180000	-140.137830
34.190000	-148.629539
34.200000	-145.818426
34.210000	-141.324695
34.220000	-140.213346
34.230000	-151.758482
34.240000	-165.949273
34.250000	-175.928477
34.260000	-187.781863
34.270000	-191.783057
34.280000	-200.069417
34.290000	-206.983909
34.300000	-206.752026
34.310000	-202.270851
34.320000	-200.174065
34.330000	-206.953466
34.340000	-211.611022
34.350000	-206.709037
34.360000	-195.139752
34.370000	-184.541267
34.380000	-179.056058
34.390000	-179.428227
34.400000	-178.013607
34.410000	-188.103854
34.420000	-217.687973
34.430000	-247.436043
34.440000	-256.088850
34.450000	-240.215889
34.460000	-230.315147
34.470000	-225.642367
34.480000	-225.273599
34.490000	-216.101572
34.500000	-206.357052
34.510000	-216.661406
34.520000	-237.090075
34.530000	-267.648848
34.540000	-305.215038
34.550000	-371.772645
34.560000	-459.325250
34.570000	-556.956210
34.580000	-628.433913
34.590000	-677.985732
34.600000	-725.988619
34.610000	-805.786070
34.620000	-896.128760
34.630000	-961.282175
34.640000	-1006.116144
34.650000	-1033.508690
34.660000	-1069.570041
34.670000	-1103.369659
34.680000	-1119.748656
34.690000	-1103.299747
34.700000	-1084.790693
34.710000	-1108.002298
34.720000	-1126.989796
34.730000	-1090.427016
34.740000	-1023.135095
34.750000	-996.383120
34.760000	-1010.489424
34.770000	-999.895606
34.780000	-954.399854
34.790000	-914.618466
34.800000	-910.685689
34.810000	-902.552815
34.820000	-862.743694
34.830000	-798.319709
34.840000	-739.603313
34.850000	-687.409987
34.860000	-641.196993
34.870000	-598.566321
34.880000	-556.526884
34.890000	-508.784774
34.900000	-469.651240
34.910000	-447.391169
34.920000	-440.820867
34.930000	-443.387377
34.940000	-446.723406
34.950000	-452.482335
34.960000	-446.654146
34.970000	-453.754321
34.980000	-447.182366
34.990000	-391.072053
35.000000	-274.182734
35.010000	-148.969223
35.020000	-54.550950
35.030000	-2.528596
35.040000	40.132332
35.050000	55.701528
35.060000	12.038319
35.070000	-123.474015
35.080000	-344.686892
35.090000	-630.679966
35.100000	-972.181720
35.110000	-1273.720089
35.120000	-1468.827107
35.130000	-1503.866314
35.140000	-1466.932585
35.150000	-1405.638782
35.160000	-1320.980726
35.170000	-1220.499856
35.180000	-1127.141724
35.190000	-1142.313560
35.200000	-1273.448314
35.210000	-1513.825318
35.220000	-1776.939255
35.230000	-2041.252214
35.240000	-2293.188635
35.250000	-2535.460275
35.260000	-2774.852148
35.270000	-3011.385871
35.280000	-3264.638635
35.290000	-3489.536294
35.300000	-3721.715643
35.310000	-3965.001280
35.320000	-4204.810439
35.330000	-4357.678471
35.340000	-4403.814539
35.350000	-4382.585560
35.360000	-4292.439975
35.370000	-4081.755127
35.380000	-3700.469285
35.390000	-3202.275475
35.400000	-2716.772421
35.410000	-2350.798166
35.420000	-2097.160044
35.430000	-1901.922963
35.440000	-1725.650769
35.450000	-1540.141342
35.460000	-1362.661872
35.470000	-1185.018036
35.480000	-1056.558683
35.490000	-951.080955
35.500000	-866.916008
35.510000	-790.169482
35.520000	-717.694757
35.530000	-669.044971
35.540000	-666.204172
35.550000	-744.680966
35.560000	-886.288833
35.570000	-1072.705338
35.580000	-1263.367181
35.590000	-1422.463553
35.600000	-1488.094004
35.610000	-1476.823413
35.620000	-1485.426590
35.630000	-1542.046214
35.640000	-1639.713494
35.650000	-1726.863248
35.660000	-1775.113414
35.670000	-1770.100740
35.680000	-1719.287837
35.690000	-1688.880054
35.700000	-1619.831308
35.710000	-1482.452296
35.720000	-1292.210329
35.730000	-1122.561213
35.740000	-990.811743
35.750000	-978.555844
35.760000	-1186.841593
35.770000	-1666.787527
35.780000	-2287.411320
35.790000	-2901.346744
35.800000	-3430.208869
35.810000	-3832.377775
35.820000	-4090.108621
35.830000	-4201.153771
35.840000	-4234.906624
35.850000	-4227.873313
35.860000	-4189.997910
35.870000	-4090.847200
35.880000	-3963.628212
35.890000	-3829.818713
35.900000	-3700.592316
35.910000	-3574.115509
35.920000	-3444.237782
35.930000	-3313.795729
35.940000	-3180.894495
35.950000	-3051.854903
35.960000	-2923.881349
35.970000	-2800.953304
35.980000	-2692.569401
35.990000	-2588.682795
36.000000	-2483.285368
36.010000	-2373.436233
36.020000	-2281.083903
36.030000	-2212.492804
36.040000	-2158.852565
36.050000	-2125.264420
36.060000	-2100.251154
36.070000	-2090.092214
36.080000	-2079.262529
36.090000	-2059.277269
36.100000	-2025.621304
36.110000	-1983.156470
36.120000	-1961.715602
36.130000	-1948.584283
36.140000	-1937.825843
36.150000	-1930.025847
36.160000	-1943.311931
36.170000	-1969.721907
36.180000	-1990.091880
36.190000	-1996.104176
36.200000	-1997.910759
36.210000	-1996.113521
36.220000	-1994.724066
36.230000	-1998.441563
36.240000	-2007.172751
36.250000	-2019.412654
36.260000	-2026.246385
36.270000	-2038.748978
36.280000	-2051.917873
36.290000	-2069.081867
36.300000	-2081.194042
36.310000	-2089.413103
36.320000	-2097.111572
36.330000	-2104.034609
36.340000	-2106.651944
36.350000	-2103.291314
36.360000	-2099.507175
36.370000	-2090.479435
36.380000	-2081.013639
36.390000	-2062.253033
36.400000	-2055.891875
36.410000	-2058.911465
36.420000	-2073.067436
36.430000	-2079.462203
36.440000	-2078.910980
36.450000	-2081.650789
36.460000	-2090.678056
36.470000	-2124.490138
36.480000	-2160.271276
36.490000	-2197.662189
36.500000	-2215.075277
36.510000	-2233.886046
36.520000	-2257.428233
36.530000	-2306.420849
36.540000	-2378.980314
36.550000	-2462.184535
36.560000	-2532.092646
36.570000	-2587.933671
36.580000	-2627.788253
36.590000	-2651.939888
36.600000	-2664.075490
36.610000	-2660.840282
36.620000	-2655.319283
36.630000	-2637.252495
36.640000	-2621.205051
36.650000	-2599.508603
36.660000	-2574.019760
36.670000	-2542.320219
36.680000	-2496.049853
36.690000	-2420.009191
36.700000	-2317.691850
36.710000	-2200.611827
36.720000	-2087.242321
36.730000	-1970.698553
36.740000	-1818.941806
36.750000	-1614.039808
36.760000	-1376.293089
36.770000	-1170.380735
36.780000	-1028.430401
36.790000	-987.608576
36.800000	-992.517521
36.810000	-1057.228891
36.820000	-1151.348469
36.830000	-1241.370900
36.840000	-1305.405833
36.850000	-1311.009369
36.860000	-1330.273352
36.870000	-1377.342642
36.880000	-1466.325640
36.890000	-1546.012283
36.900000	-1598.315567
36.910000	-1636.612557
36.920000	-1674.815385
36.930000	-1706.997630
36.940000	-1720.466760
36.950000	-1742.326323
36.960000	-1799.282194
36.970000	-1859.991555
36.980000	-1904.622697
36.990000	-1909.804652
37.000000	-1894.902284
37.010000	-1863.059014
37.020000	-1819.671310
37.030000	-1763.776580
37.040000	-1696.256814
37.050000	-1636.353382
37.060000	-1621.030525
37.070000	-1632.249351
37.080000	-1611.494001
37.090000	-1558.436765
37.100000	-1538.934896
37.110000	-1561.258986
37.120000	-1562.971885
37.130000	-1535.015430
37.140000	-1514.587506
37.150000	-1504.459535
37.160000	-1456.175263
37.170000	-1358.114928
37.180000	-1248.340189
37.190000	-1162.200846
37.200000	-1071.098033
37.210000	-985.158930
37.220000	-924.312502
37.230000	-909.212604
37.240000	-896.107564
37.250000	-851.382156
37.260000	-825.886533
37.270000	-847.905520
37.280000	-901.624034
37.290000	-949.780162
37.300000	-1041.673322
37.310000	-1224.386607
37.320000	-1477.940151
37.330000	-1776.709788
37.340000	-2048.809318
37.350000	-2229.111421
37.360000	-2260.423978
37.370000	-2128.017174
37.380000	-1904.663581
37.390000	-1768.594291
37.400000	-1832.769384
37.410000	-2083.532865
37.420000	-2355.163813
37.430000	-2564.735510
37.440000	-2709.144528
37.450000	-2765.915688
37.460000	-2750.590742
37.470000	-2670.431201
37.480000	-2551.443496
37.490000	-2403.253741
37.500000	-2254.363721
37.510000	-2123.729284
37.520000	-2000.210755
37.530000	-1865.859161
37.540000	-1728.465073
37.550000	-1628.412018
37.560000	-1520.481269
37.570000	-1354.946337
37.580000	-1074.132985
37.590000	-716.732846
37.600000	-440.429193
37.610000	-319.270803
37.620000	-345.812874
37.630000	-403.483813
37.640000	-428.312612
37.650000	-444.574254
37.660000	-446.027059
37.670000	-444.008300
37.680000	-440.340827
37.690000	-409.322327
37.700000	-333.295730
37.710000	-255.084964
37.720000	-244.604319
37.730000	-299.926346
37.740000	-308.882970
37.750000	-262.654542
37.760000	-350.304861
37.770000	-708.836262
37.780000	-1239.004507
37.790000	-1594.596391
37.800000	-1650.230845
37.810000	-1546.671093
37.820000	-1575.785877
37.830000	-1767.603709
37.840000	-1967.407299
37.850000	-2099.991908
37.860000	-2187.530081
37.870000	-2282.694481
37.880000	-2226.632513
37.890000	-1957.220016
37.900000	-1692.391428
37.910000	-1747.563887
37.920000	-2113.472470
37.930000	-2447.536124
37.940000	-2520.070711
37.950000	-2369.114059
37.960000	-2165.567498
37.970000	-1961.896895
37.980000	-1787.193496
37.990000	-1678.558346
38.000000	-1683.701773
38.010000	-1791.574732
38.020000	-1906.824663
38.030000	-1924.072897
38.040000	-1843.075445
38.050000	-1738.278471
38.060000	-1707.221712
38.070000	-1836.616141
38.080000	-2115.257322
38.090000	-2424.145775
38.100000	-2616.367371
38.110000	-2597.299874
38.120000	-2394.289641
38.130000	-2083.394691
38.140000	-1725.306319
38.150000	-1445.801222
38.160000	-1312.291975
38.170000	-1403.698285
38.180000	-1692.106102
38.190000	-2053.783705
38.200000	-2380.410371
38.210000	-2605.093668
38.220000	-2807.557686
38.230000	-3004.667586
38.240000	-3186.063058
38.250000	-3292.536389
38.260000	-3310.117924
38.270000	-3292.345360
38.280000	-3248.134477
38.290000	-3224.673163
38.300000	-3176.640110
38.310000	-3121.579556
38.320000	-3016.046900
38.330000	-2842.287899
38.340000	-2613.599733
38.350000	-2385.836571
38.360000	-2205.513025
38.370000	-2162.887483
38.380000	-2205.746405
38.390000	-2293.678162
38.400000	-2334.875247
38.410000	-2375.212883
38.420000	-2489.110954
38.430000	-2666.540020
38.440000	-2880.988305
38.450000	-2966.834530
38.460000	-2858.819939
38.470000	-2581.383197
38.480000	-2291.352136
38.490000	-2086.769818
38.500000	-1955.577122
38.510000	-1855.397464
38.520000	-1810.304668
38.530000	-1755.764198
38.540000	-1736.644217
38.550000	-1769.360023
38.560000	-1891.344439
38.570000	-2027.278143
38.580000	-2059.221932
38.590000	-2030.596119
38.600000	-1979.035867
38.610000	-2019.073277
38.620000	-2125.409360
38.630000	-2229.370543
38.640000	-2265.727162
38.650000	-2250.488050
38.660000	-2252.115061
38.670000	-2260.979343
38.680000	-2281.792838
38.690000	-2304.676591
38.700000	-2332.413617
38.710000	-2352.234863
38.720000	-2355.611947
38.730000	-2357.084549
38.740000	-2336.939724
38.750000	-2249.415000
38.760000	-2088.257104
38.770000	-1893.415531
38.780000	-1744.221240
38.790000	-1613.992215
38.800000	-1522.843288
38.810000	-1423.241188
38.820000	-1337.510662
38.830000	-1249.901064
38.840000	-1161.401507
38.850000	-1096.130635
38.860000	-1001.583400
38.870000	-934.156137
38.880000	-880.398931
38.890000	-841.041370
38.900000	-761.211173
38.910000	-647.907933
38.920000	-546.936685
38.930000	-459.119592
38.940000	-360.391107
38.950000	-244.171826
38.960000	-143.742836
38.970000	-81.310080
38.980000	-41.101972
38.990000	-19.588948
39.000000	-18.912282
39.010000	-28.931624
39.020000	31.045036
39.030000	278.070814
39.040000	551.823828
39.050000	587.039717
39.060000	251.560960
39.070000	-289.243394
39.080000	-710.662069
39.090000	-866.743906
39.100000	-774.721665
39.110000	-581.651301
39.120000	-336.557599
39.130000	-26.094914
39.140000	335.160322
39.150000	600.400237
39.160000	681.011430
39.170000	615.890357
39.180000	603.951524
39.190000	716.684707
39.200000	887.504655
39.210000	1041.787301
39.220000	1209.680588
39.230000	1454.654498
39.240000	1748.616153
39.250000	1962.259517
39.260000	2067.182692
39.270000	2014.500118
39.280000	1789.205453
39.290000	1513.151099
39.300000	1175.904010
39.310000	869.794753
39.320000	513.507345
39.330000	187.936921
39.340000	-51.234308
39.350000	-230.083270
39.360000	-354.854689
39.370000	-411.309129
39.380000	-351.640202
39.390000	-223.048655
39.400000	-94.065749
39.410000	0.393979
39.420000	99.807465
39.430000	186.779458
39.440000	220.386383
39.450000	156.598009
39.460000	86.114897
39.470000	110.229809
39.480000	238.714139
39.490000	417.813836
39.500000	586.090251
39.510000	796.180428
39.520000	1026.402756
39.530000	1205.890374
39.540000	1297.624599
39.550000	1382.077309
39.560000	1561.063935
39.570000	1779.663865
39.580000	1982.336238
39.590000	2198.322504
39.600000	2449.766143
39.610000	2658.888325
39.620000	2787.825151
39.630000	2882.207445
39.640000	2986.743416
39.650000	3095.921556
39.660000	3169.436824
39.670000	3201.940145
39.680000	3193.691850
39.690000	3157.878172
39.700000	3132.570199
39.710000	3163.062031
39.720000	3207.773600
39.730000	3207.431931
39.740000	3078.482571
39.750000	2905.506829
39.760000	2800.514329
39.770000	2780.572649
39.780000	2784.921564
39.790000	2723.150466
39.800000	2681.077105
39.810000	2732.630742
39.820000	2867.941742
39.830000	3012.877901
39.840000	3117.152704
39.850000	3196.925817
39.860000	3263.973961
39.870000	3320.574030
39.880000	3408.534217
39.890000	3462.562524
39.900000	3491.603471
39.910000	3479.457699
39.920000	3473.493679
39.930000	3468.191235
39.940000	3450.350326
39.950000	3455.048790
39.960000	3496.478225
39.970000	3605.283999
39.980000	3748.099931
39.990000	3897.542392
40.000000	4009.018232
40.010000	4073.579637
40.020000	4099.334725
40.030000	4138.426212
40.040000	4212.593110
40.050000	4318.566486
40.060000	4428.483294
40.070000	4523.434303
40.080000	4610.484678
40.090000	4699.352814
40.100000	4796.189855
40.110000	4892.615161
40.120000	4978.611080
40.130000	5061.315268
40.140000	5139.403106
40.150000	5207.067143
40.160000	5255.922136
40.170000	5295.605910
40.180000	5345.542042
40.190000	5404.164266
40.200000	5466.900807
40.210000	5516.772167
40.220000	5559.742686
40.230000	5614.839148
40.240000	5673.267764
40.250000	5733.020749
40.260000	5767.825181
40.270000	5782.055144
40.280000	5789.847630
40.290000	5810.210698
40.300000	5845.267678
40.310000	5884.444843
40.320000	5921.148243
40.330000	5963.505092
40.340000	6015.472405
40.350000	6086.705386
40.360000	6178.901748
40.370000	6283.005785
40.380000	6400.826468
40.390000	6525.416865
40.400000	6645.877550
40.410000	6754.977685
40.420000	6866.127393
40.430000	6990.343032
40.440000	7133.175651
40.450000	7286.152232
40.460000	7435.360243
40.470000	7581.488335
40.480000	7731.718282
40.490000	7907.688524
40.500000	8104.496523
40.510000	8304.682661
40.520000	8497.456807
40.530000	8699.919030
40.540000	8931.925476
40.550000	9185.247544
40.560000	9439.531872
40.570000	9681.768945
40.580000	9924.048220
40.590000	10150.054922
40.600000	10361.792315
40.610000	10570.879531
40.620000	10763.647230
40.630000	10923.544491
40.640000	11037.360844
40.650000	11133.842068
40.660000	11246.272092
40.670000	11378.578574
40.680000	11520.331115
40.690000	11658.830306
40.700000	11801.634746
40.710000	11953.263429
40.720000	12133.838337
40.730000	12332.469105
40.740000	12534.556689
40.750000	12721.522607
40.760000	12898.866997
40.770000	13076.113301
40.780000	13239.305866
40.790000	13393.282154
40.800000	13550.960217
40.810000	13719.963081
40.820000	13890.426402
40.830000	14062.865543
40.840000	14238.086152
40.850000	14407.935826
40.860000	14562.934248
40.870000	14684.505934
40.880000	14768.345735
40.890000	14829.653109
40.900000	14882.944718
40.910000	14933.964676
40.920000	14973.356402
40.930000	15014.190950
40.940000	15043.882898
40.950000	15057.622605
40.960000	15052.263302
40.970000	15048.634677
40.980000	15056.793814
40.990000	15078.802856
41.000000	15122.850827
41.010000	15178.761782
41.020000	15243.767463
41.030000	15299.849426
41.040000	15351.915569
41.050000	15394.073713
41.060000	15434.934188
41.070000	15472.430301
41.080000	15513.804185
41.090000	15558.588946
41.100000	15607.497978
41.110000	15659.226496
41.120000	15711.671156
41.130000	15774.040393
41.140000	15838.272447
41.150000	15910.031038
41.160000	15981.973805
41.170000	16057.851248
41.180000	16140.133953
41.190000	16230.461254
41.200000	16326.070430
41.210000	16428.534496
41.220000	16523.410385
41.230000	16618.445523
41.240000	16701.468403
41.250000	16759.790402
41.260000	16818.059971
41.270000	16887.525100
41.280000	16966.371140
41.290000	17024.599950
41.300000	17068.528253
41.310000	17138.843944
41.320000	17232.301205
41.330000	17315.068763
41.340000	17379.204980
41.350000	17419.020928
41.360000	17452.556423
41.370000	17464.592134
41.380000	17465.349249
41.390000	17473.886801
41.400000	17511.174076
41.410000	17593.188637
41.420000	17711.613741
41.430000	17849.141251
41.440000	17980.032856
41.450000	18090.456189
41.460000	18192.847319
41.470000	18307.776799
41.480000	18420.207331
41.490000	18526.766034
41.500000	18617.846600
41.510000	18723.486874
41.520000	18859.395458
41.530000	19012.069205
41.540000	19144.480757
41.550000	19242.975992
41.560000	19304.848809
41.570000	19345.176614
41.580000	19365.750880
41.590000	19383.982710
41.600000	19428.906059
41.610000	19493.903897
41.620000	19567.251923
41.630000	19655.070390
41.640000	19759.441116
41.650000	19878.739127
41.660000	19985.061776
41.670000	20072.964280
41.680000	20165.914215
41.690000	20260.926658
41.700000	20383.311633
41.710000	20504.198081
41.720000	20619.558944
41.730000	20717.887625
41.740000	20813.974023
41.750000	20918.651929
41.760000	21028.425322
41.770000	21146.165791
41.780000	21271.589720
41.790000	21393.026372
41.800000	21507.812950
41.810000	21623.939601
41.820000	21741.694246
41.830000	21861.855763
41.840000	21975.873732
41.850000	22084.777479
41.860000	22201.386801
41.870000	22327.959872
41.880000	22458.822786
41.890000	22566.348214
41.900000	22633.876547
41.910000	22686.426614
41.920000	22744.481224
41.930000	22817.358708
41.940000	22894.235781
41.950000	22970.166179
41.960000	23054.542849
41.970000	23148.116789
41.980000	23269.385806
41.990000	23417.822420
42.000000	23562.271903
42.010000	23693.034075
42.020000	23814.964770
42.030000	23918.626142
42.040000	24033.837863
42.050000	24145.152197
42.060000	24272.518929
42.070000	24395.597294
42.080000	24498.226647
42.090000	24619.193794
42.100000	24748.452558
42.110000	24906.511542
42.120000	25061.155844
42.130000	25203.834506
42.140000	25336.479357
42.150000	25473.099802
42.160000	25624.687977
42.170000	25783.524509
42.180000	25949.445403
42.190000	26091.041879
42.200000	26238.199923
42.210000	26370.566776
42.220000	26536.605568
42.230000	26694.288360
42.240000	26868.957757
42.250000	27014.558126
42.260000	27176.621728
42.270000	27324.327524
42.280000	27477.783865
42.290000	27588.248211
42.300000	27711.221312
42.310000	27810.554605
42.320000	27966.597752
42.330000	28110.384669
42.340000	28357.395814
42.350000	28652.976878
42.360000	29100.170666
42.370000	29497.256413
42.380000	29773.476810
42.390000	29721.980775
42.400000	28739.827192
42.410000	26356.899191
42.420000	19152.238301
42.430000	8678.309753
42.440000	-2090.568519
42.450000	-14343.598707
42.460000	-35652.457698
42.470000	-51054.457555
42.480000	-54668.674932
42.490000	-38566.288007
42.500000	-7565.038394
42.510000	4720.596952
42.520000	6523.318380
42.530000	5311.518982
42.540000	-2047.218341
42.550000	-9311.609340
42.560000	-13747.901917
42.570000	-15982.395921
42.580000	-16261.808566
42.590000	-15086.131324
42.600000	-14080.731544
42.610000	-14020.483478
42.620000	-14694.920006
42.630000	-17029.622832
42.640000	-21161.775398
42.650000	-25492.743877
42.660000	-27874.962007
42.670000	-29395.421790
42.680000	-30599.436860
42.690000	-31792.567207
42.700000	-32465.795016
42.710000	-32675.069502
42.720000	-32383.053127
42.730000	-32037.410890
42.740000	-31697.101244
42.750000	-31605.466738
42.760000	-31676.135362
42.770000	-31846.161871
42.780000	-31720.515481
42.790000	-31315.260498
42.800000	-30693.314769
42.810000	-30202.113620
42.820000	-29824.768833
42.830000	-29537.284817
42.840000	-29259.755586
42.850000	-28984.021124
42.860000	-28713.490454
42.870000	-28450.485555
42.880000	-28129.785509
42.890000	-27772.279937
42.900000	-27410.887945
42.910000	-27126.661585
42.920000	-26943.970315
42.930000	-26861.789483
42.940000	-26830.080939
42.950000	-26807.450704
42.960000	-26759.399957
42.970000	-26705.128576
42.980000	-26609.117388
42.990000	-26440.046057
43.000000	-26202.173156
43.010000	-25954.366517
43.020000	-25749.477600
43.030000	-25586.482920
43.040000	-25431.313749
43.050000	-25264.607236
43.060000	-25084.844662
43.070000	-24910.777721
43.080000	-24734.637810
43.090000	-24565.005944
43.100000	-24392.739382
43.110000	-24221.971853
43.120000	-24032.485922
43.130000	-23831.067589
43.140000	-23631.317165
43.150000	-23437.547313
43.160000	-23256.909062
43.170000	-23075.398338
43.180000	-22901.668998
43.190000	-22718.961627
43.200000	-22531.611714
43.210000	-22340.984235
43.220000	-22159.394480
43.230000	-21989.131634
43.240000	-21812.951472
43.250000	-21628.824106
43.260000	-21426.664899
43.270000	-21228.792606
43.280000	-21030.833713
43.290000	-20848.018515
43.300000	-20675.492331
43.310000	-20511.472438
43.320000	-20355.047392
43.330000	-20195.801987
43.340000	-20030.197288
43.350000	-19853.377959
43.360000	-19673.974896
43.370000	-19497.877582
43.380000	-19328.015938
43.390000	-19162.308597
43.400000	-19003.020881
43.410000	-18849.690770
43.420000	-18702.659913
43.430000	-18560.038476
43.440000	-18425.291645
43.450000	-18292.009932
43.460000	-18154.582540
43.470000	-18008.313520
43.480000	-17868.263185
43.490000	-17741.937603
43.500000	-17627.264409
43.510000	-17513.557112
43.520000	-17386.279566
43.530000	-17246.582858
43.540000	-17097.668708
43.550000	-16955.015771
43.560000	-16824.743912
43.570000	-16697.456044
43.580000	-16567.885213
43.590000	-16434.633033
43.600000	-16308.791475
43.610000	-16191.517851
43.620000	-16076.416466
43.630000	-15953.469787
43.640000	-15825.157004
43.650000	-15698.185282
43.660000	-15571.298238
43.670000	-15447.338462
43.680000	-15322.183864
43.690000	-15204.961884
43.700000	-15082.779762
43.710000	-14952.720261
43.720000	-14819.507581
43.730000	-14697.619642
43.740000	-14585.976740
43.750000	-14465.256087
43.760000	-14307.211566
43.770000	-14118.448007
43.780000	-13936.326780
43.790000	-13778.049874
43.800000	-13657.901944
43.810000	-13525.277371
43.820000	-13397.469929
43.830000	-13289.641064
43.840000	-13206.152610
43.850000	-13130.092907
43.860000	-13038.300175
43.870000	-12956.162202
43.880000	-12881.190590
43.890000	-12807.710719
43.900000	-12735.586002
43.910000	-12666.756458
43.920000	-12592.110897
43.930000	-12510.652558
43.940000	-12423.136839
43.950000	-12343.415612
43.960000	-12260.928050
43.970000	-12171.028492
43.980000	-12064.541583
43.990000	-11945.847807
44.000000	-11833.029649
44.010000	-11721.776806
44.020000	-11615.043068
44.030000	-11503.511645
44.040000	-11400.291691
44.050000	-11303.044995
44.060000	-11208.044695
44.070000	-11114.428258
44.080000	-11016.293016
44.090000	-10921.692725
44.100000	-10825.347897
44.110000	-10732.496168
44.120000	-10639.555482
44.130000	-10547.489126
44.140000	-10451.925485
44.150000	-10349.328087
44.160000	-10243.492573
44.170000	-10141.352453
44.180000	-10037.535760
44.190000	-9930.563789
44.200000	-9822.431078
44.210000	-9739.016236
44.220000	-9693.132214
44.230000	-9668.897705
44.240000	-9649.671831
44.250000	-9615.276034
44.260000	-9619.587373
44.270000	-9664.683839
44.280000	-9703.204703
44.290000	-9676.564156
44.300000	-9574.122770
44.310000	-9446.447278
44.320000	-9300.086891
44.330000	-9130.465655
44.340000	-8934.887456
44.350000	-8731.036702
44.360000	-8532.505496
44.370000	-8360.121634
44.380000	-8215.563529
44.390000	-8092.676165
44.400000	-7991.795644
44.410000	-7903.358179
44.420000	-7834.225916
44.430000	-7748.407188
44.440000	-7646.907439
44.450000	-7541.633997
44.460000	-7472.144269
44.470000	-7451.933381
44.480000	-7450.067975
44.490000	-7430.024345
44.500000	-7347.775994
44.510000	-7209.389085
44.520000	-7032.316040
44.530000	-6858.620022
44.540000	-6707.589939
44.550000	-6587.949436
44.560000	-6489.604031
44.570000	-6408.752355
44.580000	-6340.402038
44.590000	-6271.985915
44.600000	-6205.689564
44.610000	-6144.000148
44.620000	-6096.106147
44.630000	-6066.442747
44.640000	-6041.579144
44.650000	-6011.998940
44.660000	-5968.152213
44.670000	-5907.672310
44.680000	-5849.545289
44.690000	-5798.398143
44.700000	-5761.033413
44.710000	-5727.163245
44.720000	-5675.574840
44.730000	-5613.419958
44.740000	-5538.501322
44.750000	-5472.149015
44.760000	-5408.758508
44.770000	-5354.980002
44.780000	-5300.032980
44.790000	-5244.236825
44.800000	-5191.375805
44.810000	-5134.519846
44.820000	-5078.804149
44.830000	-5012.806495
44.840000	-4946.336604
44.850000	-4873.091344
44.860000	-4801.615592
44.870000	-4734.729486
44.880000	-4671.917668
44.890000	-4613.398429
44.900000	-4553.896617
44.910000	-4492.434282
44.920000	-4432.238673
44.930000	-4368.796854
44.940000	-4308.622052
44.950000	-4239.448587
44.960000	-4168.730001
44.970000	-4092.067822
44.980000	-4018.537965
44.990000	-3944.979381
45.000000	-3865.326788
45.010000	-3794.266311
45.020000	-3731.388710
45.030000	-3684.887591
45.040000	-3647.715629
45.050000	-3624.510603
45.060000	-3606.304240
45.070000	-3570.056761
45.080000	-3514.911618
45.090000	-3459.276357
45.100000	-3414.783583
45.110000	-3382.746786
45.120000	-3350.224861
45.130000	-3313.847901
45.140000	-3269.263755
45.150000	-3220.234176
45.160000	-3177.915037
45.170000	-3140.840382
45.180000	-3107.817499
45.190000	-3075.018928
45.200000	-3038.962948
45.210000	-3000.112785
45.220000	-2950.318303
45.230000	-2895.474518
45.240000	-2839.560076
45.250000	-2785.387094
45.260000	-2729.668159
45.270000	-2666.838806
45.280000	-2607.027044
45.290000	-2554.143439
45.300000	-2507.572440
45.310000	-2456.280662
45.320000	-2400.672701
45.330000	-2344.613069
45.340000	-2287.608890
45.350000	-2227.450858
45.360000	-2165.393541
45.370000	-2102.121534
45.380000	-2041.684043
45.390000	-1979.594185
45.400000	-1908.788353
45.410000	-1835.920850
45.420000	-1770.378611
45.430000	-1720.050604
45.440000	-1682.743796
45.450000	-1657.648848
45.460000	-1644.905003
45.470000	-1633.003901
45.480000	-1601.826734
45.490000	-1564.229056
45.500000	-1526.839585
45.510000	-1503.243549
45.520000	-1482.885027
45.530000	-1462.037688
45.540000	-1442.368149
45.550000	-1411.879136
45.560000	-1382.664240
45.570000	-1352.088887
45.580000	-1331.068245
45.590000	-1312.314611
45.600000	-1288.199210
45.610000	-1261.625744
45.620000	-1231.370563
45.630000	-1203.002495
45.640000	-1175.900439
45.650000	-1145.405567
45.660000	-1117.157892
45.670000	-1086.140533
45.680000	-1051.783922
45.690000	-1014.229003
45.700000	-975.428333
45.710000	-943.342559
45.720000	-909.030076
45.730000	-873.148067
45.740000	-835.289646
45.750000	-800.624795
45.760000	-758.824365
45.770000	-708.438775
45.780000	-658.362162
45.790000	-619.561584
45.800000	-590.497208
45.810000	-571.984253
45.820000	-571.940273
45.830000	-574.625576
45.840000	-574.022118
45.850000	-561.199423
45.860000	-550.770925
45.870000	-542.329414
45.880000	-538.453767
45.890000	-537.034125
45.900000	-521.680076
45.910000	-497.709573
45.920000	-476.495884
45.930000	-471.625718
45.940000	-465.455614
45.950000	-436.756790
45.960000	-401.069515
45.970000	-363.407203
45.980000	-342.598015
45.990000	-329.184984
46.000000	-334.383413
46.010000	-359.129716
46.020000	-395.668513
46.030000	-438.933799
46.040000	-474.107182
46.050000	-511.983639
46.060000	-558.035020
46.070000	-616.863260
46.080000	-669.057453
46.090000	-697.237380
46.100000	-705.957423
46.110000	-705.105139
46.120000	-709.010279
46.130000	-711.385313
46.140000	-694.830008
46.150000	-666.859663
46.160000	-629.087615
46.170000	-585.790421
46.180000	-536.442796
46.190000	-481.162039
46.200000	-422.906536
46.210000	-371.314418
46.220000	-331.114194
46.230000	-303.208677
46.240000	-271.021215
46.250000	-227.203970
46.260000	-179.373335
46.270000	-131.254218
46.280000	-88.457922
46.290000	-57.027915
46.300000	-28.219128
46.310000	-3.207738
46.320000	33.023626
46.330000	57.806777
46.340000	73.304116
46.350000	80.793425
46.360000	97.274043
46.370000	136.087976
46.380000	176.473275
46.390000	227.793268
46.400000	276.609569
46.410000	326.550145
46.420000	374.069226
46.430000	419.331967
46.440000	461.211771
46.450000	491.786576
46.460000	516.754857
46.470000	541.608758
46.480000	568.662361
46.490000	593.791407
46.500000	614.958747
46.510000	638.719134
46.520000	656.607019
46.530000	676.757251
46.540000	711.670394
46.550000	751.141098
46.560000	787.821355
46.570000	801.574531
46.580000	792.450771
46.590000	759.767256
46.600000	709.865745
46.610000	650.401473
46.620000	594.070730
46.630000	533.093895
46.640000	461.399790
46.650000	376.921633
46.660000	278.861587
46.670000	190.616673
46.680000	103.374027
46.690000	15.475399
46.700000	-88.669505
46.710000	-199.108503
46.720000	-300.873785
46.730000	-381.869894
46.740000	-432.248913
46.750000	-447.138029
46.760000	-411.083129
46.770000	-350.337266
46.780000	-346.547771
46.790000	-432.876680
46.800000	-541.871138
46.810000	-562.092078
46.820000	-470.228405
46.830000	-335.682355
46.840000	-233.382803
46.850000	-173.204286
46.860000	-139.238427
46.870000	-103.460020
46.880000	-55.905783
46.890000	-6.861867
46.900000	45.374253
46.910000	84.940802
46.920000	121.314936
46.930000	164.340490
46.940000	203.801496
46.950000	233.691004
46.960000	256.589198
46.970000	286.355011
46.980000	327.973330
46.990000	381.965849
47.000000	451.996803
47.010000	516.476319
47.020000	552.657707
47.030000	551.336202
47.040000	525.363017
47.050000	499.551038
47.060000	483.353173
47.070000	488.771508
47.080000	518.320835
47.090000	571.325036
47.100000	667.023272
47.110000	820.552291
47.120000	1047.416630
47.130000	1284.257766
47.140000	1440.434783
47.150000	1499.872669
47.160000	1479.586673
47.170000	1443.330343
47.180000	1421.031600
47.190000	1430.144563
47.200000	1468.819168
47.210000	1509.956610
47.220000	1547.402941
47.230000	1583.869848
47.240000	1610.035323
47.250000	1632.245923
47.260000	1644.057175
47.270000	1657.769541
47.280000	1673.145428
47.290000	1705.107070
47.300000	1755.307602
47.310000	1828.234162
47.320000	1897.504842
47.330000	1965.565009
47.340000	2042.853330
47.350000	2114.627356
47.360000	2177.371339
47.370000	2071.404148
47.380000	1711.575416
47.390000	1164.416896
47.400000	684.453153
47.410000	430.328255
47.420000	350.252829
47.430000	376.366670
47.440000	452.928266
47.450000	575.727039
47.460000	722.071307
47.470000	878.970356
47.480000	990.290091
47.490000	1010.441472
47.500000	958.556733
47.510000	905.596289
47.520000	879.918964
47.530000	916.319287
47.540000	1001.704743
47.550000	1153.352000
47.560000	1215.579676
47.570000	940.032258
47.580000	534.614387
47.590000	249.740433
47.600000	242.976443
47.610000	328.425485
47.620000	334.636259
47.630000	295.938337
47.640000	271.297536
47.650000	297.996619
47.660000	441.311869
47.670000	667.062420
47.680000	938.938889
47.690000	1189.331965
47.700000	1223.845230
47.710000	1046.110796
47.720000	773.701064
47.730000	606.088942
47.740000	598.138571
47.750000	722.825502
47.760000	904.764383
47.770000	1072.899554
47.780000	1182.793367
47.790000	1231.756125
47.800000	1288.022790
47.810000	1343.747150
47.820000	1417.673097
47.830000	1527.420701
47.840000	1668.285454
47.850000	1793.005142
47.860000	1852.926169
47.870000	1876.504606
47.880000	1878.570408
47.890000	1877.057915
47.900000	1862.856707
47.910000	1849.059559
47.920000	1853.882097
47.930000	1863.034600
47.940000	1843.255698
47.950000	1771.776411
47.960000	1641.414348
47.970000	1533.173612
47.980000	1503.255654
47.990000	1589.943300
48.000000	1769.017908
48.010000	1931.911497
48.020000	2000.631879
48.030000	1959.823683
48.040000	1882.264068
48.050000	1820.126291
48.060000	1783.231122
48.070000	1779.880083
48.080000	1798.603384
48.090000	1835.117265
48.100000	1881.099007
48.110000	1957.239377
48.120000	2037.275017
48.130000	2094.172824
48.140000	2077.537730
48.150000	1961.996603
48.160000	1802.847680
48.170000	1729.186119
48.180000	1829.546645
48.190000	2058.512168
48.200000	2311.926066
48.210000	2487.689657
48.220000	2554.015042
48.230000	2456.324969
48.240000	2235.557399
48.250000	1944.521204
48.260000	1699.807184
48.270000	1586.500399
48.280000	1632.439802
48.290000	1829.591689
48.300000	2136.528537
48.310000	2498.865764
48.320000	2823.065297
48.330000	3057.146721
48.340000	3169.220475
48.350000	3215.570235
48.360000	3257.293049
48.370000	3355.568592
48.380000	3499.746707
48.390000	3620.654983
48.400000	3689.563927
48.410000	3669.641960
48.420000	3623.915255
48.430000	3570.769816
48.440000	3541.235084
48.450000	3519.038463
48.460000	3476.464437
48.470000	3430.039800
48.480000	3388.286515
48.490000	3401.774848
48.500000	3491.315235
48.510000	3645.379592
48.520000	3828.239450
48.530000	4021.998703
48.540000	4203.451206
48.550000	4336.888981
48.560000	4354.550451
48.570000	4271.652687
48.580000	4166.471713
48.590000	4103.363591
48.600000	4113.624184
48.610000	4186.283642
48.620000	4300.411060
48.630000	4428.851532
48.640000	4472.668861
48.650000	4375.875245
48.660000	4159.479089
48.670000	3935.158670
48.680000	3808.285712
48.690000	3728.029801
48.700000	3627.735249
48.710000	3466.327198
48.720000	3305.492640
48.730000	3229.047233
48.740000	3248.750209
48.750000	3317.974532
48.760000	3396.395568
48.770000	3474.693634
48.780000	3586.535114
48.790000	3723.342288
48.800000	3832.936588
48.810000	3873.403561
48.820000	3821.777255
48.830000	3740.088131
48.840000	3704.382274
48.850000	3742.368448
48.860000	3863.000252
48.870000	4001.179117
48.880000	4129.792216
48.890000	4172.259467
48.900000	4086.085876
48.910000	3867.857742
48.920000	3578.302104
48.930000	3353.745848
48.940000	3246.706096
48.950000	3306.044277
48.960000	3418.420678
48.970000	3541.964122
48.980000	3643.252601
48.990000	3754.828268
49.000000	3923.221707
49.010000	4142.315523
49.020000	4408.634704
49.030000	4677.127450
49.040000	4932.904952
49.050000	5161.383465
49.060000	5359.652661
49.070000	5526.424790
49.080000	5663.525194
49.090000	5755.202832
49.100000	5824.959215
49.110000	5881.729864
49.120000	5928.166924
49.130000	5983.094170
49.140000	6037.426043
49.150000	6099.302357
49.160000	6147.068368
49.170000	6213.125817
49.180000	6302.102938
49.190000	6401.037846
49.200000	6499.282394
49.210000	6607.147580
49.220000	6727.583340
49.230000	6849.361610
49.240000	6963.702401
49.250000	7051.693982
49.260000	7121.376392
49.270000	7188.864129
49.280000	7282.901988
49.290000	7393.746751
49.300000	7514.588383
49.310000	7628.756215
49.320000	7734.804990
49.330000	7826.241295
49.340000	7905.870992
49.350000	7983.570641
49.360000	8068.427282
49.370000	8162.707939
49.380000	8264.800446
49.390000	8364.316121
49.400000	8454.011313
49.410000	8533.439395
49.420000	8604.392056
49.430000	8677.083450
49.440000	8745.559910
49.450000	8811.914937
49.460000	8867.196515
49.470000	8900.574058
49.480000	8927.739074
49.490000	8948.355863
49.500000	8976.153841
49.510000	8995.891825
49.520000	9016.134481
49.530000	9022.532043
49.540000	9007.968831
49.550000	8986.731480
49.560000	8983.331570
49.570000	9018.420433
49.580000	9065.397738
49.590000	9108.639110
49.600000	9136.975367
49.610000	9161.083269
49.620000	9194.726486
49.630000	9229.631386
49.640000	9258.978837
49.650000	9281.357622
49.660000	9302.413138
49.670000	9334.263450
49.680000	9361.599777
49.690000	9385.374070
49.700000	9404.272730
49.710000	9429.009272
49.720000	9463.417291
49.730000	9498.766032
49.740000	9537.079627
49.750000	9571.318245
49.760000	9605.591653
49.770000	9642.016043
49.780000	9679.243826
49.790000	9717.867368
49.800000	9748.348186
49.810000	9781.920846
49.820000	9819.902096
49.830000	9860.440713
49.840000	9894.242223
49.850000	9922.126527
49.860000	9947.726358
49.870000	9970.602160
49.880000	9979.312602
49.890000	9974.909026
49.900000	9962.036840
49.910000	9936.651284
49.920000	9900.567509
49.930000	9845.821367
49.940000	9789.953865
49.950000	9745.427359
49.960000	9680.666623
49.970000	9560.468174
49.980000	9388.929486
49.990000	9207.049819
50.000000	9071.338346
50.010000	8981.241998
50.020000	8932.835675
50.030000	8919.855901
50.040000	8934.086145
50.050000	8976.918335
50.060000	9042.736421
50.070000	9143.779055
50.080000	9266.060719
50.090000	9361.288338
50.100000	9394.160179
50.110000	9331.539680
50.120000	9166.397362
50.130000	8909.903541
50.140000	8633.525811
50.150000	8435.730277
50.160000	8378.940331
50.170000	8481.818176
50.180000	8691.536093
50.190000	8929.876785
50.200000	9147.915550
50.210000	9316.689537
50.220000	9428.047506
50.230000	9482.550856
50.240000	9512.955094
50.250000	9537.054137
50.260000	9546.135392
50.270000	9497.806154
50.280000	9357.006072
50.290000	9084.880271
50.300000	8699.026545
50.310000	8283.794629
50.320000	7912.001013
50.330000	7636.301336
50.340000	7447.114264
50.350000	7377.229423
50.360000	7425.434365
50.370000	7534.967031
50.380000	7631.998156
50.390000	7671.736723
50.400000	7671.680404
50.410000	7625.383027
50.420000	7530.310725
50.430000	7394.323444
50.440000	7271.327940
50.450000	7222.204917
50.460000	7266.147323
50.470000	7315.370619
50.480000	7301.258744
50.490000	7217.942680
50.500000	7132.799944
50.510000	7038.532779
50.520000	6861.710471
50.530000	6646.324133
50.540000	6535.098664
50.550000	6612.823879
50.560000	6854.714400
50.570000	7022.259390
50.580000	7004.196650
50.590000	6683.523679
50.600000	6137.049915
50.610000	5406.190225
50.620000	4590.222310
50.630000	3788.344122
50.640000	2916.038351
50.650000	1592.827345
50.660000	-311.990094
50.670000	-2768.785663
50.680000	-5747.383632
50.690000	-8951.594336
50.700000	-11193.023900
50.710000	-12106.031840
50.720000	-12215.670220
50.730000	-12094.026082
50.740000	-11995.355430
50.750000	-11966.367874
50.760000	-11930.291426
50.770000	-11850.415239
50.780000	-11616.626890
50.790000	-11353.380050
50.800000	-11155.158615
50.810000	-11112.618231
50.820000	-11110.079414
50.830000	-11086.300220
50.840000	-11011.719953
50.850000	-10967.256735
50.860000	-10916.681452
50.870000	-10821.855613
50.880000	-10665.352269
50.890000	-10511.670026
50.900000	-10276.275633
50.910000	-9933.312095
50.920000	-9363.279522
50.930000	-8745.784565
50.940000	-8244.920784
50.950000	-7921.323903
50.960000	-7746.673062
50.970000	-7556.515619
50.980000	-7378.650533
50.990000	-7185.590149
51.000000	-6971.058380
51.010000	-6785.195824
51.020000	-6613.335118
51.030000	-6513.719298
51.040000	-6459.432784
51.050000	-6340.740696
51.060000	-6153.884112
51.070000	-5916.554087
51.080000	-5793.810394
51.090000	-5706.102914
51.100000	-5587.518448
51.110000	-5413.179102
51.120000	-5238.866330
51.130000	-5104.633987
51.140000	-4977.438907
51.150000	-4838.891447
51.160000	-4649.385711
51.170000	-4415.043809
51.180000	-4123.721761
51.190000	-3792.051366
51.200000	-3455.221660
51.210000	-3129.456410
51.220000	-2864.265896
51.230000	-2663.191424
51.240000	-2518.739347
51.250000	-2397.651810
51.260000	-2391.688899
51.270000	-2496.985528
51.280000	-2786.655750
51.290000	-3267.278922
51.300000	-3761.596626
51.310000	-3984.758936
51.320000	-3695.141511
51.330000	-3051.827949
51.340000	-2495.284107
51.350000	-2539.593791
51.360000	-3165.125183
51.370000	-3863.518063
51.380000	-4100.398609
51.390000	-3944.940170
51.400000	-3609.241063
51.410000	-3223.650527
51.420000	-2990.129263
51.430000	-3175.056464
51.440000	-3962.312429
51.450000	-5220.119862
51.460000	-6800.645461
51.470000	-8602.507643
51.480000	-10119.733519
51.490000	-11000.855475
51.500000	-11240.644275
51.510000	-11230.500385
51.520000	-11198.316227
51.530000	-11015.712896
51.540000	-10650.467512
51.550000	-10129.973417
51.560000	-9496.212103
51.570000	-8758.365996
51.580000	-7907.130235
51.590000	-6930.978907
51.600000	-5904.847669
51.610000	-4888.112925
51.620000	-3951.161153
51.630000	-3112.338421
51.640000	-2244.979332
51.650000	-1386.586340
51.660000	-524.232384
51.670000	278.380048
51.680000	969.971625
51.690000	1547.901132
51.700000	1942.076317
51.710000	2244.952769
51.720000	2452.331127
51.730000	2570.781048
51.740000	2633.738253
51.750000	2688.056151
51.760000	2750.804978
51.770000	2803.974384
51.780000	2855.346756
51.790000	2909.285484
51.800000	2958.924647
51.810000	2988.303237
51.820000	2995.604344
51.830000	3016.150597
51.840000	3064.285311
51.850000	3113.943801
51.860000	3163.087012
51.870000	3209.789965
51.880000	3269.988295
51.890000	3490.042738
51.900000	3854.825598
51.910000	4261.766054
51.920000	4558.233919
51.930000	4744.615926
51.940000	4936.328875
51.950000	5135.857368
51.960000	5351.138243
51.970000	5577.761996
51.980000	5809.971964
51.990000	6056.398451
52.000000	6310.119509
52.010000	6573.748490
52.020000	6842.264295
52.030000	7119.806009
52.040000	7416.438415
52.050000	7677.696712
52.060000	7864.662971
52.070000	7942.269662
52.080000	7959.119562
52.090000	7941.447246
52.100000	7909.890643
52.110000	7835.147936
52.120000	7744.140105
52.130000	7632.416734
52.140000	7539.829113
52.150000	7412.743516
52.160000	7315.487022
52.170000	7199.401674
52.180000	7104.359857
52.190000	6956.716512
52.200000	6839.962724
52.210000	6777.494679
52.220000	6830.628018
52.230000	6898.114482
52.240000	6962.808914
52.250000	6881.001035
52.260000	6694.443290
52.270000	6284.387203
52.280000	5793.064549
52.290000	4954.251191
52.300000	3840.211393
52.310000	2646.713151
52.320000	1815.288165
52.330000	1191.121591
52.340000	600.560373
52.350000	-315.736692
52.360000	-1440.953567
52.370000	-2786.712261
52.380000	-4004.246093
52.390000	-5152.580170
52.400000	-6111.154892
52.410000	-7252.582644
52.420000	-8156.335787
52.430000	-9486.685562
52.440000	-10825.000436
52.450000	-13337.937636
52.460000	-16867.611083
52.470000	-25878.630584
52.480000	-49345.380709
52.490000	-64335.714359
52.500000	-24104.940167
52.510000	4639.162523
52.520000	1832.882797
52.530000	-3914.999951
52.540000	-9052.386140
52.550000	-12988.097531
52.560000	-20626.590942
52.570000	-29370.441884
52.580000	-39499.034035
52.590000	-48240.340694
52.600000	-53253.719901
52.610000	-53438.229247
52.620000	-50294.659847
52.630000	-40880.325980
52.640000	-30940.022491
52.650000	-25275.252760
52.660000	-23120.799325
52.670000	-22784.020801
52.680000	-22514.860891
52.690000	-21170.222339
52.700000	-16456.188190
52.710000	-7344.618962
52.720000	4482.985829
52.730000	12506.844349
52.740000	14553.788287
52.750000	15400.770489
52.760000	15089.016906
52.770000	13515.667529
52.780000	11027.312631
52.790000	8562.022311
52.800000	6555.729522
52.810000	5387.387974
52.820000	4866.082272
52.830000	4759.140288
52.840000	4774.105748
52.850000	4536.836729
52.860000	3810.675508
52.870000	2460.313704
52.880000	729.455228
52.890000	-1089.907604
52.900000	-3022.799904
52.910000	-4456.207196
52.920000	-4744.128374
52.930000	-4076.633605
52.940000	-3149.008127
52.950000	-2679.954497
52.960000	-3033.075878
52.970000	-4332.113013
52.980000	-6145.447814
52.990000	-7434.767791
53.000000	-8616.644672
53.010000	-9934.776405
53.020000	-10705.455952
53.030000	-10365.276619
53.040000	-9416.354472
53.050000	-8873.678966
53.060000	-8472.564481
53.070000	-7615.659834
53.080000	-6510.810845
53.090000	-5382.176218
53.100000	-4601.285197
53.110000	-4278.798469
53.120000	-4023.201752
53.130000	-3203.249483
53.140000	-962.070428
53.150000	2761.583991
53.160000	5973.475670
53.170000	7218.076105
53.180000	7306.748356
53.190000	8031.053293
53.200000	9723.533272
53.210000	11376.870847
53.220000	12504.937535
53.230000	13439.790882
53.240000	14115.103550
53.250000	14341.897257
53.260000	14241.645971
53.270000	14235.016208
53.280000	14583.275084
53.290000	15083.384656
53.300000	15520.396391
53.310000	15698.664430
53.320000	15630.279883
53.330000	15045.695497
53.340000	13440.041662
53.350000	11184.991696
53.360000	9324.507170
53.370000	8612.681841
53.380000	8678.405091
53.390000	8233.375105
53.400000	6750.916457
53.410000	5277.911121
53.420000	4670.423814
53.430000	5222.422566
53.440000	6031.496980
53.450000	6741.618891
53.460000	7673.278202
53.470000	8817.760023
53.480000	10166.574703
53.490000	11295.606551
53.500000	12165.774571
53.510000	13058.845654
53.520000	13965.017060
53.530000	14671.034756
53.540000	14781.934536
53.550000	14150.409991
53.560000	12941.881962
53.570000	11066.252790
53.580000	9024.620775
53.590000	7082.614657
53.600000	5606.466483
53.610000	4238.483511
53.620000	1938.884245
53.630000	-1243.081909
53.640000	-4610.918250
53.650000	-8009.712142
53.660000	-11936.414248
53.670000	-14235.382881
53.680000	-14489.957207
53.690000	-13320.894349
53.700000	-11233.436021
53.710000	-9206.230376
53.720000	-7723.415931
53.730000	-7367.363765
53.740000	-7548.038157
53.750000	-7236.823122
53.760000	-6655.961283
53.770000	-6164.190746
53.780000	-5754.080074
53.790000	-3826.785648
53.800000	-792.359302
53.810000	882.641187
53.820000	1218.479568
53.830000	1504.465192
53.840000	1813.781939
53.850000	1410.189409
53.860000	306.597383
53.870000	-1414.440840
53.880000	-2872.609703
53.890000	-3409.562284
53.900000	-3175.587197
53.910000	-2387.416857
53.920000	-1312.589391
53.930000	16.153793
53.940000	1063.473837
53.950000	1081.251383
53.960000	401.280003
53.970000	-1105.140082
53.980000	-2899.974696
53.990000	-4787.698864
54.000000	-6681.756421
54.010000	-8715.089376
54.020000	-10375.663297
54.030000	-10385.941729
54.040000	-8746.646360
54.050000	-6684.728315
54.060000	-5026.095114
54.070000	-3775.828465
54.080000	-2560.406155
54.090000	-1693.719559
54.100000	-1238.932200
54.110000	-1528.922476
54.120000	-2307.411817
54.130000	-3574.067465
54.140000	-5215.487328
54.150000	-6697.296670
54.160000	-7494.496348
54.170000	-7512.616725
54.180000	-7626.409681
54.190000	-8134.597472
54.200000	-8680.766918
54.210000	-9391.481801
54.220000	-10428.464818
54.230000	-12142.463055
54.240000	-13707.508804
54.250000	-14671.382390
54.260000	-15058.774338
54.270000	-15084.736285
54.280000	-14845.625538
54.290000	-13648.166255
54.300000	-11896.067654
54.310000	-9927.660968
54.320000	-8440.740968
54.330000	-7217.216891
54.340000	-5877.547062
54.350000	-4632.302561
54.360000	-3488.702954
54.370000	-2621.422466
54.380000	-1682.329856
54.390000	-723.882156
54.400000	67.770582
54.410000	897.494070
54.420000	1908.798558
54.430000	3165.414655
54.440000	4400.683329
54.450000	5176.963936
54.460000	5403.954455
54.470000	5314.834744
54.480000	5413.068327
54.490000	5805.717831
54.500000	6420.457787
54.510000	7267.262484
54.520000	8317.510624
54.530000	9232.391714
54.540000	9799.012947
54.550000	9917.268087
54.560000	9647.727613
54.570000	8861.729356
54.580000	7591.990371
54.590000	5848.900979
54.600000	4083.234452
54.610000	2793.308355
54.620000	2047.068342
54.630000	1499.687204
54.640000	453.371274
54.650000	-1013.363302
54.660000	-2695.874305
54.670000	-3882.583110
54.680000	-4361.721000
54.690000	-4405.360199
54.700000	-4725.671506
54.710000	-5595.492318
54.720000	-6714.943980
54.730000	-7480.685851
54.740000	-7386.377652
54.750000	-6331.889695
54.760000	-5092.443297
54.770000	-4148.177253
54.780000	-3637.129904
54.790000	-2851.702457
54.800000	-1520.908947
54.810000	118.484876
54.820000	1681.679586
54.830000	2754.031455
54.840000	3496.624331
54.850000	3890.525581
54.860000	4080.795166
54.870000	3718.773015
54.880000	2702.085444
54.890000	468.868384
54.900000	-2576.061024
54.910000	-5846.490844
54.920000	-9127.196107
54.930000	-12630.783176
54.940000	-15548.785450
54.950000	-17245.086239
54.960000	-17828.895265
54.970000	-17671.844383
54.980000	-16361.404609
54.990000	-13712.397099
55.000000	-9311.428800
55.010000	-4907.080827
55.020000	-1957.164272
55.030000	-875.936944
55.040000	-1756.814133
55.050000	-3876.213925
55.060000	-6251.631340
55.070000	-8385.700698
55.080000	-9267.246781
55.090000	-9493.145650
55.100000	-9539.738085
55.110000	-10257.824662
55.120000	-11746.702840
55.130000	-14400.123321
55.140000	-18760.989988
55.150000	-24808.389467
55.160000	-26307.432935
55.170000	-25382.862347
