Time(s)	IR_denoised_wiener
0.000000	472.645986
0.010000	612.555494
0.020000	433.173187
0.030000	273.638657
0.040000	146.527909
0.050000	49.726607
0.060000	-12.388728
0.070000	-41.492235
0.080000	-43.608476
0.090000	-38.373949
0.100000	-21.388679
0.110000	4.430112
0.120000	30.854748
0.130000	43.588064
0.140000	41.169673
0.150000	41.166863
0.160000	45.475819
0.170000	53.104336
0.180000	62.813573
0.190000	81.094335
0.200000	103.819137
0.210000	134.467878
0.220000	166.492149
0.230000	201.892235
0.240000	238.847677
0.250000	281.692178
0.260000	331.217831
0.270000	383.168279
0.280000	437.288001
0.290000	492.998186
0.300000	557.065371
0.310000	620.470758
0.320000	689.235729
0.330000	749.238673
0.340000	808.483173
0.350000	868.002743
0.360000	927.741900
0.370000	988.448931
0.380000	1033.966404
0.390000	1029.187576
0.400000	940.538574
0.410000	782.066084
0.420000	604.552986
0.430000	443.576440
0.440000	316.523314
0.450000	231.399167
0.460000	186.470621
0.470000	169.863357
0.480000	161.396682
0.490000	162.052827
0.500000	169.646784
0.510000	191.266087
0.520000	207.822229
0.530000	212.509235
0.540000	200.331045
0.550000	184.128684
0.560000	161.123181
0.570000	137.765283
0.580000	123.581138
0.590000	117.696263
0.600000	116.687281
0.610000	106.919959
0.620000	95.169146
0.630000	86.791663
0.640000	85.965245
0.650000	77.927724
0.660000	53.425085
0.670000	6.720960
0.680000	-47.078079
0.690000	-108.884484
0.700000	-183.280437
0.710000	-271.504290
0.720000	-365.816112
0.730000	-450.461156
0.740000	-530.435617
0.750000	-617.130179
0.760000	-724.758558
0.770000	-835.741984
0.780000	-940.133647
0.790000	-1062.480794
0.800000	-1233.559178
0.810000	-1451.497672
0.820000	-1666.889612
0.830000	-1850.606760
0.840000	-1996.988726
0.850000	-2103.763746
0.860000	-2168.460236
0.870000	-2205.674897
0.880000	-2236.658304
0.890000	-2258.228208
0.900000	-2256.203063
0.910000	-2236.548043
0.920000	-2229.192438
0.930000	-2240.850507
0.940000	-2257.505512
0.950000	-2270.549362
0.960000	-2278.554061
0.970000	-2272.945216
0.980000	-2245.320567
0.990000	-2194.746577
1.000000	-2137.854470
1.010000	-2084.917109
1.020000	-2040.760852
1.030000	-2002.788812
1.040000	-1966.718270
1.050000	-1930.723693
1.060000	-1894.737695
1.070000	-1858.048052
1.080000	-1815.804396
1.090000	-1767.109289
1.100000	-1705.917013
1.110000	-1640.604218
1.120000	-1578.421297
1.130000	-1522.148967
1.140000	-1469.641471
1.150000	-1412.406354
1.160000	-1355.295673
1.170000	-1294.705189
1.180000	-1265.454036
1.190000	-1312.096670
1.200000	-1451.937399
1.210000	-1639.048254
1.220000	-1809.438850
1.230000	-1936.504129
1.240000	-2017.073510
1.250000	-2055.717334
1.260000	-2064.131020
1.270000	-2052.329737
1.280000	-2033.936107
1.290000	-2009.644809
1.300000	-1972.458738
1.310000	-1940.768764
1.320000	-1915.339245
1.330000	-1912.007532
1.340000	-1915.875863
1.350000	-1918.672124
1.360000	-1910.816938
1.370000	-1887.758982
1.380000	-1854.192260
1.390000	-1810.911037
1.400000	-1762.320448
1.410000	-1707.792579
1.420000	-1642.848386
1.430000	-1570.772780
1.440000	-1502.140679
1.450000	-1431.119234
1.460000	-1359.532296
1.470000	-1282.860193
1.480000	-1214.719277
1.490000	-1150.964872
1.500000	-1089.992679
1.510000	-1026.138110
1.520000	-957.021743
1.530000	-879.723421
1.540000	-803.498051
1.550000	-722.681803
1.560000	-639.744313
1.570000	-593.153569
1.580000	-625.750658
1.590000	-748.619739
1.600000	-898.969276
1.610000	-1018.179426
1.620000	-1084.705323
1.630000	-1112.920234
1.640000	-1111.842664
1.650000	-1094.755614
1.660000	-1067.709850
1.670000	-1037.008238
1.680000	-997.629322
1.690000	-950.694621
1.700000	-911.671907
1.710000	-893.457802
1.720000	-894.759525
1.730000	-906.951655
1.740000	-914.245079
1.750000	-908.551064
1.760000	-886.160524
1.770000	-838.555243
1.780000	-777.215652
1.790000	-712.641590
1.800000	-658.364069
1.810000	-617.785176
1.820000	-578.888619
1.830000	-542.382278
1.840000	-500.475147
1.850000	-456.428468
1.860000	-410.472156
1.870000	-375.595249
1.880000	-354.192351
1.890000	-347.511233
1.900000	-339.283521
1.910000	-313.179529
1.920000	-262.821231
1.930000	-208.674152
1.940000	-162.420809
1.950000	-124.557429
1.960000	-120.174033
1.970000	-183.217852
1.980000	-324.616904
1.990000	-488.113332
2.000000	-629.512545
2.010000	-733.507839
2.020000	-807.557107
2.030000	-851.300644
2.040000	-869.368511
2.050000	-872.530148
2.060000	-870.931399
2.070000	-859.470990
2.080000	-834.919327
2.090000	-812.549227
2.100000	-802.646804
2.110000	-807.692604
2.120000	-820.768373
2.130000	-835.256702
2.140000	-852.999724
2.150000	-857.189436
2.160000	-843.685700
2.170000	-810.213761
2.180000	-772.841821
2.190000	-736.293315
2.200000	-697.395931
2.210000	-651.789230
2.220000	-605.732109
2.230000	-568.379272
2.240000	-526.426042
2.250000	-485.774773
2.260000	-436.161540
2.270000	-390.987833
2.280000	-341.923164
2.290000	-293.989966
2.300000	-247.758209
2.310000	-202.741429
2.320000	-157.342345
2.330000	-105.900452
2.340000	-59.725054
2.350000	-12.095159
2.360000	16.064526
2.370000	-9.411253
2.380000	-119.221301
2.390000	-293.005279
2.400000	-467.473965
2.410000	-605.422263
2.420000	-701.231268
2.430000	-758.950255
2.440000	-790.093426
2.450000	-803.889549
2.460000	-811.378026
2.470000	-823.913728
2.480000	-824.000615
2.490000	-808.394154
2.500000	-790.753271
2.510000	-783.621689
2.520000	-792.904390
2.530000	-794.182487
2.540000	-794.892735
2.550000	-793.133882
2.560000	-788.300722
2.570000	-772.815374
2.580000	-747.146556
2.590000	-718.597876
2.600000	-683.711555
2.610000	-647.819725
2.620000	-604.993975
2.630000	-556.476088
2.640000	-503.023019
2.650000	-449.558316
2.660000	-398.793538
2.670000	-346.368462
2.680000	-288.980759
2.690000	-231.280702
2.700000	-181.257186
2.710000	-140.588761
2.720000	-107.604010
2.730000	-66.938590
2.740000	-12.388485
2.750000	50.266397
2.760000	111.070189
2.770000	163.402051
2.780000	176.383969
2.790000	111.104258
2.800000	-30.601498
2.810000	-204.487997
2.820000	-357.640545
2.830000	-475.262117
2.840000	-547.770867
2.850000	-581.489982
2.860000	-583.981093
2.870000	-572.153128
2.880000	-561.931325
2.890000	-547.499031
2.900000	-522.956897
2.910000	-490.943708
2.920000	-476.118026
2.930000	-483.409026
2.940000	-501.977087
2.950000	-516.937553
2.960000	-525.944649
2.970000	-524.534062
2.980000	-505.645282
2.990000	-476.910860
3.000000	-438.063880
3.010000	-389.696070
3.020000	-339.908881
3.030000	-290.201977
3.040000	-240.822322
3.050000	-186.430805
3.060000	-130.163684
3.070000	-78.406245
3.080000	-30.222336
3.090000	13.877231
3.100000	54.318098
3.110000	96.103419
3.120000	144.790483
3.130000	194.562419
3.140000	243.203768
3.150000	293.299234
3.160000	351.225721
3.170000	409.596785
3.180000	470.539291
3.190000	528.472269
3.200000	545.363113
3.210000	481.609768
3.220000	331.212493
3.230000	152.189969
3.240000	-12.044438
3.250000	-134.674680
3.260000	-212.097457
3.270000	-255.311502
3.280000	-267.527555
3.290000	-259.701132
3.300000	-239.346135
3.310000	-218.166602
3.320000	-194.859718
3.330000	-172.374205
3.340000	-165.135002
3.350000	-176.614966
3.360000	-191.421435
3.370000	-201.271274
3.380000	-200.443980
3.390000	-192.348117
3.400000	-175.180725
3.410000	-150.829996
3.420000	-120.309685
3.430000	-80.026888
3.440000	-36.527203
3.450000	8.395511
3.460000	52.527319
3.470000	99.106365
3.480000	150.519935
3.490000	207.085585
3.500000	259.092680
3.510000	306.699868
3.520000	346.263219
3.530000	384.618121
3.540000	420.018990
3.550000	455.491890
3.560000	494.384999
3.570000	535.964073
3.580000	585.377060
3.590000	638.688135
3.600000	690.308339
3.610000	740.371936
3.620000	784.839096
3.630000	780.225258
3.640000	686.657879
3.650000	502.796092
3.660000	298.952048
3.670000	123.919978
3.680000	-5.228527
3.690000	-89.727133
3.700000	-140.823766
3.710000	-160.402123
3.720000	-168.856551
3.730000	-170.419197
3.740000	-161.921922
3.750000	-135.810238
3.760000	-101.753716
3.770000	-82.288837
3.780000	-88.606331
3.790000	-106.415865
3.800000	-124.184701
3.810000	-134.271526
3.820000	-134.830030
3.830000	-119.833178
3.840000	-93.219967
3.850000	-56.438317
3.860000	-16.007255
3.870000	28.592691
3.880000	73.477082
3.890000	116.579321
3.900000	158.252268
3.910000	204.532670
3.920000	248.610181
3.930000	295.470002
3.940000	334.543863
3.950000	380.094255
3.960000	419.021348
3.970000	465.412366
3.980000	503.369225
3.990000	438.467774
4.000000	295.330603
4.010000	102.821582
4.020000	-28.864334
4.030000	-116.218711
4.040000	-173.432217
4.050000	-202.939098
4.060000	-222.086560
4.070000	-231.993529
4.080000	-235.122993
4.090000	-222.060183
4.100000	-206.935386
4.110000	-198.155519
4.120000	-208.804803
4.130000	-218.870572
4.140000	-222.089043
4.150000	-216.641333
4.160000	-206.432274
4.170000	-195.789628
4.180000	-186.812191
4.190000	-185.324063
4.200000	-183.196125
4.210000	-170.228249
4.220000	-150.661591
4.230000	-122.155990
4.240000	-84.841903
4.250000	-33.777619
4.260000	24.237960
4.270000	86.237269
4.280000	145.266443
4.290000	199.225299
4.300000	245.921391
4.310000	290.861432
4.320000	335.860059
4.330000	383.460331
4.340000	434.087242
4.350000	487.351558
4.360000	539.934509
4.370000	596.559899
4.380000	648.707314
4.390000	694.080804
4.400000	746.152447
4.410000	783.468350
4.420000	759.491464
4.430000	631.161760
4.440000	436.015023
4.450000	239.227798
4.460000	81.100494
4.470000	-25.484380
4.480000	-81.220712
4.490000	-98.263904
4.500000	-90.582579
4.510000	-74.752751
4.520000	-52.940172
4.530000	-17.583331
4.540000	18.611638
4.550000	50.906566
4.560000	59.754893
4.570000	55.444043
4.580000	47.194376
4.590000	39.601499
4.600000	42.280515
4.610000	50.686454
4.620000	71.363691
4.630000	103.718570
4.640000	143.737760
4.650000	182.370656
4.660000	213.086073
4.670000	241.022302
4.680000	274.076323
4.690000	309.612897
4.700000	352.054012
4.710000	392.802635
4.720000	429.684421
4.730000	464.638926
4.740000	504.630724
4.750000	558.783410
4.760000	613.149424
4.770000	665.930523
4.780000	709.621870
4.790000	757.103201
4.800000	801.342691
4.810000	849.284141
4.820000	896.000928
4.830000	926.407337
4.840000	894.210411
4.850000	775.562599
4.860000	600.538535
4.870000	418.742158
4.880000	267.804545
4.890000	155.811445
4.900000	92.713326
4.910000	68.797814
4.920000	72.922702
4.930000	87.738426
4.940000	109.808351
4.950000	135.316155
4.960000	166.014223
4.970000	191.833108
4.980000	203.861734
4.990000	203.015606
5.000000	193.690791
5.010000	186.854902
5.020000	192.823566
5.030000	216.652018
5.040000	255.573885
5.050000	297.729943
5.060000	345.001148
5.070000	393.096877
5.080000	446.425014
5.090000	505.759960
5.100000	566.473584
5.110000	618.046482
5.120000	665.203719
5.130000	713.976358
5.140000	767.231665
5.150000	819.857549
5.160000	869.574013
5.170000	924.072805
5.180000	975.513760
5.190000	1030.300619
5.200000	1088.075076
5.210000	1145.827992
5.220000	1207.963617
5.230000	1267.965586
5.240000	1330.523163
5.250000	1392.722528
5.260000	1426.654283
5.270000	1388.743325
5.280000	1252.138197
5.290000	1058.926968
5.300000	870.314744
5.310000	724.688018
5.320000	630.047863
5.330000	581.720895
5.340000	569.071183
5.350000	578.385163
5.360000	593.059672
5.370000	607.719969
5.380000	624.374728
5.390000	647.367394
5.400000	665.285966
5.410000	665.317004
5.420000	652.886574
5.430000	635.912634
5.440000	627.473764
5.450000	628.447056
5.460000	644.713560
5.470000	675.267978
5.480000	719.593327
5.490000	766.364391
5.500000	809.793355
5.510000	845.436083
5.520000	881.332457
5.530000	924.810466
5.540000	966.463431
5.550000	1013.534932
5.560000	1052.173996
5.570000	1093.966628
5.580000	1137.486018
5.590000	1182.371608
5.600000	1226.764097
5.610000	1272.423180
5.620000	1324.688463
5.630000	1377.078535
5.640000	1425.254753
5.650000	1470.050580
5.660000	1518.473590
5.670000	1572.978806
5.680000	1627.972091
5.690000	1681.886274
5.700000	1728.425519
5.710000	1724.326513
5.720000	1638.546531
5.730000	1469.481329
5.740000	1270.117561
5.750000	1100.288044
5.760000	972.859029
5.770000	897.719015
5.780000	855.485529
5.790000	839.149048
5.800000	836.061266
5.810000	836.885875
5.820000	846.974679
5.830000	859.218776
5.840000	874.205820
5.850000	872.793696
5.860000	854.116314
5.870000	823.347304
5.880000	793.008694
5.890000	770.180599
5.900000	755.176716
5.910000	751.984467
5.920000	750.265457
5.930000	748.104447
5.940000	743.312664
5.950000	746.551842
5.960000	758.958729
5.970000	775.941415
5.980000	801.251845
5.990000	819.234702
6.000000	835.560096
6.010000	843.449902
6.020000	859.889253
6.030000	884.907034
6.040000	918.840619
6.050000	958.976667
6.060000	997.732338
6.070000	1034.351621
6.080000	1062.895896
6.090000	1088.709800
6.100000	1117.679332
6.110000	1158.025601
6.120000	1194.682826
6.130000	1225.660802
6.140000	1252.980286
6.150000	1262.868362
6.160000	1209.137234
6.170000	1073.767913
6.180000	892.054666
6.190000	721.341505
6.200000	592.846572
6.210000	510.452328
6.220000	469.560237
6.230000	452.471627
6.240000	448.236293
6.250000	448.441147
6.260000	453.211782
6.270000	470.039605
6.280000	484.735821
6.290000	488.928186
6.300000	474.199936
6.310000	452.478891
6.320000	434.934256
6.330000	417.258752
6.340000	404.632335
6.350000	401.306466
6.360000	409.929113
6.370000	426.271092
6.380000	445.492709
6.390000	472.530421
6.400000	503.967237
6.410000	535.052649
6.420000	568.060301
6.430000	604.170466
6.440000	648.094332
6.450000	685.499921
6.460000	721.779147
6.470000	754.069314
6.480000	787.080031
6.490000	820.218738
6.500000	853.643557
6.510000	894.981905
6.520000	942.774662
6.530000	991.993774
6.540000	1029.808807
6.550000	1068.331244
6.560000	1100.713927
6.570000	1087.167227
6.580000	985.199894
6.590000	814.093741
6.600000	637.059973
6.610000	494.209519
6.620000	388.737288
6.630000	323.575782
6.640000	296.317047
6.650000	294.163194
6.660000	298.462985
6.670000	308.715279
6.680000	331.542544
6.690000	356.801268
6.700000	370.524117
6.710000	358.799151
6.720000	339.503968
6.730000	318.340448
6.740000	298.720271
6.750000	281.115633
6.760000	274.868781
6.770000	283.114159
6.780000	303.909617
6.790000	325.324063
6.800000	342.875602
6.810000	354.110100
6.820000	364.767194
6.830000	376.119505
6.840000	385.215354
6.850000	391.703422
6.860000	399.241091
6.870000	409.180099
6.880000	420.826158
6.890000	444.918986
6.900000	471.584600
6.910000	499.911665
6.920000	527.901746
6.930000	559.815736
6.940000	598.441554
6.950000	635.916433
6.960000	681.921260
6.970000	724.515289
6.980000	772.681808
6.990000	796.229075
7.000000	754.635661
7.010000	626.215418
7.020000	434.934870
7.030000	244.195843
7.040000	79.682054
7.050000	-44.304289
7.060000	-124.050013
7.070000	-162.941627
7.080000	-180.946197
7.090000	-191.680972
7.100000	-212.640012
7.110000	-226.111473
7.120000	-237.519425
7.130000	-238.627372
7.140000	-254.280147
7.150000	-278.516640
7.160000	-300.152029
7.170000	-311.207749
7.180000	-313.845655
7.190000	-315.374408
7.200000	-306.957206
7.210000	-294.711931
7.220000	-273.501817
7.230000	-245.200195
7.240000	-211.511634
7.250000	-176.494771
7.260000	-138.974432
7.270000	-98.258875
7.280000	-56.246719
7.290000	-18.837182
7.300000	18.371899
7.310000	55.434342
7.320000	99.537711
7.330000	143.860816
7.340000	186.910745
7.350000	221.463296
7.360000	254.179488
7.370000	293.594319
7.380000	340.616504
7.390000	395.244550
7.400000	444.538844
7.410000	487.781692
7.420000	481.863911
7.430000	393.196620
7.440000	219.458971
7.450000	16.621569
7.460000	-166.115508
7.470000	-306.178420
7.480000	-399.226067
7.490000	-457.176598
7.500000	-485.807488
7.510000	-498.350502
7.520000	-501.527136
7.530000	-505.022842
7.540000	-501.357449
7.550000	-492.212336
7.560000	-486.701010
7.570000	-500.246169
7.580000	-527.481988
7.590000	-549.404558
7.600000	-559.460007
7.610000	-555.739380
7.620000	-543.622544
7.630000	-522.890811
7.640000	-491.278932
7.650000	-457.907132
7.660000	-420.739107
7.670000	-384.778026
7.680000	-343.670802
7.690000	-305.191233
7.700000	-268.416257
7.710000	-232.108690
7.720000	-199.011886
7.730000	-164.178392
7.740000	-133.143803
7.750000	-104.737964
7.760000	-76.113526
7.770000	-50.490736
7.780000	-16.888234
7.790000	10.175006
7.800000	34.876173
7.810000	61.996049
7.820000	78.410925
7.830000	43.894719
7.840000	-73.212853
7.850000	-246.229214
7.860000	-429.635197
7.870000	-584.555819
7.880000	-702.994228
7.890000	-777.402988
7.900000	-816.584942
7.910000	-834.117490
7.920000	-836.009861
7.930000	-828.688897
7.940000	-809.934217
7.950000	-784.804240
7.960000	-768.076631
7.970000	-761.408991
7.980000	-767.748770
7.990000	-774.832217
8.000000	-773.289846
8.010000	-763.811451
8.020000	-747.360776
8.030000	-725.990163
8.040000	-699.957311
8.050000	-664.352590
8.060000	-626.786846
8.070000	-581.878644
8.080000	-534.176996
8.090000	-481.587150
8.100000	-429.121386
8.110000	-376.148894
8.120000	-330.291194
8.130000	-289.220075
8.140000	-252.336526
8.150000	-215.152022
8.160000	-177.599457
8.170000	-141.294718
8.180000	-102.387504
8.190000	-60.320589
8.200000	-4.689971
8.210000	48.706107
8.220000	102.849677
8.230000	147.152065
8.240000	156.137638
8.250000	91.350905
8.260000	-54.701498
8.270000	-235.180499
8.280000	-402.752750
8.290000	-535.997215
8.300000	-625.719058
8.310000	-676.400304
8.320000	-700.256077
8.330000	-716.706644
8.340000	-725.289268
8.350000	-734.589268
8.360000	-727.804808
8.370000	-711.087653
8.380000	-689.537480
8.390000	-683.181023
8.400000	-695.111589
8.410000	-708.107165
8.420000	-716.272663
8.430000	-709.578419
8.440000	-695.037626
8.450000	-671.250920
8.460000	-643.713143
8.470000	-611.798826
8.480000	-576.953825
8.490000	-540.239071
8.500000	-505.429275
8.510000	-465.210090
8.520000	-428.511147
8.530000	-388.366499
8.540000	-351.526982
8.550000	-319.405103
8.560000	-284.081276
8.570000	-247.034174
8.580000	-210.536300
8.590000	-178.232794
8.600000	-149.211812
8.610000	-113.306221
8.620000	-67.140095
8.630000	-15.302868
8.640000	35.691105
8.650000	83.810348
8.660000	108.902862
8.670000	85.004037
8.680000	-10.112562
8.690000	-138.541790
8.700000	-251.001968
8.710000	-329.078179
8.720000	-373.182757
8.730000	-407.921242
8.740000	-433.871664
8.750000	-459.694497
8.760000	-483.774220
8.770000	-505.045015
8.780000	-521.249798
8.790000	-521.281389
8.800000	-518.369585
8.810000	-523.756870
8.820000	-535.698797
8.830000	-539.776492
8.840000	-533.306383
8.850000	-523.403021
8.860000	-514.821331
8.870000	-503.920845
8.880000	-483.574901
8.890000	-454.040988
8.900000	-424.936720
8.910000	-395.716256
8.920000	-370.561727
8.930000	-349.296918
8.940000	-325.086300
8.950000	-295.140371
8.960000	-258.869080
8.970000	-235.290330
8.980000	-216.831964
8.990000	-195.359027
9.000000	-157.701783
9.010000	-113.411372
9.020000	-62.801284
9.030000	-15.077004
9.040000	40.230578
9.050000	92.275672
9.060000	149.057240
9.070000	201.657784
9.080000	247.978051
9.090000	290.794899
9.100000	314.923995
9.110000	300.325998
9.120000	212.904835
9.130000	74.416853
9.140000	-73.654275
9.150000	-192.761644
9.160000	-272.218344
9.170000	-308.221307
9.180000	-309.746924
9.190000	-287.281679
9.200000	-270.926420
9.210000	-265.202654
9.220000	-263.339571
9.230000	-245.686734
9.240000	-227.781657
9.250000	-234.128203
9.260000	-257.737146
9.270000	-278.801504
9.280000	-288.323162
9.290000	-298.467575
9.300000	-309.478208
9.310000	-314.716982
9.320000	-312.583122
9.330000	-305.580824
9.340000	-297.628872
9.350000	-287.367576
9.360000	-274.281470
9.370000	-259.096051
9.380000	-247.553278
9.390000	-242.756493
9.400000	-240.745347
9.410000	-234.348223
9.420000	-223.898582
9.430000	-213.892381
9.440000	-196.960666
9.450000	-179.415993
9.460000	-156.267352
9.470000	-135.250647
9.480000	-111.482568
9.490000	-84.374053
9.500000	-60.996216
9.510000	-34.403455
9.520000	-3.470778
9.530000	25.935916
9.540000	13.012909
9.550000	-70.302611
9.560000	-204.318901
9.570000	-345.756777
9.580000	-457.615478
9.590000	-533.576501
9.600000	-571.538686
9.610000	-583.049185
9.620000	-580.747457
9.630000	-576.469311
9.640000	-572.546857
9.650000	-565.490591
9.660000	-556.978001
9.670000	-554.479071
9.680000	-570.040073
9.690000	-598.372028
9.700000	-626.700736
9.710000	-642.886268
9.720000	-648.351914
9.730000	-640.676928
9.740000	-626.314823
9.750000	-604.067640
9.760000	-583.261407
9.770000	-565.726234
9.780000	-555.168646
9.790000	-547.987284
9.800000	-539.696341
9.810000	-525.203239
9.820000	-504.194081
9.830000	-487.072564
9.840000	-469.609239
9.850000	-456.591270
9.860000	-441.618623
9.870000	-430.101031
9.880000	-414.551537
9.890000	-397.263601
9.900000	-377.435553
9.910000	-362.074211
9.920000	-343.573014
9.930000	-319.526338
9.940000	-295.025281
9.950000	-266.917019
9.960000	-255.503474
9.970000	-293.637321
9.980000	-400.573112
9.990000	-563.899750
10.000000	-736.510190
10.010000	-897.864852
10.020000	-1037.772359
10.030000	-1144.121643
10.040000	-1227.059578
10.050000	-1285.979765
10.060000	-1335.018427
10.070000	-1374.096917
10.080000	-1410.295271
10.090000	-1443.158623
10.100000	-1470.867190
10.110000	-1500.209698
10.120000	-1536.400735
10.130000	-1574.866721
10.140000	-1606.889266
10.150000	-1632.180131
10.160000	-1653.352520
10.170000	-1670.119171
10.180000	-1681.781741
10.190000	-1685.686759
10.200000	-1687.868888
10.210000	-1687.536465
10.220000	-1687.266279
10.230000	-1685.676404
10.240000	-1692.328268
10.250000	-1702.077253
10.260000	-1713.368168
10.270000	-1718.763403
10.280000	-1722.073814
10.290000	-1726.750133
10.300000	-1729.729847
10.310000	-1742.077302
10.320000	-1756.303245
10.330000	-1776.738601
10.340000	-1794.141025
10.350000	-1808.727528
10.360000	-1815.599711
10.370000	-1818.374764
10.380000	-1824.704350
10.390000	-1830.290660
10.400000	-1850.163484
10.410000	-1923.240159
10.420000	-2069.538610
10.430000	-2274.061283
10.440000	-2483.776954
10.450000	-2672.924856
10.460000	-2821.665633
10.470000	-2928.472638
10.480000	-3004.556364
10.490000	-3064.329423
10.500000	-3118.069066
10.510000	-3168.799385
10.520000	-3212.194430
10.530000	-3244.570358
10.540000	-3269.973316
10.550000	-3298.657029
10.560000	-3345.730525
10.570000	-3398.632339
10.580000	-3451.136067
10.590000	-3490.888030
10.600000	-3516.869540
10.610000	-3528.441127
10.620000	-3531.918024
10.630000	-3532.286004
10.640000	-3531.586687
10.650000	-3527.078823
10.660000	-3519.224685
10.670000	-3508.832563
10.680000	-3498.493629
10.690000	-3490.544378
10.700000	-3483.042298
10.710000	-3470.203131
10.720000	-3454.236405
10.730000	-3437.150787
10.740000	-3420.718599
10.750000	-3406.719794
10.760000	-3395.484045
10.770000	-3388.244402
10.780000	-3380.185196
10.790000	-3371.734906
10.800000	-3360.495897
10.810000	-3345.178233
10.820000	-3330.438491
10.830000	-3316.891777
10.840000	-3320.704185
10.850000	-3368.914622
10.860000	-3484.570716
10.870000	-3661.133680
10.880000	-3853.942336
10.890000	-4028.656512
10.900000	-4165.628678
10.910000	-4264.839875
10.920000	-4328.593578
10.930000	-4367.985098
10.940000	-4400.846870
10.950000	-4434.035543
10.960000	-4468.016762
10.970000	-4489.313941
10.980000	-4510.523244
10.990000	-4538.841192
11.000000	-4577.614844
11.010000	-4618.931856
11.020000	-4650.286788
11.030000	-4680.673118
11.040000	-4703.506056
11.050000	-4722.030021
11.060000	-4736.303722
11.070000	-4744.968655
11.080000	-4751.699280
11.090000	-4749.460357
11.100000	-4739.364753
11.110000	-4721.528548
11.120000	-4704.631300
11.130000	-4694.498082
11.140000	-4687.445851
11.150000	-4678.369402
11.160000	-4665.506818
11.170000	-4649.482689
11.180000	-4633.809280
11.190000	-4622.495694
11.200000	-4614.327174
11.210000	-4608.738326
11.220000	-4596.045904
11.230000	-4583.250667
11.240000	-4562.946928
11.250000	-4542.690580
11.260000	-4523.714986
11.270000	-4499.324338
11.280000	-4478.405999
11.290000	-4491.562396
11.300000	-4582.675951
11.310000	-4742.193934
11.320000	-4928.395546
11.330000	-5103.371658
11.340000	-5251.376089
11.350000	-5363.766632
11.360000	-5428.542777
11.370000	-5459.759469
11.380000	-5472.235427
11.390000	-5488.294313
11.400000	-5500.699110
11.410000	-5507.359646
11.420000	-5507.012178
11.430000	-5518.658483
11.440000	-5549.467949
11.450000	-5596.100983
11.460000	-5648.408169
11.470000	-5688.355570
11.480000	-5707.539135
11.490000	-5692.424215
11.500000	-5638.520241
11.510000	-5534.630188
11.520000	-5401.742576
11.530000	-5270.345460
11.540000	-5165.430031
11.550000	-5081.119814
11.560000	-5016.271291
11.570000	-4961.676402
11.580000	-4921.951787
11.590000	-4897.686709
11.600000	-4879.399554
11.610000	-4859.493911
11.620000	-4825.956998
11.630000	-4789.147759
11.640000	-4753.947962
11.650000	-4711.876802
11.660000	-4664.408131
11.670000	-4607.027869
11.680000	-4560.372426
11.690000	-4508.175843
11.700000	-4446.799517
11.710000	-4385.116119
11.720000	-4372.091128
11.730000	-4408.006852
11.740000	-4452.685521
11.750000	-4485.695442
11.760000	-4502.396597
11.770000	-4503.802528
11.780000	-4465.771178
11.790000	-4394.388168
11.800000	-4301.887754
11.810000	-4199.024397
11.820000	-4093.045536
11.830000	-3969.648435
11.840000	-3819.593689
11.850000	-3640.998584
11.860000	-3407.443103
11.870000	-3134.495436
11.880000	-2834.310559
11.890000	-2562.134074
11.900000	-2344.451788
11.910000	-2177.371350
11.920000	-2069.639099
11.930000	-2006.551536
11.940000	-1978.844601
11.950000	-1971.381430
11.960000	-1980.409784
11.970000	-1989.835066
11.980000	-1988.308191
11.990000	-1978.643665
12.000000	-1993.935015
12.010000	-2048.709034
12.020000	-2100.709478
12.030000	-2111.417420
12.040000	-2079.548103
12.050000	-2034.166856
12.060000	-1997.989426
12.070000	-1965.788785
12.080000	-1931.707349
12.090000	-1894.363750
12.100000	-1853.364458
12.110000	-1819.568481
12.120000	-1780.217936
12.130000	-1760.467607
12.140000	-1791.005896
12.150000	-1884.231456
12.160000	-2020.282537
12.170000	-2147.480855
12.180000	-2256.577624
12.190000	-2346.316410
12.200000	-2407.076221
12.210000	-2428.371675
12.220000	-2399.792693
12.230000	-2365.122357
12.240000	-2351.004217
12.250000	-2366.027786
12.260000	-2406.047289
12.270000	-2484.844491
12.280000	-2594.220857
12.290000	-2700.444080
12.300000	-2788.293747
12.310000	-2871.968397
12.320000	-2947.155154
12.330000	-3005.315884
12.340000	-3047.874092
12.350000	-3095.541898
12.360000	-3147.020152
12.370000	-3183.201918
12.380000	-3199.350586
12.390000	-3191.337149
12.400000	-3169.857226
12.410000	-3142.260609
12.420000	-3113.483232
12.430000	-3095.324136
12.440000	-3093.876654
12.450000	-3106.809463
12.460000	-3116.000141
12.470000	-3113.090188
12.480000	-3098.578328
12.490000	-3015.973200
12.500000	-2890.133851
12.510000	-2831.506919
12.520000	-2931.046521
12.530000	-3139.060056
12.540000	-3254.611183
12.550000	-3233.439238
12.560000	-3188.665471
12.570000	-3251.253076
12.580000	-3475.890852
12.590000	-3752.656967
12.600000	-4019.952686
12.610000	-4225.117341
12.620000	-4381.890341
12.630000	-4528.667041
12.640000	-4705.849913
12.650000	-4935.510903
12.660000	-5127.507195
12.670000	-5148.904529
12.680000	-4991.836628
12.690000	-4783.659514
12.700000	-4666.524612
12.710000	-4693.148027
12.720000	-4867.051205
12.730000	-5141.132421
12.740000	-5429.433830
12.750000	-5664.123821
12.760000	-5838.268706
12.770000	-5976.147005
12.780000	-6087.002714
12.790000	-6179.102261
12.800000	-6253.312113
12.810000	-6310.313647
12.820000	-6356.554872
12.830000	-6401.444866
12.840000	-6436.320502
12.850000	-6438.771600
12.860000	-6382.636493
12.870000	-6293.461707
12.880000	-6213.881415
12.890000	-6164.300029
12.900000	-6144.272244
12.910000	-6154.672343
12.920000	-6199.195009
12.930000	-6281.228458
12.940000	-6401.288274
12.950000	-6526.531714
12.960000	-6573.742281
12.970000	-6525.508435
12.980000	-6431.533606
12.990000	-6361.018568
13.000000	-6319.623780
13.010000	-6318.343520
13.020000	-6371.182485
13.030000	-6465.381947
13.040000	-6553.091806
13.050000	-6622.292423
13.060000	-6693.858380
13.070000	-6780.941821
13.080000	-6884.344350
13.090000	-6987.289402
13.100000	-7084.267496
13.110000	-7167.697247
13.120000	-7234.261323
13.130000	-7304.221796
13.140000	-7381.588713
13.150000	-7462.094691
13.160000	-7533.925960
13.170000	-7574.294149
13.180000	-7579.331288
13.190000	-7562.550157
13.200000	-7547.432124
13.210000	-7546.770873
13.220000	-7575.191274
13.230000	-7634.936708
13.240000	-7732.266372
13.250000	-7860.029710
13.260000	-8032.690534
13.270000	-8251.368076
13.280000	-8519.729308
13.290000	-8859.689729
13.300000	-9186.065926
13.310000	-9389.529176
13.320000	-9446.881946
13.330000	-9449.919294
13.340000	-9505.633150
13.350000	-9609.221024
13.360000	-9736.541725
13.370000	-9840.662406
13.380000	-9897.373336
13.390000	-9918.722309
13.400000	-9912.370084
13.410000	-9876.257557
13.420000	-9853.651492
13.430000	-9900.646271
13.440000	-10018.257860
13.450000	-10137.309709
13.460000	-10198.683915
13.470000	-10202.251710
13.480000	-10162.257077
13.490000	-10117.693676
13.500000	-10071.821712
13.510000	-10019.860741
13.520000	-9958.127378
13.530000	-9900.805668
13.540000	-9879.199563
13.550000	-9882.678900
13.560000	-9912.003763
13.570000	-9964.567473
13.580000	-10016.765341
13.590000	-10050.476559
13.600000	-10052.870573
13.610000	-10044.797550
13.620000	-10027.899325
13.630000	-9989.378646
13.640000	-9936.940906
13.650000	-9887.598513
13.660000	-9857.917769
13.670000	-9840.010956
13.680000	-9835.169422
13.690000	-9823.939112
13.700000	-9788.655065
13.710000	-9734.482036
13.720000	-9681.389697
13.730000	-9638.860682
13.740000	-9585.894603
13.750000	-9515.788675
13.760000	-9425.241614
13.770000	-9298.838787
13.780000	-9149.811927
13.790000	-8961.941807
13.800000	-8786.022545
13.810000	-8612.323900
13.820000	-7962.045806
13.830000	-6724.593787
13.840000	-5108.392927
13.850000	-4205.460564
13.860000	-4038.670137
13.870000	-3695.468036
13.880000	-2520.343742
13.890000	473.901587
13.900000	3753.645058
13.910000	6545.640135
13.920000	8866.003140
13.930000	11036.905326
13.940000	13779.362648
13.950000	16856.804592
13.960000	19217.669682
13.970000	21198.579522
13.980000	23315.572519
13.990000	26073.574498
14.000000	29726.474330
14.010000	33048.005694
14.020000	35634.012688
14.030000	37392.480139
14.040000	38862.837198
14.050000	40094.631027
14.060000	41142.124604
14.070000	42039.792665
14.080000	42921.195518
14.090000	43610.959265
14.100000	44070.504134
14.110000	44169.410521
14.120000	44026.040928
14.130000	43519.423677
14.140000	42699.941706
14.150000	41749.364866
14.160000	40735.436692
14.170000	39426.507742
14.180000	37074.170102
14.190000	33248.085707
14.200000	30907.351178
14.210000	29262.468437
14.220000	27974.866436
14.230000	26525.487378
14.240000	24233.571923
14.250000	21609.812034
14.260000	19834.052431
14.270000	18219.569126
14.280000	16570.164010
14.290000	15373.862743
14.300000	15071.080500
14.310000	15640.581869
14.320000	16179.067384
14.330000	16266.287136
14.340000	16336.397491
14.350000	16718.370393
14.360000	17583.966278
14.370000	18714.722498
14.380000	20142.178606
14.390000	21892.018071
14.400000	23678.828760
14.410000	25651.911658
14.420000	27938.414360
14.430000	30832.878213
14.440000	34626.104756
14.450000	38016.892414
14.460000	40693.608154
14.470000	42777.778746
14.480000	44531.859870
14.490000	46252.460769
14.500000	47993.976419
14.510000	49507.620006
14.520000	50764.041763
14.530000	51662.263370
14.540000	52288.003815
14.550000	52573.860720
14.560000	52614.451511
14.570000	52389.181382
14.580000	52128.627602
14.590000	51809.508454
14.600000	51565.603519
14.610000	51063.585496
14.620000	50324.583371
14.630000	48997.290622
14.640000	47049.002360
14.650000	43678.457092
14.660000	36034.821569
14.670000	26221.975297
14.680000	29037.972454
14.690000	35592.418594
14.700000	35666.284297
14.710000	33375.498994
14.720000	30533.957375
14.730000	28465.796325
14.740000	27171.578934
14.750000	26514.307363
14.760000	26322.493336
14.770000	26110.019238
14.780000	26537.177541
14.790000	27714.483924
14.800000	29750.778899
14.810000	31918.870480
14.820000	34915.859638
14.830000	39469.325358
14.840000	43104.037138
14.850000	46119.770475
14.860000	48432.029664
14.870000	50202.800308
14.880000	51643.165069
14.890000	52705.024683
14.900000	53722.524422
14.910000	54437.289037
14.920000	54997.511958
14.930000	55058.033254
14.940000	54772.026143
14.950000	53805.222781
14.960000	49085.601485
14.970000	34639.590512
14.980000	33540.964669
14.990000	31996.995767
15.000000	23205.649667
15.010000	21709.656122
15.020000	20416.186648
15.030000	19169.778117
15.040000	18063.436308
15.050000	17059.233079
15.060000	16171.174758
15.070000	15370.236116
15.080000	14707.118459
15.090000	14146.642793
15.100000	13686.110697
15.110000	13252.468614
15.120000	12847.574028
15.130000	12423.743257
15.140000	11999.791022
15.150000	11552.459412
15.160000	11134.426285
15.170000	10750.907479
15.180000	10400.224040
15.190000	10016.680237
15.200000	9591.664786
15.210000	9177.425310
15.220000	8858.986280
15.230000	8566.855549
15.240000	8248.783467
15.250000	7910.525494
15.260000	7605.443801
15.270000	7247.196072
15.280000	6767.523378
15.290000	6265.347254
15.300000	5806.852949
15.310000	5281.003354
15.320000	4591.533158
15.330000	3742.229348
15.340000	2862.839414
15.350000	1804.956421
15.360000	533.707492
15.370000	-944.187750
15.380000	-2482.369552
15.390000	-3988.495223
15.400000	-5556.426074
15.410000	-7152.481643
15.420000	-8583.809928
15.430000	-9641.644142
15.440000	-10302.714780
15.450000	-10753.989752
15.460000	-11090.935158
15.470000	-11290.591730
15.480000	-11246.856863
15.490000	-10915.641708
15.500000	-10363.040120
15.510000	-9822.123746
15.520000	-9481.422263
15.530000	-9324.043853
15.540000	-9221.514535
15.550000	-9052.013092
15.560000	-8867.796657
15.570000	-8712.350784
15.580000	-8625.475291
15.590000	-8555.858901
15.600000	-8473.313256
15.610000	-8381.575439
15.620000	-8291.633585
15.630000	-8194.045467
15.640000	-8109.526783
15.650000	-8060.691128
15.660000	-8025.815627
15.670000	-7980.527211
15.680000	-7972.513656
15.690000	-8033.544352
15.700000	-8108.878990
15.710000	-8127.100680
15.720000	-8108.093445
15.730000	-8112.714547
15.740000	-8151.795432
15.750000	-8202.875120
15.760000	-8270.222141
15.770000	-8362.044263
15.780000	-8438.527767
15.790000	-8508.370467
15.800000	-8604.937921
15.810000	-8745.034197
15.820000	-8885.579463
15.830000	-9017.533412
15.840000	-9209.522391
15.850000	-9668.513346
15.860000	-10569.156611
15.870000	-11926.036353
15.880000	-13416.921844
15.890000	-14794.366900
15.900000	-15978.227492
15.910000	-16900.429573
15.920000	-17529.488050
15.930000	-17935.638138
15.940000	-18382.157312
15.950000	-18805.171869
15.960000	-19020.063755
15.970000	-18988.354119
15.980000	-18901.861402
15.990000	-18952.473322
16.000000	-19147.433307
16.010000	-19348.819734
16.020000	-19476.467493
16.030000	-19525.019539
16.040000	-19548.991544
16.050000	-19554.422323
16.060000	-19498.728759
16.070000	-19380.629047
16.080000	-19211.535013
16.090000	-19035.971112
16.100000	-18848.257870
16.110000	-18630.343665
16.120000	-18388.789324
16.130000	-18161.887444
16.140000	-17960.672944
16.150000	-17770.463799
16.160000	-17579.677684
16.170000	-17400.560827
16.180000	-17221.414393
16.190000	-17004.727094
16.200000	-16731.684880
16.210000	-16448.897661
16.220000	-16224.180294
16.230000	-16047.696946
16.240000	-15853.706020
16.250000	-15610.782783
16.260000	-15347.263185
16.270000	-15103.109424
16.280000	-14932.409491
16.290000	-14903.032304
16.300000	-14997.554541
16.310000	-15078.867320
16.320000	-15011.619710
16.330000	-14808.699109
16.340000	-14557.820934
16.350000	-14334.435228
16.360000	-14158.147518
16.370000	-14027.733510
16.380000	-13935.416023
16.390000	-13847.260322
16.400000	-13728.322496
16.410000	-13549.450730
16.420000	-13346.395109
16.430000	-13154.300801
16.440000	-12992.091183
16.450000	-12820.666130
16.460000	-12638.237553
16.470000	-12469.792593
16.480000	-12331.052434
16.490000	-12228.928439
16.500000	-12140.826062
16.510000	-12045.781348
16.520000	-11901.259083
16.530000	-11697.783010
16.540000	-11450.490231
16.550000	-11180.203308
16.560000	-10888.744639
16.570000	-10584.054877
16.580000	-10280.436604
16.590000	-10005.034014
16.600000	-9776.870713
16.610000	-9602.749454
16.620000	-9462.004602
16.630000	-9326.558387
16.640000	-9181.961677
16.650000	-9016.499093
16.660000	-8846.124128
16.670000	-8674.206344
16.680000	-8497.407602
16.690000	-8351.498741
16.700000	-8286.880550
16.710000	-8330.213400
16.720000	-8427.624565
16.730000	-8512.055504
16.740000	-8557.315841
16.750000	-8559.799285
16.760000	-8527.215759
16.770000	-8470.400403
16.780000	-8394.954529
16.790000	-8305.523210
16.800000	-8207.223279
16.810000	-8105.179037
16.820000	-8027.759803
16.830000	-7976.636344
16.840000	-7955.179969
16.850000	-7930.543926
16.860000	-7892.549541
16.870000	-7828.001046
16.880000	-7737.518848
16.890000	-7632.052239
16.900000	-7519.716607
16.910000	-7409.679707
16.920000	-7302.467787
16.930000	-7216.938402
16.940000	-7153.753546
16.950000	-7106.098079
16.960000	-7055.265082
16.970000	-6991.878699
16.980000	-6917.405207
16.990000	-6828.916178
17.000000	-6736.520146
17.010000	-6637.861796
17.020000	-6535.594537
17.030000	-6442.450743
17.040000	-6354.909842
17.050000	-6280.358399
17.060000	-6218.495945
17.070000	-6164.214550
17.080000	-6117.059608
17.090000	-6120.492474
17.100000	-6217.258797
17.110000	-6392.586209
17.120000	-6564.249438
17.130000	-6686.426199
17.140000	-6757.343514
17.150000	-6788.621565
17.160000	-6789.753104
17.170000	-6771.477770
17.180000	-6744.155078
17.190000	-6719.667557
17.200000	-6697.521724
17.210000	-6661.816245
17.220000	-6625.972639
17.230000	-6595.616390
17.240000	-6588.131148
17.250000	-6576.973574
17.260000	-6557.028546
17.270000	-6528.360658
17.280000	-6495.957404
17.290000	-6464.099297
17.300000	-6423.872370
17.310000	-6373.883082
17.320000	-6317.827909
17.330000	-6262.036087
17.340000	-6203.120773
17.350000	-6137.554702
17.360000	-6067.129521
17.370000	-5994.111133
17.380000	-5926.525804
17.390000	-5868.697606
17.400000	-5823.627123
17.410000	-5778.283808
17.420000	-5733.478603
17.430000	-5690.919636
17.440000	-5647.699547
17.450000	-5595.591271
17.460000	-5547.363485
17.470000	-5494.591564
17.480000	-5434.096871
17.490000	-5407.103657
17.500000	-5482.965463
17.510000	-5663.155326
17.520000	-5876.361531
17.530000	-6038.233235
17.540000	-6141.031368
17.550000	-6188.072787
17.560000	-6210.844412
17.570000	-6201.872352
17.580000	-6186.148128
17.590000	-6260.605459
17.600000	-6345.704162
17.610000	-6409.206534
17.620000	-6355.157567
17.630000	-6284.755767
17.640000	-6230.496515
17.650000	-6178.586314
17.660000	-6127.612085
17.670000	-6054.099682
17.680000	-5978.592724
17.690000	-5900.299342
17.700000	-5836.033960
17.710000	-5772.830090
17.720000	-5709.253695
17.730000	-5635.418353
17.740000	-5557.264833
17.750000	-5476.744089
17.760000	-5397.028221
17.770000	-5309.119058
17.780000	-5231.951385
17.790000	-5152.155384
17.800000	-5077.683525
17.810000	-5044.686536
17.820000	-5109.555565
17.830000	-5260.113901
17.840000	-5421.673988
17.850000	-5540.015724
17.860000	-5608.675288
17.870000	-5634.372236
17.880000	-5623.761626
17.890000	-5597.184919
17.900000	-5562.565769
17.910000	-5529.420519
17.920000	-5485.060728
17.930000	-5432.785057
17.940000	-5385.667424
17.950000	-5359.575314
17.960000	-5356.320017
17.970000	-5353.383009
17.980000	-5350.116665
17.990000	-5340.258959
18.000000	-5320.671892
18.010000	-5286.880860
18.020000	-5238.654654
18.030000	-5189.622935
18.040000	-5142.355333
18.050000	-5093.763924
18.060000	-5044.814391
18.070000	-4991.304056
18.080000	-4939.715532
18.090000	-4882.216972
18.100000	-4821.390040
18.110000	-4761.211120
18.120000	-4704.805550
18.130000	-4650.267364
18.140000	-4595.295100
18.150000	-4532.717876
18.160000	-4467.224019
18.170000	-4401.903252
18.180000	-4334.209142
18.190000	-4251.464891
18.200000	-4149.955342
18.210000	-4053.504312
18.220000	-3967.385056
18.230000	-3884.242475
18.240000	-3827.632033
18.250000	-3852.464702
18.260000	-3977.175657
18.270000	-4150.558013
18.280000	-4305.068947
18.290000	-4408.140734
18.300000	-4450.083877
18.310000	-4440.166422
18.320000	-4401.860787
18.330000	-4360.585796
18.340000	-4328.655389
18.350000	-4296.330270
18.360000	-4247.817661
18.370000	-4202.554399
18.380000	-4173.008926
18.390000	-4172.828442
18.400000	-4178.476592
18.410000	-4176.172969
18.420000	-4166.024554
18.430000	-4144.882479
18.440000	-4121.978864
18.450000	-4092.256808
18.460000	-4038.268231
18.470000	-3964.057595
18.480000	-3872.921285
18.490000	-3778.918638
18.500000	-3687.245616
18.510000	-3597.792299
18.520000	-3512.935516
18.530000	-3420.650002
18.540000	-3324.022021
18.550000	-3219.509411
18.560000	-3114.155638
18.570000	-3012.377749
18.580000	-2920.308193
18.590000	-2839.245102
18.600000	-2766.460028
18.610000	-2696.780775
18.620000	-2621.943080
18.630000	-2541.007604
18.640000	-2461.785847
18.650000	-2373.517063
18.660000	-2274.317913
18.670000	-2220.850166
18.680000	-2271.181267
18.690000	-2419.332688
18.700000	-2580.484622
18.710000	-2693.200516
18.720000	-2751.258566
18.730000	-2751.393241
18.740000	-2711.070719
18.750000	-2625.838172
18.760000	-2533.642857
18.770000	-2435.823858
18.780000	-2329.509155
18.790000	-2221.138586
18.800000	-2134.390658
18.810000	-2087.069414
18.820000	-2055.120459
18.830000	-2020.644765
18.840000	-1968.483072
18.850000	-1910.249929
18.860000	-1834.068419
18.870000	-1751.872046
18.880000	-1675.937218
18.890000	-1597.717089
18.900000	-1516.104167
18.910000	-1427.831507
18.920000	-1349.598840
18.930000	-1286.852135
18.940000	-1217.953805
18.950000	-1136.179287
18.960000	-1036.910999
18.970000	-932.146049
18.980000	-837.803804
18.990000	-755.328750
19.000000	-680.266953
19.010000	-601.410289
19.020000	-525.694833
19.030000	-459.736680
19.040000	-395.325219
19.050000	-313.942152
19.060000	-224.268529
19.070000	-137.389937
19.080000	-49.738119
19.090000	17.864606
19.100000	2.114110
19.110000	-138.713900
19.120000	-350.660665
19.130000	-543.078928
19.140000	-667.435884
19.150000	-742.176837
19.160000	-772.721727
19.170000	-771.838803
19.180000	-744.527576
19.190000	-708.073320
19.200000	-681.875500
19.210000	-650.746567
19.220000	-615.465119
19.230000	-580.625583
19.240000	-564.618698
19.250000	-567.644811
19.260000	-577.592736
19.270000	-586.192964
19.280000	-578.397291
19.290000	-548.613648
19.300000	-506.086577
19.310000	-465.557495
19.320000	-435.597729
19.330000	-395.590733
19.340000	-346.334664
19.350000	-282.438010
19.360000	-214.276681
19.370000	-141.080515
19.380000	-60.704831
19.390000	17.424561
19.400000	88.394710
19.410000	141.431439
19.420000	189.078800
19.430000	235.271107
19.440000	286.295057
19.450000	333.264076
19.460000	376.734825
19.470000	426.816786
19.480000	495.382201
19.490000	569.506750
19.500000	638.577207
19.510000	714.469018
19.520000	772.217482
19.530000	747.873244
19.540000	603.146508
19.550000	394.090770
19.560000	208.051559
19.570000	87.745027
19.580000	33.067538
19.590000	28.588281
19.600000	54.973116
19.610000	92.667141
19.620000	134.819020
19.630000	174.319951
19.640000	225.968977
19.650000	277.812387
19.660000	311.015695
19.670000	313.909381
19.680000	309.077254
19.690000	313.246935
19.700000	326.351881
19.710000	350.518920
19.720000	366.498745
19.730000	387.145904
19.740000	405.193041
19.750000	440.118248
19.760000	484.755258
19.770000	535.711257
19.780000	600.293026
19.790000	662.522336
19.800000	719.150303
19.810000	766.285382
19.820000	801.969136
19.830000	833.699826
19.840000	862.397834
19.850000	902.448350
19.860000	953.753012
19.870000	1010.817472
19.880000	1069.750495
19.890000	1132.509705
19.900000	1212.422058
19.910000	1297.444242
19.920000	1378.081732
19.930000	1457.062578
19.940000	1522.687786
19.950000	1510.190264
19.960000	1396.398950
19.970000	1210.789161
19.980000	1042.603290
19.990000	922.224483
20.000000	861.089403
20.010000	851.944666
20.020000	872.873816
20.030000	911.699211
20.040000	939.288308
20.050000	964.236387
20.060000	1000.398613
20.070000	1043.741480
20.080000	1075.487816
20.090000	1080.611941
20.100000	1073.348114
20.110000	1065.836372
20.120000	1060.878135
20.130000	1067.107842
20.140000	1084.417468
20.150000	1109.740139
20.160000	1141.665931
20.170000	1181.419872
20.180000	1225.276607
20.190000	1265.800828
20.200000	1305.294370
20.210000	1347.568528
20.220000	1393.355188
20.230000	1440.047478
20.240000	1482.799173
20.250000	1531.291201
20.260000	1577.254277
20.270000	1624.296839
20.280000	1665.411710
20.290000	1706.404673
20.300000	1749.628840
20.310000	1801.929523
20.320000	1857.551526
20.330000	1909.526681
20.340000	1971.608899
20.350000	2014.752848
20.360000	1982.339205
20.370000	1843.801332
20.380000	1660.742175
20.390000	1513.990875
20.400000	1426.409580
20.410000	1381.498002
20.420000	1364.843790
20.430000	1364.107256
20.440000	1378.407929
20.450000	1397.457808
20.460000	1418.094114
20.470000	1449.279470
20.480000	1481.836938
20.490000	1511.222295
20.500000	1513.303038
20.510000	1497.369288
20.520000	1481.240218
20.530000	1476.615739
20.540000	1489.279346
20.550000	1510.275160
20.560000	1540.467481
20.570000	1575.377179
20.580000	1617.801436
20.590000	1661.582323
20.600000	1708.286203
20.610000	1755.909125
20.620000	1809.590576
20.630000	1869.691298
20.640000	1930.682438
20.650000	1986.945378
20.660000	2041.939864
20.670000	2094.328713
20.680000	2147.354085
20.690000	2197.171909
20.700000	2243.927013
20.710000	2296.187740
20.720000	2353.626741
20.730000	2420.368751
20.740000	2477.083372
20.750000	2546.822516
20.760000	2616.599043
20.770000	2637.671096
20.780000	2559.604728
20.790000	2402.543144
20.800000	2243.932368
20.810000	2128.491470
20.820000	2058.310671
20.830000	2019.565399
20.840000	2001.869286
20.850000	1993.808917
20.860000	1993.294111
20.870000	1985.192064
20.880000	1982.305955
20.890000	1962.658131
20.900000	1903.829846
20.910000	1814.056450
20.920000	1732.621860
20.930000	1706.994872
20.940000	1724.434222
20.950000	1770.448960
20.960000	1816.730515
20.970000	1852.474405
20.980000	1880.923391
20.990000	1911.375859
21.000000	1950.302576
21.010000	1978.067704
21.020000	2001.618207
21.030000	2020.938523
21.040000	2052.511899
21.050000	2088.610227
21.060000	2118.599620
21.070000	2142.514519
21.080000	2165.238544
21.090000	2191.290279
21.100000	2219.067701
21.110000	2246.272396
21.120000	2268.767957
21.130000	2291.824360
21.140000	2323.354000
21.150000	2369.250477
21.160000	2408.079171
21.170000	2438.279843
21.180000	2460.359808
21.190000	2442.437817
21.200000	2335.812910
21.210000	2145.295840
21.220000	1935.651490
21.230000	1771.709235
21.240000	1678.938196
21.250000	1643.906376
21.260000	1642.754536
21.270000	1644.977876
21.280000	1648.542679
21.290000	1651.276917
21.300000	1659.249016
21.310000	1683.820354
21.320000	1712.788110
21.330000	1735.600077
21.340000	1731.531950
21.350000	1715.711878
21.360000	1692.480678
21.370000	1669.401277
21.380000	1660.015465
21.390000	1662.285068
21.400000	1673.118744
21.410000	1681.719937
21.420000	1698.185832
21.430000	1721.364503
21.440000	1743.810385
21.450000	1767.945070
21.460000	1795.008065
21.470000	1828.107938
21.480000	1851.064048
21.490000	1863.559765
21.500000	1875.728213
21.510000	1892.911998
21.520000	1907.270471
21.530000	1917.196378
21.540000	1922.733003
21.550000	1922.058745
21.560000	1911.106499
21.570000	1875.477212
21.580000	1842.847369
21.590000	1828.447291
21.600000	1818.428143
21.610000	1745.858647
21.620000	1594.736489
21.630000	1421.056046
21.640000	1291.663537
21.650000	1209.667870
21.660000	1169.155869
21.670000	1157.518606
21.680000	1164.913665
21.690000	1173.940337
21.700000	1175.954480
21.710000	1179.000748
21.720000	1194.598214
21.730000	1213.264046
21.740000	1228.177016
21.750000	1212.400363
21.760000	1188.152932
21.770000	1154.736337
21.780000	1144.482659
21.790000	1219.083188
21.800000	1320.414019
21.810000	1423.452133
21.820000	1452.805341
21.830000	1473.472095
21.840000	1493.974078
21.850000	1519.081386
21.860000	1548.729594
21.870000	1576.607324
21.880000	1613.131933
21.890000	1649.347992
21.900000	1682.486255
21.910000	1723.060510
21.920000	1756.039481
21.930000	1725.597070
21.940000	1603.605214
21.950000	1415.216735
21.960000	1247.611732
21.970000	1122.594243
21.980000	1049.187519
21.990000	1003.485979
22.000000	971.729466
22.010000	942.990739
22.020000	909.552414
22.030000	871.121680
22.040000	842.690062
22.050000	829.164569
22.060000	817.050400
22.070000	788.134648
22.080000	744.406617
22.090000	696.067910
22.100000	649.025231
22.110000	607.938838
22.120000	578.922485
22.130000	570.090128
22.140000	575.054994
22.150000	585.177191
22.160000	591.127783
22.170000	596.575663
22.180000	607.482780
22.190000	628.245946
22.200000	647.403859
22.210000	662.216677
22.220000	671.940433
22.230000	680.477031
22.240000	685.737594
22.250000	687.686906
22.260000	688.484836
22.270000	693.516524
22.280000	700.822951
22.290000	718.317794
22.300000	747.421252
22.310000	779.703513
22.320000	815.655703
22.330000	842.330775
22.340000	885.942966
22.350000	910.398954
22.360000	867.810006
22.370000	726.457170
22.380000	527.155337
22.390000	349.233681
22.400000	215.959305
22.410000	139.926929
22.420000	107.972005
22.430000	97.206382
22.440000	83.928812
22.450000	69.501107
22.460000	56.167905
22.470000	52.092042
22.480000	47.638163
22.490000	39.981825
22.500000	16.361361
22.510000	-20.137874
22.520000	-61.287566
22.530000	-95.300624
22.540000	-119.012908
22.550000	-130.519472
22.560000	-125.450694
22.570000	-124.192099
22.580000	-115.186440
22.590000	-105.969430
22.600000	-85.924497
22.610000	-66.526175
22.620000	-51.025276
22.630000	-32.774277
22.640000	-13.200010
22.650000	7.596248
22.660000	27.234081
22.670000	47.927910
22.680000	74.624291
22.690000	102.849078
22.700000	132.642379
22.710000	154.024970
22.720000	172.318164
22.730000	199.501587
22.740000	230.897397
22.750000	270.618306
22.760000	314.068764
22.770000	352.673572
22.780000	332.398174
22.790000	221.071876
22.800000	45.505989
22.810000	-127.135831
22.820000	-252.833186
22.830000	-322.823719
22.840000	-349.279786
22.850000	-355.926513
22.860000	-356.749390
22.870000	-362.737409
22.880000	-369.559826
22.890000	-372.596993
22.900000	-381.458731
22.910000	-403.833925
22.920000	-445.735555
22.930000	-492.061950
22.940000	-539.761123
22.950000	-583.666374
22.960000	-622.178587
22.970000	-650.644391
22.980000	-657.625946
22.990000	-645.709335
23.000000	-621.131618
23.010000	-599.849128
23.020000	-587.991653
23.030000	-572.651181
23.040000	-551.595418
23.050000	-524.506088
23.060000	-494.255394
23.070000	-465.078702
23.080000	-432.939792
23.090000	-407.736569
23.100000	-381.956526
23.110000	-352.787337
23.120000	-321.029675
23.130000	-293.902054
23.140000	-267.451625
23.150000	-237.060925
23.160000	-192.236574
23.170000	-141.985648
23.180000	-124.480410
23.190000	-184.975094
23.200000	-327.990793
23.210000	-497.175589
23.220000	-640.892184
23.230000	-735.831765
23.240000	-786.915464
23.250000	-807.555424
23.260000	-811.650715
23.270000	-811.317952
23.280000	-813.080829
23.290000	-805.741823
23.300000	-788.248607
23.310000	-769.235209
23.320000	-762.473182
23.330000	-778.428638
23.340000	-806.682612
23.350000	-839.003387
23.360000	-855.234357
23.370000	-854.673050
23.380000	-843.178684
23.390000	-832.733831
23.400000	-818.116458
23.410000	-793.834298
23.420000	-765.792354
23.430000	-733.289826
23.440000	-701.189782
23.450000	-659.410265
23.460000	-617.346368
23.470000	-576.547853
23.480000	-536.201522
23.490000	-493.050145
23.500000	-446.100668
23.510000	-401.275555
23.520000	-356.347902
23.530000	-318.229549
23.540000	-279.258269
23.550000	-233.892202
23.560000	-180.882936
23.570000	-132.627846
23.580000	-88.507030
23.590000	-48.399709
23.600000	-59.295031
23.610000	-148.150737
23.620000	-298.664731
23.630000	-435.439636
23.640000	-524.849002
23.650000	-567.187876
23.660000	-572.425678
23.670000	-555.648994
23.680000	-524.346629
23.690000	-495.500981
23.700000	-475.268954
23.710000	-458.352254
23.720000	-428.859241
23.730000	-396.637584
23.740000	-377.829812
23.750000	-378.257192
23.760000	-388.119733
23.770000	-394.229377
23.780000	-387.783205
23.790000	-362.235557
23.800000	-332.533123
23.810000	-302.237499
23.820000	-268.960012
23.830000	-228.928567
23.840000	-188.774679
23.850000	-151.969770
23.860000	-110.583117
23.870000	-68.735435
23.880000	-25.735975
23.890000	13.459485
23.900000	53.781478
23.910000	94.950314
23.920000	139.951846
23.930000	181.724555
23.940000	222.124777
23.950000	255.790768
23.960000	286.635371
23.970000	325.521985
23.980000	379.114066
23.990000	440.529355
24.000000	500.901053
24.010000	560.542733
24.020000	582.901290
24.030000	531.872226
24.040000	406.981312
24.050000	264.339431
24.060000	160.378212
24.070000	104.660936
24.080000	91.048711
24.090000	108.285474
24.100000	137.682911
24.110000	171.591474
24.120000	192.608493
24.130000	213.298309
24.140000	247.523194
24.150000	285.927283
24.160000	317.085142
24.170000	325.197532
24.180000	327.056911
24.190000	331.433067
24.200000	343.339367
24.210000	363.645237
24.220000	392.608503
24.230000	427.170333
24.240000	460.523052
24.250000	491.366603
24.260000	526.115169
24.270000	565.203161
24.280000	609.699403
24.290000	651.672365
24.300000	696.979196
24.310000	741.772922
24.320000	785.593278
24.330000	830.873389
24.340000	875.186278
24.350000	920.645560
24.360000	962.419732
24.370000	1010.451462
24.380000	1058.268202
24.390000	1104.264444
24.400000	1153.796445
24.410000	1200.372466
24.420000	1243.669470
24.430000	1293.168842
24.440000	1353.858487
24.450000	1392.187938
24.460000	1339.947774
24.470000	1211.429311
24.480000	1059.806414
24.490000	949.698215
24.500000	892.180952
24.510000	877.239000
24.520000	886.195028
24.530000	902.114745
24.540000	918.568298
24.550000	927.316026
24.560000	940.327742
24.570000	960.489847
24.580000	981.058371
24.590000	986.303432
24.600000	970.481009
24.610000	947.836633
24.620000	922.875063
24.630000	901.371611
24.640000	891.607734
24.650000	893.883174
24.660000	910.344084
24.670000	927.350081
24.680000	941.440520
24.690000	948.814931
24.700000	959.908343
24.710000	972.577595
24.720000	987.382683
24.730000	1001.663903
24.740000	1024.889543
24.750000	1047.697750
24.760000	1067.414070
24.770000	1084.071701
24.780000	1100.946866
24.790000	1119.105634
24.800000	1132.793665
24.810000	1151.848469
24.820000	1175.945297
24.830000	1203.921742
24.840000	1228.078370
24.850000	1262.052995
24.860000	1298.486453
24.870000	1286.397080
24.880000	1191.272372
24.890000	1036.900511
24.900000	891.178600
24.910000	787.641992
24.920000	724.988165
24.930000	698.038439
24.940000	687.758536
24.950000	685.796332
24.960000	678.847321
24.970000	670.933733
24.980000	670.613716
24.990000	679.383452
25.000000	683.670328
25.010000	670.165387
25.020000	639.095490
25.030000	609.329775
25.040000	581.134017
25.050000	561.844581
25.060000	554.157328
25.070000	555.676126
25.080000	565.515373
25.090000	578.492979
25.100000	595.219621
25.110000	609.955865
25.120000	622.268429
25.130000	636.428167
25.140000	650.964467
25.150000	673.588519
25.160000	693.940200
25.170000	715.114983
25.180000	733.894234
25.190000	749.309755
25.200000	767.195556
25.210000	781.466871
25.220000	802.871327
25.230000	822.230608
25.240000	847.588876
25.250000	877.963818
25.260000	911.297521
25.270000	936.666506
25.280000	973.750485
25.290000	1000.247254
25.300000	965.451901
25.310000	837.539406
25.320000	654.671507
25.330000	485.908801
25.340000	354.758111
25.350000	264.882210
25.360000	211.813966
25.370000	185.498246
25.380000	168.173024
25.390000	151.464164
25.400000	130.866529
25.410000	118.800111
25.420000	114.848044
25.430000	108.765387
25.440000	88.146332
25.450000	51.750425
25.460000	10.132500
25.470000	-27.279096
25.480000	-52.563887
25.490000	-59.993332
25.500000	-52.630063
25.510000	-40.739942
25.520000	-29.361417
25.530000	-18.820092
25.540000	-4.091509
25.550000	18.081192
25.560000	40.468942
25.570000	70.675613
25.580000	107.657759
25.590000	146.912368
25.600000	181.825668
25.610000	206.803197
25.620000	217.314156
25.630000	208.009152
25.640000	184.817380
25.650000	148.852019
25.660000	76.569400
25.670000	-51.310507
25.680000	-221.272565
25.690000	-328.573483
25.700000	-342.335376
25.710000	-269.959854
25.720000	-151.840680
25.730000	-42.737844
25.740000	57.118008
25.750000	98.663986
25.760000	139.015316
25.770000	204.628321
25.780000	291.809578
25.790000	373.507982
25.800000	422.248539
25.810000	438.443146
25.820000	408.628010
25.830000	322.699202
25.840000	224.132678
25.850000	152.589187
25.860000	118.200353
25.870000	95.358154
25.880000	51.225015
25.890000	-5.783030
25.900000	-67.775525
25.910000	-99.539899
25.920000	-112.929698
25.930000	-118.651615
25.940000	-122.762733
25.950000	-108.726542
25.960000	-47.587222
25.970000	41.373513
25.980000	128.867979
25.990000	181.769898
26.000000	191.697717
26.010000	165.514429
26.020000	115.180765
26.030000	76.296226
26.040000	90.987111
26.050000	153.585155
26.060000	226.677702
26.070000	280.532974
26.080000	313.750262
26.090000	347.847590
26.100000	371.369131
26.110000	384.497404
26.120000	401.997638
26.130000	432.432786
26.140000	408.386415
26.150000	277.712075
26.160000	72.641923
26.170000	-121.561663
26.180000	-256.903931
26.190000	-358.736182
26.200000	-432.427894
26.210000	-486.953917
26.220000	-523.296874
26.230000	-553.903761
26.240000	-580.838274
26.250000	-598.533900
26.260000	-605.425558
26.270000	-612.901483
26.280000	-632.047514
26.290000	-661.604293
26.300000	-696.027131
26.310000	-725.665548
26.320000	-755.750962
26.330000	-777.057383
26.340000	-784.189214
26.350000	-783.184797
26.360000	-779.329842
26.370000	-771.332184
26.380000	-751.825417
26.390000	-719.869105
26.400000	-687.395149
26.410000	-658.757592
26.420000	-631.652546
26.430000	-603.351099
26.440000	-572.954722
26.450000	-546.002267
26.460000	-517.936039
26.470000	-473.330678
26.480000	-424.032902
26.490000	-379.025411
26.500000	-330.792183
26.510000	-295.827363
26.520000	-320.675479
26.530000	-430.946835
26.540000	-578.397814
26.550000	-704.747489
26.560000	-789.934069
26.570000	-834.981865
26.580000	-842.851637
26.590000	-827.622959
26.600000	-805.150439
26.610000	-784.288022
26.620000	-760.121459
26.630000	-727.328830
26.640000	-692.167972
26.650000	-669.102686
26.660000	-671.254792
26.670000	-681.504284
26.680000	-691.409726
26.690000	-692.951455
26.700000	-687.969621
26.710000	-675.769673
26.720000	-655.239835
26.730000	-631.316086
26.740000	-605.211524
26.750000	-576.904251
26.760000	-543.888310
26.770000	-506.211453
26.780000	-464.278197
26.790000	-420.235660
26.800000	-369.361529
26.810000	-321.010934
26.820000	-281.148039
26.830000	-252.155615
26.840000	-215.590007
26.850000	-171.396879
26.860000	-131.778461
26.870000	-92.973867
26.880000	-47.335886
26.890000	-22.360434
26.900000	-76.023494
26.910000	-202.284383
26.920000	-349.298582
26.930000	-461.578352
26.940000	-530.749837
26.950000	-558.948021
26.960000	-551.256097
26.970000	-526.402139
26.980000	-500.134541
26.990000	-476.537982
27.000000	-445.019820
27.010000	-407.421845
27.020000	-381.328924
27.030000	-376.665299
27.040000	-390.984727
27.050000	-406.246639
27.060000	-418.393024
27.070000	-426.216603
27.080000	-421.161967
27.090000	-413.285211
27.100000	-390.584549
27.110000	-364.131441
27.120000	-329.010829
27.130000	-296.402839
27.140000	-265.785951
27.150000	-234.048120
27.160000	-200.949978
27.170000	-165.739689
27.180000	-134.513854
27.190000	-103.117485
27.200000	-76.149502
27.210000	-48.516398
27.220000	-16.837600
27.230000	23.039053
27.240000	59.048664
27.250000	101.942735
27.260000	152.526498
27.270000	176.702767
27.280000	123.242817
27.290000	-6.106169
27.300000	-153.935802
27.310000	-267.308546
27.320000	-335.277590
27.330000	-359.259394
27.340000	-350.694766
27.350000	-319.921743
27.360000	-282.841758
27.370000	-247.944940
27.380000	-212.338691
27.390000	-176.692457
27.400000	-147.232085
27.410000	-139.847715
27.420000	-146.440784
27.430000	-161.056713
27.440000	-172.683437
27.450000	-180.006850
27.460000	-175.958111
27.470000	-161.025561
27.480000	-138.956209
27.490000	-112.088197
27.500000	-81.331498
27.510000	-48.200258
27.520000	-16.093049
27.530000	11.974328
27.540000	40.785769
27.550000	72.092880
27.560000	104.608550
27.570000	132.484563
27.580000	169.103157
27.590000	211.450234
27.600000	252.539220
27.610000	293.390275
27.620000	339.606929
27.630000	358.510907
27.640000	297.906774
27.650000	171.431432
27.660000	30.596395
27.670000	-73.363050
27.680000	-136.892522
27.690000	-158.878480
27.700000	-144.446153
27.710000	-116.156041
27.720000	-87.021135
27.730000	-59.452052
27.740000	-23.944290
27.750000	19.177379
27.760000	51.702541
27.770000	62.445218
27.780000	53.003604
27.790000	37.366213
27.800000	19.897363
27.810000	9.919960
27.820000	4.042004
27.830000	10.458006
27.840000	25.439710
27.850000	50.295701
27.860000	74.423854
27.870000	94.773291
27.880000	113.374447
27.890000	139.222505
27.900000	167.573132
27.910000	193.958309
27.920000	222.748592
27.930000	246.948727
27.940000	275.921475
27.950000	298.836174
27.960000	333.792973
27.970000	369.261386
27.980000	400.635964
27.990000	444.029296
28.000000	463.287851
28.010000	416.400218
28.020000	284.622727
28.030000	119.917735
28.040000	-5.033117
28.050000	-83.125847
28.060000	-118.434005
28.070000	-126.582192
28.080000	-121.210505
28.090000	-107.730355
28.100000	-99.055386
28.110000	-89.876267
28.120000	-76.285272
28.130000	-65.099479
28.140000	-65.235456
28.150000	-86.706925
28.160000	-114.498135
28.170000	-143.054950
28.180000	-163.131955
28.190000	-175.812642
28.200000	-179.138735
28.210000	-174.627879
28.220000	-168.205636
28.230000	-158.805274
28.240000	-151.336996
28.250000	-138.664303
28.260000	-122.875091
28.270000	-101.893306
28.280000	-80.480051
28.290000	-61.498525
28.300000	-43.454481
28.310000	-25.821179
28.320000	-9.146648
28.330000	7.478710
28.340000	29.458728
28.350000	54.041391
28.360000	75.340683
28.370000	103.600219
28.380000	117.086649
28.390000	66.033883
28.400000	-65.790128
28.410000	-239.429062
28.420000	-383.626385
28.430000	-479.417168
28.440000	-535.587075
28.450000	-558.112442
28.460000	-569.307524
28.470000	-570.799115
28.480000	-580.788376
28.490000	-590.125539
28.500000	-590.653483
28.510000	-589.207988
28.520000	-593.903596
28.530000	-615.345416
28.540000	-645.483917
28.550000	-679.539908
28.560000	-712.110573
28.570000	-734.439867
28.580000	-745.473017
28.590000	-755.084431
28.600000	-758.509790
28.610000	-760.469528
28.620000	-754.563776
28.630000	-745.265510
28.640000	-734.993071
28.650000	-721.763615
28.660000	-710.488768
28.670000	-694.610935
28.680000	-677.392062
28.690000	-658.495573
28.700000	-641.018558
28.710000	-624.751465
28.720000	-603.341747
28.730000	-572.727103
28.740000	-534.393517
28.750000	-501.447884
28.760000	-462.089982
28.770000	-445.661312
28.780000	-497.877609
28.790000	-633.502453
28.800000	-804.204532
28.810000	-947.015847
28.820000	-1046.708224
28.830000	-1104.954498
28.840000	-1125.262308
28.850000	-1129.321616
28.860000	-1125.825725
28.870000	-1128.079591
28.880000	-1128.041860
28.890000	-1119.553901
28.900000	-1112.680190
28.910000	-1118.073931
28.920000	-1152.378872
28.930000	-1194.199837
28.940000	-1230.477247
28.950000	-1250.040835
28.960000	-1251.311633
28.970000	-1234.930692
28.980000	-1207.204089
28.990000	-1164.836428
29.000000	-1125.863787
29.010000	-1095.415095
29.020000	-1080.570275
29.030000	-1059.622508
29.040000	-1020.343650
29.050000	-955.885248
29.060000	-855.479836
29.070000	-730.916537
29.080000	-588.640956
29.090000	-446.685602
29.100000	-309.136059
29.110000	-163.781865
29.120000	-4.352431
29.130000	171.071972
29.140000	354.365997
29.150000	542.569389
29.160000	718.341326
29.170000	809.212125
29.180000	805.118457
29.190000	741.610868
29.200000	704.330883
29.210000	713.126940
29.220000	752.745245
29.230000	806.604690
29.240000	861.467753
29.250000	923.769065
29.260000	972.079954
29.270000	1022.001658
29.280000	1071.610818
29.290000	1126.555452
29.300000	1160.688364
29.310000	1170.138036
29.320000	1168.114024
29.330000	1172.702130
29.340000	1183.791398
29.350000	1191.541429
29.360000	1198.137292
29.370000	1197.326599
29.380000	1196.155636
29.390000	1185.035543
29.400000	1154.142999
29.410000	1085.692474
29.420000	970.791494
29.430000	806.669770
29.440000	604.782781
29.450000	389.987759
29.460000	198.776734
29.470000	46.217772
29.480000	-85.682430
29.490000	-192.185273
29.500000	-234.409829
29.510000	-231.108469
29.520000	-215.538771
29.530000	-206.018849
29.540000	-192.283934
29.550000	-212.423272
29.560000	-329.792906
29.570000	-521.952969
29.580000	-707.500688
29.590000	-853.977688
29.600000	-984.722145
29.610000	-1105.313886
29.620000	-1172.168646
29.630000	-1146.356095
29.640000	-1052.816947
29.650000	-915.755791
29.660000	-761.831294
29.670000	-591.442460
29.680000	-441.304268
29.690000	-332.110455
29.700000	-258.397169
29.710000	-204.776069
29.720000	-139.803959
29.730000	-58.204640
29.740000	42.089585
29.750000	111.200159
29.760000	115.336927
29.770000	57.683017
29.780000	-16.991435
29.790000	-82.575066
29.800000	-99.639349
29.810000	-8.800905
29.820000	143.065226
29.830000	257.476078
29.840000	264.492997
29.850000	207.041413
29.860000	120.545425
29.870000	-19.913500
29.880000	-212.014951
29.890000	-422.136498
29.900000	-605.231113
29.910000	-763.843813
29.920000	-887.431365
29.930000	-953.538213
29.940000	-979.092685
29.950000	-1020.359973
29.960000	-1136.781797
29.970000	-1301.630542
29.980000	-1471.443494
29.990000	-1617.961145
30.000000	-1729.502057
30.010000	-1798.988771
30.020000	-1822.921192
30.030000	-1803.382170
30.040000	-1740.685587
30.050000	-1647.826855
30.060000	-1549.832475
30.070000	-1479.308119
30.080000	-1475.345910
30.090000	-1535.356595
30.100000	-1621.109432
30.110000	-1662.665569
30.120000	-1651.054259
30.130000	-1615.760273
30.140000	-1579.994877
30.150000	-1552.828729
30.160000	-1535.258802
30.170000	-1528.910607
30.180000	-1523.835507
30.190000	-1512.008535
30.200000	-1491.104820
30.210000	-1463.462400
30.220000	-1424.698303
30.230000	-1388.307490
30.240000	-1360.947947
30.250000	-1350.162756
30.260000	-1349.499696
30.270000	-1351.689112
30.280000	-1347.719443
30.290000	-1341.924343
30.300000	-1326.577720
30.310000	-1306.197613
30.320000	-1321.539349
30.330000	-1416.482695
30.340000	-1590.715564
30.350000	-1771.571066
30.360000	-1904.944159
30.370000	-1978.107186
30.380000	-2013.603089
30.390000	-2026.288337
30.400000	-2025.913472
30.410000	-2025.142290
30.420000	-2032.209136
30.430000	-2042.290456
30.440000	-2041.141619
30.450000	-2042.510808
30.460000	-2051.377914
30.470000	-2066.039947
30.480000	-2070.902432
30.490000	-2066.940194
30.500000	-2061.770000
30.510000	-2051.800326
30.520000	-2040.981469
30.530000	-2024.291505
30.540000	-2001.527688
30.550000	-1976.781805
30.560000	-1952.723125
30.570000	-1928.247319
30.580000	-1892.209002
30.590000	-1840.048033
30.600000	-1771.690064
30.610000	-1694.852083
30.620000	-1619.157356
30.630000	-1550.626281
30.640000	-1474.212538
30.650000	-1395.769327
30.660000	-1332.609658
30.670000	-1278.490481
30.680000	-1243.693974
30.690000	-1256.568723
30.700000	-1349.428967
30.710000	-1484.092101
30.720000	-1592.385987
30.730000	-1651.042166
30.740000	-1659.708255
30.750000	-1639.017785
30.760000	-1601.976417
30.770000	-1572.656230
30.780000	-1554.485889
30.790000	-1536.217943
30.800000	-1504.619041
30.810000	-1471.810643
30.820000	-1449.377604
30.830000	-1444.349913
30.840000	-1437.354918
30.850000	-1422.884039
30.860000	-1400.969729
30.870000	-1372.374609
30.880000	-1340.545166
30.890000	-1310.822445
30.900000	-1285.061893
30.910000	-1255.526923
30.920000	-1221.546462
30.930000	-1183.514872
30.940000	-1146.322694
30.950000	-1101.076368
30.960000	-1055.086923
30.970000	-1007.557833
30.980000	-964.477429
30.990000	-921.617611
31.000000	-876.477779
31.010000	-832.965474
31.020000	-789.732893
31.030000	-754.940692
31.040000	-724.220204
31.050000	-693.849662
31.060000	-668.995930
31.070000	-650.008090
31.080000	-632.018702
31.090000	-643.518193
31.100000	-730.013610
31.110000	-883.137729
31.120000	-1043.791918
31.130000	-1149.335604
31.140000	-1206.347066
31.150000	-1223.123577
31.160000	-1214.838452
31.170000	-1188.137452
31.180000	-1158.602335
31.190000	-1134.711726
31.200000	-1106.560917
31.210000	-1074.892373
31.220000	-1048.784791
31.230000	-1041.993521
31.240000	-1052.872608
31.250000	-1060.947780
31.260000	-1060.571210
31.270000	-1048.142960
31.280000	-1021.841888
31.290000	-992.605593
31.300000	-957.639139
31.310000	-919.980412
31.320000	-877.316395
31.330000	-832.596247
31.340000	-797.910510
31.350000	-762.038324
31.360000	-728.433712
31.370000	-691.676651
31.380000	-654.197601
31.390000	-618.198641
31.400000	-579.827646
31.410000	-540.282440
31.420000	-499.333529
31.430000	-460.254101
31.440000	-425.380226
31.450000	-387.073563
31.460000	-347.327044
31.470000	-315.117679
31.480000	-276.080358
31.490000	-225.390405
31.500000	-204.829216
31.510000	-268.228893
31.520000	-400.921057
31.530000	-543.139769
31.540000	-642.227128
31.550000	-698.389000
31.560000	-712.727273
31.570000	-700.868184
31.580000	-673.067839
31.590000	-647.890462
31.600000	-625.877614
31.610000	-597.401951
31.620000	-565.571267
31.630000	-541.783531
31.640000	-545.800298
31.650000	-569.599624
31.660000	-601.194339
31.670000	-629.258509
31.680000	-638.750889
31.690000	-631.468088
31.700000	-610.480448
31.710000	-585.864814
31.720000	-556.679371
31.730000	-528.778218
31.740000	-506.035916
31.750000	-480.821460
31.760000	-449.897677
31.770000	-413.365388
31.780000	-376.597137
31.790000	-339.047983
31.800000	-300.116393
31.810000	-265.900625
31.820000	-230.419140
31.830000	-194.921488
31.840000	-156.858170
31.850000	-115.091299
31.860000	-76.462539
31.870000	-39.713972
31.880000	1.807785
31.890000	37.477421
31.900000	10.481088
31.910000	-107.722044
31.920000	-280.800962
31.930000	-434.950460
31.940000	-539.331247
31.950000	-592.722133
31.960000	-606.021741
31.970000	-594.631434
31.980000	-577.178026
31.990000	-565.978672
32.000000	-558.747802
32.010000	-538.069613
32.020000	-510.500336
32.030000	-490.296942
32.040000	-499.387492
32.050000	-521.531305
32.060000	-548.740827
32.070000	-570.199716
32.080000	-585.563046
32.090000	-591.297796
32.100000	-589.169873
32.110000	-583.838837
32.120000	-568.846134
32.130000	-553.855752
32.140000	-530.569602
32.150000	-509.352077
32.160000	-483.004594
32.170000	-458.645760
32.180000	-432.165048
32.190000	-404.039948
32.200000	-380.093016
32.210000	-359.834559
32.220000	-340.764815
32.230000	-314.694486
32.240000	-282.875074
32.250000	-245.295057
32.260000	-203.398359
32.270000	-170.669309
32.280000	-134.254831
32.290000	-95.486288
32.300000	-102.642259
32.310000	-207.045216
32.320000	-406.614844
32.330000	-635.826630
32.340000	-834.329952
32.350000	-986.457318
32.360000	-1083.121248
32.370000	-1143.889721
32.380000	-1183.286588
32.390000	-1203.674838
32.400000	-1228.226739
32.410000	-1250.427607
32.420000	-1273.240306
32.430000	-1302.901606
32.440000	-1349.307672
32.450000	-1421.414944
32.460000	-1486.300093
32.470000	-1534.698161
32.480000	-1551.312326
32.490000	-1540.068691
32.500000	-1518.394282
32.510000	-1508.483072
32.520000	-1525.820008
32.530000	-1568.543437
32.540000	-1586.471403
32.550000	-1503.555888
32.560000	-1306.650091
32.570000	-1050.774822
32.580000	-828.281952
32.590000	-679.532977
32.600000	-589.775824
32.610000	-507.869269
32.620000	-388.963083
32.630000	-237.682244
32.640000	-78.878044
32.650000	70.523047
32.660000	184.513873
32.670000	248.092369
32.680000	273.650150
32.690000	311.436776
32.700000	340.931808
32.710000	298.003137
32.720000	168.360743
32.730000	1.757756
32.740000	-125.456272
32.750000	-190.618770
32.760000	-202.340898
32.770000	-181.675878
32.780000	-169.591319
32.790000	-179.299207
32.800000	-224.483513
32.810000	-293.157192
32.820000	-365.992059
32.830000	-435.348480
32.840000	-502.156692
32.850000	-569.175353
32.860000	-622.236743
32.870000	-665.679638
32.880000	-706.615663
32.890000	-745.454769
32.900000	-778.604171
32.910000	-809.534541
32.920000	-829.843297
32.930000	-844.599191
32.940000	-855.017695
32.950000	-861.939974
32.960000	-851.426625
32.970000	-821.586939
32.980000	-792.834528
32.990000	-768.455861
33.000000	-743.486714
33.010000	-716.599656
33.020000	-689.075551
33.030000	-656.321404
33.040000	-619.271583
33.050000	-583.646232
33.060000	-543.022117
33.070000	-520.638301
33.080000	-563.087141
33.090000	-700.165830
33.100000	-882.514248
33.110000	-1043.556804
33.120000	-1153.283743
33.130000	-1212.940135
33.140000	-1235.991200
33.150000	-1230.878612
33.160000	-1213.619609
33.170000	-1192.360145
33.180000	-1161.439293
33.190000	-1124.093157
33.200000	-1080.809646
33.210000	-1048.092874
33.220000	-1028.696105
33.230000	-1013.946234
33.240000	-1002.151243
33.250000	-989.340648
33.260000	-986.860226
33.270000	-987.894751
33.280000	-1003.826547
33.290000	-1030.277372
33.300000	-1073.357923
33.310000	-1100.086637
33.320000	-1095.136231
33.330000	-1072.505981
33.340000	-1070.174345
33.350000	-1103.053660
33.360000	-1150.637936
33.370000	-1200.143032
33.380000	-1236.279519
33.390000	-1262.800625
33.400000	-1275.412625
33.410000	-1271.641207
33.420000	-1260.085161
33.430000	-1280.407140
33.440000	-1368.585284
33.450000	-1508.532112
33.460000	-1643.473358
33.470000	-1734.202687
33.480000	-1780.296276
33.490000	-1792.062026
33.500000	-1779.274638
33.510000	-1751.408391
33.520000	-1713.392634
33.530000	-1661.881733
33.540000	-1588.310240
33.550000	-1511.909599
33.560000	-1456.716779
33.570000	-1429.697190
33.580000	-1413.861675
33.590000	-1387.941369
33.600000	-1345.178954
33.610000	-1282.659471
33.620000	-1208.654495
33.630000	-1128.160273
33.640000	-1046.587018
33.650000	-970.450768
33.660000	-904.298260
33.670000	-845.168900
33.680000	-782.099902
33.690000	-706.670512
33.700000	-621.037875
33.710000	-538.306911
33.720000	-459.043564
33.730000	-380.366764
33.740000	-302.822350
33.750000	-229.862378
33.760000	-159.678558
33.770000	-116.518850
33.780000	-137.323004
33.790000	-225.500696
33.800000	-322.545613
33.810000	-376.245465
33.820000	-392.671354
33.830000	-383.078273
33.840000	-357.197457
33.850000	-318.295281
33.860000	-280.820304
33.870000	-246.206648
33.880000	-206.143894
33.890000	-166.882917
33.900000	-140.873485
33.910000	-132.590323
33.920000	-137.629128
33.930000	-142.988620
33.940000	-147.462399
33.950000	-146.420140
33.960000	-150.377290
33.970000	-144.151828
33.980000	-137.729448
33.990000	-117.183372
34.000000	-86.827962
34.010000	-21.828502
34.020000	101.044746
34.030000	285.450858
34.040000	476.738152
34.050000	611.355906
34.060000	694.940992
34.070000	767.343600
34.080000	817.328134
34.090000	802.238874
34.100000	728.847502
34.110000	648.923463
34.120000	580.275236
34.130000	457.049155
34.140000	240.785004
34.150000	-33.614288
34.160000	-229.413602
34.170000	-201.239501
34.180000	8.221677
34.190000	379.552168
34.200000	879.842108
34.210000	1520.490311
34.220000	2194.163774
34.230000	2734.629915
34.240000	3070.110649
34.250000	3216.712554
34.260000	3208.811875
34.270000	3103.898682
34.280000	2825.521041
34.290000	2294.455484
34.300000	1843.409002
34.310000	1586.795885
34.320000	1607.930447
34.330000	1611.150034
34.340000	1597.991867
34.350000	1607.332811
34.360000	1566.141031
34.370000	1467.093532
34.380000	1324.081612
34.390000	1212.090879
34.400000	1116.848195
34.410000	1053.910301
34.420000	1014.289826
34.430000	1012.873397
34.440000	1023.365418
34.450000	1047.663294
34.460000	1073.487059
34.470000	1107.258493
34.480000	1120.936925
34.490000	1133.407726
34.500000	1141.420068
34.510000	1154.354650
34.520000	1162.950591
34.530000	1166.425681
34.540000	1169.599553
34.550000	1178.939853
34.560000	1196.677712
34.570000	1220.551397
34.580000	1235.165048
34.590000	1246.335316
34.600000	1265.116404
34.610000	1316.609634
34.620000	1390.090020
34.630000	1517.457182
34.640000	1704.450098
34.650000	1939.718256
34.660000	2156.453795
34.670000	2299.141744
34.680000	2357.047331
34.690000	2306.665775
34.700000	2177.256829
34.710000	2030.752658
34.720000	1959.357980
34.730000	1987.798093
34.740000	2082.779035
34.750000	2184.251320
34.760000	2260.761918
34.770000	2299.240319
34.780000	2315.645132
34.790000	2317.361672
34.800000	2317.702480
34.810000	2305.910044
34.820000	2260.558916
34.830000	2165.971167
34.840000	2049.365365
34.850000	1952.573171
34.860000	1902.299550
34.870000	1890.250185
34.880000	1903.393706
34.890000	1938.127911
34.900000	1975.956925
34.910000	2019.575617
34.920000	2052.313862
34.930000	2085.615899
34.940000	2114.476082
34.950000	2147.880163
34.960000	2185.800846
34.970000	2229.670803
34.980000	2273.629664
34.990000	2314.327462
35.000000	2358.680829
35.010000	2401.814226
35.020000	2439.263948
35.030000	2460.817671
35.040000	2479.779092
35.050000	2479.942455
35.060000	2421.098968
35.070000	2308.731646
35.080000	2191.745256
35.090000	2117.057422
35.100000	2086.812155
35.110000	2081.201353
35.120000	2085.773730
35.130000	2098.260208
35.140000	2113.610622
35.150000	2150.268021
35.160000	2187.225057
35.170000	2216.532378
35.180000	2229.726863
35.190000	2234.397697
35.200000	2245.139525
35.210000	2261.782141
35.220000	2293.806420
35.230000	2337.024803
35.240000	2386.702259
35.250000	2431.146810
35.260000	2471.198963
35.270000	2508.505452
35.280000	2544.263481
35.290000	2581.439280
35.300000	2628.581588
35.310000	2681.577838
35.320000	2736.808453
35.330000	2790.959186
35.340000	2855.652827
35.350000	2926.875250
35.360000	2998.403295
35.370000	3068.383290
35.380000	3137.742503
35.390000	3210.816234
35.400000	3280.299709
35.410000	3353.540461
35.420000	3413.040764
35.430000	3422.800320
35.440000	3355.058578
35.450000	3245.823774
35.460000	3166.429497
35.470000	3132.283987
35.480000	3117.946176
35.490000	3103.685412
35.500000	3127.213705
35.510000	3184.232064
35.520000	3230.633360
35.530000	3232.402055
35.540000	3211.804026
35.550000	3251.334690
35.560000	3405.161540
35.570000	3610.544965
35.580000	3765.343629
35.590000	3778.051282
35.600000	3673.445951
35.610000	3554.373529
35.620000	3523.483212
35.630000	3606.086122
35.640000	3754.924511
35.650000	3888.976568
35.660000	3952.372695
35.670000	3909.193469
35.680000	3776.237833
35.690000	3571.018297
35.700000	3341.125334
35.710000	3257.121055
35.720000	3364.610215
35.730000	3567.776359
35.740000	3700.175780
35.750000	3692.306262
35.760000	3585.320595
35.770000	3423.787840
35.780000	3274.803180
35.790000	3223.929628
35.800000	3240.576459
35.810000	3334.124462
35.820000	3437.416305
35.830000	3396.023221
35.840000	3135.085129
35.850000	2736.964368
35.860000	2336.843033
35.870000	1993.974398
35.880000	1748.158340
35.890000	1083.234197
