Time(s)	IR_denoised_wiener
0.000000	107.517448
0.010000	165.204752
0.020000	176.223266
0.030000	201.102361
0.040000	226.240469
0.050000	245.383305
0.060000	249.947842
0.070000	252.753007
0.080000	256.657910
0.090000	249.779006
0.100000	231.094672
0.110000	212.871768
0.120000	215.584308
0.130000	229.244597
0.140000	234.746030
0.150000	224.345835
0.160000	204.310155
0.170000	187.495827
0.180000	167.184562
0.190000	130.660119
0.200000	39.352122
0.210000	-114.393122
0.220000	-289.983532
0.230000	-418.002863
0.240000	-473.744261
0.250000	-476.034391
0.260000	-464.196778
0.270000	-456.643913
0.280000	-443.206154
0.290000	-410.880948
0.300000	-360.555566
0.310000	-322.500498
0.320000	-293.782183
0.330000	-269.081819
0.340000	-273.393631
0.350000	-343.998376
0.360000	-470.174642
0.370000	-584.727810
0.380000	-654.684205
0.390000	-680.182659
0.400000	-676.870737
0.410000	-660.939941
0.420000	-628.302406
0.430000	-597.727397
0.440000	-558.954960
0.450000	-514.851404
0.460000	-472.586379
0.470000	-438.941267
0.480000	-424.528450
0.490000	-417.937310
0.500000	-410.778687
0.510000	-397.240162
0.520000	-378.013049
0.530000	-358.187886
0.540000	-335.192344
0.550000	-304.094965
0.560000	-272.705655
0.570000	-247.296692
0.580000	-232.513216
0.590000	-212.407092
0.600000	-187.330628
0.610000	-157.816243
0.620000	-123.777774
0.630000	-84.187417
0.640000	-32.173318
0.650000	19.757227
0.660000	64.481799
0.670000	109.778829
0.680000	154.816125
0.690000	196.162980
0.700000	241.550955
0.710000	278.528367
0.720000	265.910362
0.730000	175.967694
0.740000	37.127812
0.750000	-82.780802
0.760000	-166.756896
0.770000	-214.871928
0.780000	-234.958506
0.790000	-236.930872
0.800000	-219.424416
0.810000	-194.655573
0.820000	-158.139421
0.830000	-118.043165
0.840000	-80.476757
0.850000	-55.736744
0.860000	-50.431624
0.870000	-49.999675
0.880000	-42.019705
0.890000	-24.251074
0.900000	-1.921977
0.910000	23.882058
0.920000	54.221628
0.930000	90.723557
0.940000	129.390094
0.950000	171.620351
0.960000	209.908068
0.970000	255.275497
0.980000	317.129225
0.990000	405.974774
1.000000	513.339529
1.010000	617.679577
1.020000	703.608323
1.030000	762.778776
1.040000	805.637275
1.050000	838.575520
1.060000	869.044621
1.070000	888.036005
1.080000	903.541068
1.090000	922.201982
1.100000	914.647916
1.110000	848.402185
1.120000	725.224991
1.130000	603.801695
1.140000	523.458614
1.150000	481.127909
1.160000	469.724430
1.170000	472.136560
1.180000	486.742846
1.190000	504.167376
1.200000	524.831707
1.210000	546.233767
1.220000	566.632999
1.230000	575.653511
1.240000	573.172915
1.250000	559.117238
1.260000	548.798996
1.270000	544.923627
1.280000	545.121805
1.290000	554.126900
1.300000	566.794900
1.310000	583.723391
1.320000	603.506640
1.330000	629.711050
1.340000	655.567528
1.350000	681.763411
1.360000	704.326526
1.370000	732.563162
1.380000	760.755186
1.390000	786.750306
1.400000	813.575671
1.410000	837.295921
1.420000	857.115697
1.430000	872.553300
1.440000	887.044032
1.450000	898.506385
1.460000	911.701988
1.470000	932.506653
1.480000	952.030136
1.490000	976.926983
1.500000	991.674687
1.510000	960.000909
1.520000	853.050130
1.530000	699.944526
1.540000	571.249774
1.550000	486.123906
1.560000	442.100229
1.570000	426.318185
1.580000	430.339516
1.590000	435.193459
1.600000	439.336493
1.610000	439.105968
1.620000	446.084961
1.630000	454.012311
1.640000	452.865832
1.650000	435.970466
1.660000	406.382602
1.670000	391.036590
1.680000	386.190717
1.690000	387.142216
1.700000	380.684155
1.710000	381.031710
1.720000	393.194063
1.730000	415.611451
1.740000	437.386476
1.750000	455.922002
1.760000	480.653143
1.770000	511.581038
1.780000	546.287413
1.790000	576.932616
1.800000	601.979607
1.810000	624.336861
1.820000	647.045797
1.830000	669.771967
1.840000	692.486125
1.850000	714.244356
1.860000	734.299946
1.870000	753.761279
1.880000	769.140398
1.890000	792.025342
1.900000	813.630431
1.910000	829.673781
1.920000	852.538037
1.930000	854.918144
1.940000	802.130092
1.950000	674.909354
1.960000	523.283401
1.970000	404.290529
1.980000	320.323766
1.990000	274.711180
2.000000	259.035207
2.010000	264.166304
2.020000	279.779550
2.030000	285.295872
2.040000	291.646131
2.050000	301.103774
2.060000	315.546824
2.070000	322.908320
2.080000	304.463923
2.090000	278.515666
2.100000	258.735819
2.110000	251.470142
2.120000	248.668501
2.130000	251.149039
2.140000	264.982074
2.150000	288.840484
2.160000	313.974527
2.170000	330.227062
2.180000	352.066676
2.190000	379.605996
2.200000	416.867742
2.210000	453.977996
2.220000	488.386545
2.230000	524.065250
2.240000	556.245062
2.250000	590.210216
2.260000	623.779551
2.270000	659.731652
2.280000	693.991097
2.290000	724.621209
2.300000	754.912274
2.310000	786.200362
2.320000	824.206809
2.330000	852.747010
2.340000	886.948015
2.350000	933.631187
2.360000	959.271745
2.370000	910.152901
2.380000	785.433352
2.390000	642.861168
2.400000	532.933653
2.410000	458.463377
2.420000	417.111015
2.430000	402.411764
2.440000	386.921224
2.450000	356.754152
2.460000	291.737211
2.470000	188.832940
2.480000	9.143657
2.490000	-244.239042
2.500000	-592.512694
2.510000	-924.586056
2.520000	-1180.953443
2.530000	-1363.765446
2.540000	-1481.381526
2.550000	-1554.522110
2.560000	-1610.944471
2.570000	-1670.237419
2.580000	-1728.758364
2.590000	-1779.592155
2.600000	-1810.539813
2.610000	-1833.662569
2.620000	-1857.627950
2.630000	-1869.657041
2.640000	-1866.057615
2.650000	-1851.324167
2.660000	-1840.165754
2.670000	-1828.590589
2.680000	-1805.237877
2.690000	-1768.535001
2.700000	-1713.953192
2.710000	-1649.498682
2.720000	-1576.635564
2.730000	-1508.479563
2.740000	-1438.582896
2.750000	-1362.785574
2.760000	-1285.205288
2.770000	-1224.450511
2.780000	-1165.053339
2.790000	-1108.815584
2.800000	-1092.316389
2.810000	-1154.506756
2.820000	-1273.732663
2.830000	-1378.380480
2.840000	-1439.920455
2.850000	-1459.656067
2.860000	-1458.816297
2.870000	-1443.877850
2.880000	-1424.039710
2.890000	-1396.386492
2.900000	-1372.623442
2.910000	-1348.170588
2.920000	-1316.856331
2.930000	-1279.627768
2.940000	-1255.124673
2.950000	-1249.704728
2.960000	-1250.326561
2.970000	-1242.430982
2.980000	-1224.216916
2.990000	-1199.158439
3.000000	-1165.078411
3.010000	-1131.237247
3.020000	-1093.556473
3.030000	-1060.002263
3.040000	-1022.978169
3.050000	-986.117747
3.060000	-945.364940
3.070000	-902.903129
3.080000	-862.742716
3.090000	-830.010783
3.100000	-798.742446
3.110000	-760.430417
3.120000	-716.755659
3.130000	-674.850386
3.140000	-636.071567
3.150000	-593.900473
3.160000	-550.730218
3.170000	-508.266786
3.180000	-469.710933
3.190000	-428.925250
3.200000	-384.355206
3.210000	-350.612254
3.220000	-314.239691
3.230000	-276.657250
3.240000	-270.192694
3.250000	-336.043392
3.260000	-472.678283
3.270000	-611.896185
3.280000	-712.888691
3.290000	-773.838803
3.300000	-801.104098
3.310000	-799.760255
3.320000	-781.319340
3.330000	-753.319415
3.340000	-737.889742
3.350000	-720.760140
3.360000	-700.142416
3.370000	-674.181785
3.380000	-655.749749
3.390000	-657.583712
3.400000	-669.608173
3.410000	-679.960909
3.420000	-682.127891
3.430000	-674.999306
3.440000	-661.972762
3.450000	-648.021217
3.460000	-631.779152
3.470000	-619.709963
3.480000	-607.868686
3.490000	-596.722288
3.500000	-579.917342
3.510000	-558.064649
3.520000	-536.623274
3.530000	-514.365653
3.540000	-490.975094
3.550000	-461.964965
3.560000	-427.983815
3.570000	-394.219242
3.580000	-362.960107
3.590000	-334.443110
3.600000	-296.878286
3.610000	-257.025873
3.620000	-217.425842
3.630000	-178.577018
3.640000	-136.935969
3.650000	-93.781431
3.660000	-61.783759
3.670000	-20.200130
3.680000	22.315305
3.690000	13.288730
3.700000	-75.825011
3.710000	-219.378348
3.720000	-340.128079
3.730000	-418.842235
3.740000	-458.462538
3.750000	-462.611492
3.760000	-441.785717
3.770000	-407.018401
3.780000	-374.091120
3.790000	-339.006500
3.800000	-295.692671
3.810000	-254.340774
3.820000	-226.265139
3.830000	-218.296891
3.840000	-226.775938
3.850000	-238.192757
3.860000	-245.938812
3.870000	-242.385259
3.880000	-228.089927
3.890000	-202.205973
3.900000	-164.206973
3.910000	-127.696862
3.920000	-97.263597
3.930000	-69.463008
3.940000	-31.926003
3.950000	12.432264
3.960000	59.110991
3.970000	104.032811
3.980000	148.199741
3.990000	193.674435
4.000000	237.312711
4.010000	279.364258
4.020000	314.449451
4.030000	348.123700
4.040000	379.942985
4.050000	415.941222
4.060000	461.141043
4.070000	510.772830
4.080000	546.676982
4.090000	572.038059
4.100000	612.984607
4.110000	660.582655
4.120000	652.855878
4.130000	560.593567
4.140000	422.624002
4.150000	302.048111
4.160000	224.666960
4.170000	187.802026
4.180000	190.759939
4.190000	217.224576
4.200000	251.566657
4.210000	277.357088
4.220000	300.814709
4.230000	333.884761
4.240000	369.389974
4.250000	391.769442
4.260000	388.687764
4.270000	378.452246
4.280000	367.667665
4.290000	364.520605
4.300000	365.664053
4.310000	378.667399
4.320000	399.009302
4.330000	425.204881
4.340000	450.054817
4.350000	474.480907
4.360000	499.817978
4.370000	523.797151
4.380000	544.632850
4.390000	565.511031
4.400000	593.175070
4.410000	622.242776
4.420000	649.775424
4.430000	673.360975
4.440000	703.128812
4.450000	732.485408
4.460000	764.227059
4.470000	793.976106
4.480000	826.068773
4.490000	858.836738
4.500000	887.956507
4.510000	909.418426
4.520000	937.949438
4.530000	976.354644
4.540000	974.852075
4.550000	890.363606
4.560000	740.642975
4.570000	597.575945
4.580000	504.075843
4.590000	451.702284
4.600000	435.239446
4.610000	435.846577
4.620000	447.159522
4.630000	464.384211
4.640000	476.117295
4.650000	488.693233
4.660000	507.461850
4.670000	527.363297
4.680000	533.502501
4.690000	515.101251
4.700000	490.346092
4.710000	470.878081
4.720000	459.221629
4.730000	462.391021
4.740000	471.443909
4.750000	487.321800
4.760000	501.029708
4.770000	519.353515
4.780000	542.321320
4.790000	567.770362
4.800000	595.342476
4.810000	622.572780
4.820000	654.776458
4.830000	694.425610
4.840000	734.910474
4.850000	763.988033
4.860000	787.820191
4.870000	817.622900
4.880000	861.446515
4.890000	900.576292
4.900000	920.810671
4.910000	934.327632
4.920000	966.937817
4.930000	1011.046149
4.940000	1030.378497
4.950000	1031.608297
4.960000	1037.255067
4.970000	1028.783408
4.980000	946.745007
4.990000	785.832972
5.000000	622.852897
5.010000	499.177638
5.020000	424.265543
5.030000	382.178285
5.040000	357.739337
5.050000	347.269550
5.060000	348.943910
5.070000	357.744376
5.080000	363.192460
5.090000	368.649496
5.100000	380.508256
5.110000	377.871886
5.120000	338.211762
5.130000	287.619973
5.140000	253.644719
5.150000	245.710361
5.160000	249.069993
5.170000	251.198849
5.180000	253.258141
5.190000	256.412584
5.200000	268.188955
5.210000	274.960028
5.220000	282.899244
5.230000	289.876370
5.240000	303.695137
5.250000	318.480072
5.260000	331.558029
5.270000	354.848665
5.280000	380.424494
5.290000	411.639598
5.300000	439.982992
5.310000	472.196978
5.320000	505.573349
5.330000	534.804962
5.340000	560.571147
5.350000	593.497851
5.360000	630.923285
5.370000	659.552284
5.380000	677.697965
5.390000	698.370983
5.400000	700.770246
5.410000	637.172770
5.420000	496.667223
5.430000	323.850495
5.440000	187.019327
5.450000	114.474952
5.460000	99.331249
5.470000	96.049588
5.480000	79.756148
5.490000	70.804542
5.500000	91.910174
5.510000	122.496441
5.520000	131.758500
5.530000	136.708607
5.540000	148.646612
5.550000	145.551271
5.560000	109.601482
5.570000	77.933306
5.580000	78.920585
5.590000	95.244678
5.600000	95.255028
5.610000	92.735413
5.620000	106.323914
5.630000	142.914872
5.640000	180.367231
5.650000	211.522860
5.660000	234.478894
5.670000	258.214514
5.680000	288.970006
5.690000	323.600558
5.700000	354.836485
5.710000	380.721082
5.720000	412.793107
5.730000	449.191066
5.740000	492.815591
5.750000	532.675528
5.760000	568.921155
5.770000	603.216470
5.780000	645.769014
5.790000	706.140971
5.800000	774.281503
5.810000	820.396240
5.820000	856.627326
5.830000	878.657606
5.840000	860.966029
5.850000	772.621709
5.860000	624.470207
5.870000	491.479126
5.880000	406.575910
5.890000	379.656734
5.900000	393.657468
5.910000	419.517747
5.920000	455.864539
5.930000	491.400751
5.940000	531.165504
5.950000	574.650651
5.960000	612.490710
5.970000	640.295886
5.980000	647.179505
5.990000	641.709080
6.000000	636.259707
6.010000	635.481758
6.020000	640.711255
6.030000	655.641104
6.040000	684.210078
6.050000	727.505621
6.060000	780.738830
6.070000	833.065970
6.080000	877.991711
6.090000	919.032387
6.100000	964.302169
6.110000	1021.041061
6.120000	1083.287395
6.130000	1142.419818
6.140000	1191.988996
6.150000	1239.547125
6.160000	1290.728433
6.170000	1341.691175
6.180000	1382.493545
6.190000	1417.249247
6.200000	1462.668315
6.210000	1508.106884
6.220000	1551.908759
6.230000	1605.374047
6.240000	1658.464142
6.250000	1657.895580
6.260000	1572.787122
6.270000	1445.991943
6.280000	1339.868890
6.290000	1273.674695
6.300000	1246.599867
6.310000	1253.048162
6.320000	1282.019396
6.330000	1322.457731
6.340000	1359.464141
6.350000	1396.620005
6.360000	1436.607865
6.370000	1476.133468
6.380000	1500.420475
6.390000	1495.682883
6.400000	1482.025533
6.410000	1472.912879
6.420000	1478.987773
6.430000	1492.122357
6.440000	1514.675950
6.450000	1539.669405
6.460000	1565.742187
6.470000	1591.578604
6.480000	1617.841945
6.490000	1649.527167
6.500000	1678.933672
6.510000	1709.198362
6.520000	1739.038811
6.530000	1774.581463
6.540000	1812.809724
6.550000	1850.654625
6.560000	1884.602260
6.570000	1913.422869
6.580000	1942.099956
6.590000	1977.216205
6.600000	2023.278578
6.610000	2067.314075
6.620000	2100.487010
6.630000	2138.162752
6.640000	2161.618700
6.650000	2128.295374
6.660000	2009.804577
6.670000	1854.987882
6.680000	1739.745033
6.690000	1679.861357
6.700000	1659.945069
6.710000	1660.735205
6.720000	1672.514765
6.730000	1685.952662
6.740000	1689.754040
6.750000	1681.869568
6.760000	1671.697885
6.770000	1670.463676
6.780000	1666.917908
6.790000	1655.075853
6.800000	1634.154859
6.810000	1621.071635
6.820000	1623.032474
6.830000	1624.671755
6.840000	1624.948085
6.850000	1618.256973
6.860000	1604.207951
6.870000	1584.844435
6.880000	1548.424460
6.890000	1494.456240
6.900000	1419.291337
6.910000	1327.415009
6.920000	1226.824728
6.930000	1101.964855
6.940000	954.727367
6.950000	789.174204
6.960000	604.936926
6.970000	409.055196
6.980000	213.811045
6.990000	55.317332
7.000000	-36.350198
7.010000	-41.803140
7.020000	21.700178
7.030000	115.662518
7.040000	210.418132
7.050000	258.722073
7.060000	219.460630
7.070000	90.194412
7.080000	-57.321006
7.090000	-162.058445
7.100000	-214.942206
7.110000	-231.744236
7.120000	-219.572108
7.130000	-200.170539
7.140000	-185.209124
7.150000	-183.291014
7.160000	-181.156493
7.170000	-159.098654
7.180000	-128.896352
7.190000	-104.285484
7.200000	-104.693459
7.210000	-106.062296
7.220000	-93.559791
7.230000	-61.910375
7.240000	-17.504316
7.250000	32.191303
7.260000	88.526960
7.270000	142.214213
7.280000	191.194079
7.290000	233.184697
7.300000	273.830019
7.310000	320.104754
7.320000	368.715874
7.330000	416.970103
7.340000	462.211001
7.350000	507.124820
7.360000	548.630504
7.370000	589.233952
7.380000	626.975661
7.390000	664.291922
7.400000	696.570397
7.410000	727.640855
7.420000	759.426509
7.430000	792.250837
7.440000	833.566469
7.450000	874.077905
7.460000	910.651922
7.470000	955.207027
7.480000	979.553399
7.490000	939.884907
7.500000	818.450214
7.510000	666.675352
7.520000	552.313218
7.530000	463.834833
7.540000	395.109945
7.550000	313.840105
7.560000	187.489116
7.570000	7.827332
7.580000	-216.395082
7.590000	-428.807392
7.600000	-611.026623
7.610000	-775.949917
7.620000	-974.372350
7.630000	-1238.082572
7.640000	-1521.084091
7.650000	-1798.883607
7.660000	-2077.285713
7.670000	-2301.959310
7.680000	-2486.194019
7.690000	-2654.212071
7.700000	-2831.503203
7.710000	-3029.862321
7.720000	-3222.141663
7.730000	-3387.968529
7.740000	-3536.299124
7.750000	-3675.178424
7.760000	-3802.536046
7.770000	-3890.759775
7.780000	-3958.676469
7.790000	-4038.153885
7.800000	-4097.754254
7.810000	-4138.750008
7.820000	-4144.897014
7.830000	-4149.262207
7.840000	-4151.730136
7.850000	-4160.245546
7.860000	-4168.640978
7.870000	-4146.613192
7.880000	-4115.144033
7.890000	-4093.093764
7.900000	-4095.088250
7.910000	-4074.192059
7.920000	-4064.375476
7.930000	-4117.460811
7.940000	-4237.319697
7.950000	-4358.327961
7.960000	-4427.755826
7.970000	-4442.120725
7.980000	-4402.996694
7.990000	-4319.057644
8.000000	-4205.714500
8.010000	-4087.478409
8.020000	-3990.897141
8.030000	-3927.651279
8.040000	-3882.799941
8.050000	-3853.317131
8.060000	-3826.469959
8.070000	-3808.830148
8.080000	-3780.528406
8.090000	-3731.832274
8.100000	-3672.435001
8.110000	-3600.263715
8.120000	-3520.489937
8.130000	-3430.134669
8.140000	-3330.685810
8.150000	-3223.133001
8.160000	-3095.976182
8.170000	-2924.557370
8.180000	-2705.793964
8.190000	-2444.062216
8.200000	-2167.439003
8.210000	-1885.139003
8.220000	-1595.481264
8.230000	-1337.549673
8.240000	-1107.534496
8.250000	-908.116714
8.260000	-741.590570
8.270000	-615.149514
8.280000	-517.724697
8.290000	-430.622804
8.300000	-353.370180
8.310000	-296.922012
8.320000	-254.762081
8.330000	-220.014510
8.340000	-225.055942
8.350000	-307.916557
8.360000	-452.327892
8.370000	-595.818798
8.380000	-689.430579
8.390000	-738.329850
8.400000	-745.654372
8.410000	-727.335910
8.420000	-701.343479
8.430000	-681.790944
8.440000	-677.477393
8.450000	-676.648770
8.460000	-663.058041
8.470000	-642.358985
8.480000	-633.801427
8.490000	-653.519190
8.500000	-681.236509
8.510000	-700.147100
8.520000	-704.827506
8.530000	-702.266892
8.540000	-691.520968
8.550000	-675.855630
8.560000	-654.660958
8.570000	-633.585183
8.580000	-608.898601
8.590000	-583.456009
8.600000	-559.591108
8.610000	-531.427017
8.620000	-503.100283
8.630000	-472.503138
8.640000	-451.770601
8.650000	-429.971017
8.660000	-410.602084
8.670000	-384.525476
8.680000	-362.609551
8.690000	-339.155211
8.700000	-319.768592
8.710000	-300.211506
8.720000	-271.367572
8.730000	-240.098092
8.740000	-208.071766
8.750000	-171.087767
8.760000	-152.637628
8.770000	-201.599173
8.780000	-331.892545
8.790000	-502.745160
8.800000	-637.834346
8.810000	-725.519718
8.820000	-765.925764
8.830000	-776.793015
8.840000	-775.800416
8.850000	-770.822494
8.860000	-771.796883
8.870000	-781.280885
8.880000	-786.199290
8.890000	-777.866564
8.900000	-767.772026
8.910000	-774.252313
8.920000	-802.422720
8.930000	-823.325086
8.940000	-833.924889
8.950000	-832.180521
8.960000	-824.229112
8.970000	-809.797589
8.980000	-789.982649
8.990000	-766.862544
9.000000	-744.519850
9.010000	-726.370124
9.020000	-704.469934
9.030000	-674.330895
9.040000	-638.215210
9.050000	-608.094596
9.060000	-586.042503
9.070000	-566.947370
9.080000	-546.313227
9.090000	-523.919891
9.100000	-500.360446
9.110000	-475.330463
9.120000	-450.185660
9.130000	-423.840682
9.140000	-391.439784
9.150000	-351.799830
9.160000	-312.823947
9.170000	-277.182595
9.180000	-244.971930
9.190000	-198.620627
9.200000	-164.343533
9.210000	-188.884632
9.220000	-291.742791
9.230000	-444.452280
9.240000	-574.455890
9.250000	-656.918833
9.260000	-688.996775
9.270000	-686.536999
9.280000	-672.323201
9.290000	-653.879286
9.300000	-641.422598
9.310000	-631.281869
9.320000	-609.926222
9.330000	-574.812132
9.340000	-543.916567
9.350000	-532.765543
9.360000	-539.287976
9.370000	-537.749536
9.380000	-524.815994
9.390000	-506.520516
9.400000	-482.754571
9.410000	-458.733045
9.420000	-429.090513
9.430000	-400.738545
9.440000	-371.159299
9.450000	-339.172616
9.460000	-304.321119
9.470000	-269.706996
9.480000	-236.902082
9.490000	-209.335972
9.500000	-177.870833
9.510000	-139.737553
9.520000	-96.940616
9.530000	-54.902585
9.540000	-13.749387
9.550000	33.198066
9.560000	81.659261
9.570000	121.865025
9.580000	156.350280
9.590000	196.137733
9.600000	250.619786
9.610000	304.258792
9.620000	349.495218
9.630000	400.022761
9.640000	442.214002
9.650000	422.261951
9.660000	313.593679
9.670000	164.292797
9.680000	40.944624
9.690000	-31.870765
9.700000	-61.203167
9.710000	-48.430103
9.720000	-10.136908
9.730000	37.601623
9.740000	75.844984
9.750000	104.609428
9.760000	140.129274
9.770000	178.486912
9.780000	212.998168
9.790000	222.918488
9.800000	219.548291
9.810000	210.934848
9.820000	204.022941
9.830000	206.213851
9.840000	220.079549
9.850000	245.748531
9.860000	266.018108
9.870000	286.943807
9.880000	309.205780
9.890000	341.425263
9.900000	370.264668
9.910000	388.188002
9.920000	406.307277
9.930000	427.862108
9.940000	453.944122
9.950000	476.444894
9.960000	501.554668
9.970000	534.961202
9.980000	566.390077
9.990000	588.755442
10.000000	605.524110
10.010000	626.503864
10.020000	655.244845
10.030000	688.504641
10.040000	715.215550
10.050000	740.488427
10.060000	780.823218
10.070000	800.601854
10.080000	747.992906
10.090000	611.098607
10.100000	455.649876
10.110000	344.528689
10.120000	283.090414
10.130000	270.216305
10.140000	286.088651
10.150000	314.189113
10.160000	342.041193
10.170000	364.793139
10.180000	389.971744
10.190000	421.331212
10.200000	450.146159
10.210000	464.472314
10.220000	452.265896
10.230000	427.965469
10.240000	409.341155
10.250000	398.027729
10.260000	400.376505
10.270000	409.334022
10.280000	422.372178
10.290000	442.269824
10.300000	460.953347
10.310000	483.858403
10.320000	502.111253
10.330000	521.436813
10.340000	543.875803
10.350000	571.298541
10.360000	599.908928
10.370000	625.443474
10.380000	647.905273
10.390000	669.880681
10.400000	695.190527
10.410000	720.918570
10.420000	748.774670
10.430000	770.549056
10.440000	787.337871
10.450000	799.130318
10.460000	823.236104
10.470000	853.936098
10.480000	877.734384
10.490000	903.759052
10.500000	915.450772
10.510000	873.140816
10.520000	745.479236
10.530000	571.672540
10.540000	428.567525
10.550000	337.007152
10.560000	287.529548
10.570000	270.966467
10.580000	272.099107
10.590000	284.574542
10.600000	299.285764
10.610000	305.469648
10.620000	318.836965
10.630000	332.595026
10.640000	342.019504
10.650000	330.647399
10.660000	298.874492
10.670000	273.732648
10.680000	255.616275
10.690000	250.125722
10.700000	253.626454
10.710000	263.816449
10.720000	278.932337
10.730000	290.449727
10.740000	301.899346
10.750000	313.702707
10.760000	329.503672
10.770000	349.909369
10.780000	369.720961
10.790000	390.764453
10.800000	411.224258
10.810000	433.260014
10.820000	455.681459
10.830000	474.711783
10.840000	492.785906
10.850000	509.786932
10.860000	529.531746
10.870000	546.801383
10.880000	563.260809
10.890000	581.115158
10.900000	604.626881
10.910000	623.687672
10.920000	649.349463
10.930000	684.202179
10.940000	676.555033
10.950000	586.380964
10.960000	414.839465
10.970000	251.434962
10.980000	136.621903
10.990000	68.672652
11.000000	33.002059
11.010000	20.558725
11.020000	25.357307
11.030000	35.729343
11.040000	40.012879
11.050000	47.591554
11.060000	61.952862
11.070000	75.056193
11.080000	77.523412
11.090000	55.141943
11.100000	31.164736
11.110000	8.138843
11.120000	-3.871792
11.130000	-6.260741
11.140000	-2.612538
11.150000	8.990066
11.160000	26.270626
11.170000	46.541989
11.180000	67.791366
11.190000	86.726269
11.200000	110.643879
11.210000	137.855369
11.220000	164.125712
11.230000	188.630296
11.240000	214.588591
11.250000	241.030464
11.260000	268.358798
11.270000	288.043129
11.280000	309.482089
11.290000	331.664513
11.300000	353.576152
11.310000	374.591214
11.320000	397.651061
11.330000	429.165285
11.340000	455.642617
11.350000	486.774461
11.360000	530.266942
11.370000	557.254866
11.380000	513.459925
11.390000	381.140861
11.400000	217.831674
11.410000	91.360587
11.420000	20.373903
11.430000	-3.521621
11.440000	-1.145563
11.450000	17.932943
11.460000	41.299799
11.470000	53.685743
11.480000	66.123581
11.490000	83.060068
11.500000	100.564069
11.510000	102.707929
11.520000	81.666732
11.530000	53.394454
11.540000	30.065801
11.550000	20.044063
11.560000	15.393755
11.570000	16.356548
11.580000	17.346219
11.590000	30.023684
11.600000	51.232030
11.610000	79.335810
11.620000	109.416398
11.630000	132.277193
11.640000	152.947610
11.650000	177.529387
11.660000	208.443342
11.670000	239.733298
11.680000	267.586444
11.690000	292.590872
11.700000	318.379576
11.710000	338.729800
11.720000	351.492408
11.730000	360.192909
11.740000	370.586710
11.750000	395.317030
11.760000	421.920895
11.770000	445.437338
11.780000	478.946955
11.790000	500.436987
11.800000	468.896632
11.810000	354.108811
11.820000	196.683432
11.830000	58.147403
11.840000	-35.651720
11.850000	-81.232669
11.860000	-90.720246
11.870000	-81.317142
11.880000	-67.137353
11.890000	-58.414630
11.900000	-49.534547
11.910000	-31.526458
11.920000	-7.989765
11.930000	6.641849
11.940000	-3.472228
11.950000	-24.130653
11.960000	-45.991301
11.970000	-58.924196
11.980000	-63.563083
11.990000	-57.064607
12.000000	-39.833478
12.010000	-20.584141
12.020000	-3.113271
12.030000	11.547743
12.040000	26.595766
12.050000	43.986830
12.060000	63.609797
12.070000	83.063694
12.080000	105.951110
12.090000	125.756954
12.100000	148.972392
12.110000	170.729989
12.120000	193.992876
12.130000	217.335388
12.140000	237.318974
12.150000	259.944578
12.160000	278.254063
12.170000	299.905214
12.180000	332.834604
12.190000	367.128223
12.200000	400.079722
12.210000	436.349626
12.220000	453.562118
12.230000	411.166016
12.240000	287.073505
12.250000	136.506390
12.260000	16.234154
12.270000	-57.285579
12.280000	-86.344955
12.290000	-88.808549
12.300000	-77.598690
12.310000	-69.029005
12.320000	-66.170862
12.330000	-62.243845
12.340000	-42.743229
12.350000	-18.215536
12.360000	-8.362088
12.370000	-23.516146
12.380000	-48.264849
12.390000	-60.151992
12.400000	-62.927470
12.410000	-56.130792
12.420000	-44.960115
12.430000	-33.795125
12.440000	-16.652045
12.450000	-2.187382
12.460000	18.683742
12.470000	39.690541
12.480000	63.021821
12.490000	86.201411
12.500000	109.011897
12.510000	132.695450
12.520000	152.965984
12.530000	173.189734
12.540000	192.220269
12.550000	214.344899
12.560000	235.096496
12.570000	257.834242
12.580000	277.595910
12.590000	296.321946
12.600000	315.740836
12.610000	347.817213
12.620000	381.802850
12.630000	409.632673
12.640000	444.235363
12.650000	459.654184
12.660000	418.616327
12.670000	292.345237
12.680000	127.183158
12.690000	-6.919316
12.700000	-90.743129
12.710000	-124.257015
12.720000	-126.742905
12.730000	-112.936001
12.740000	-99.434905
12.750000	-93.275826
12.760000	-85.102314
12.770000	-60.956775
12.780000	-24.839468
12.790000	-4.055484
12.800000	-14.565877
12.810000	-39.751782
12.820000	-59.302547
12.830000	-65.837320
12.840000	-64.092885
12.850000	-55.935353
12.860000	-40.562934
12.870000	-24.406951
12.880000	-8.371494
12.890000	8.773631
12.900000	27.464091
12.910000	52.612844
12.920000	78.583710
12.930000	107.452924
12.940000	131.656545
12.950000	155.973270
12.960000	185.042034
12.970000	214.782713
12.980000	245.084809
12.990000	271.894379
13.000000	302.137464
13.010000	330.619144
13.020000	352.169912
13.030000	372.353106
13.040000	394.175050
13.050000	419.396689
13.060000	453.503450
13.070000	499.412906
13.080000	522.708983
13.090000	475.371413
13.100000	356.022256
13.110000	211.441800
13.120000	103.690416
13.130000	44.353111
13.140000	28.626425
13.150000	36.535583
13.160000	54.893878
13.170000	77.048771
13.180000	86.781125
13.190000	96.620290
13.200000	111.627200
13.210000	127.144424
13.220000	125.416574
13.230000	104.023250
13.240000	82.579008
13.250000	66.174689
13.260000	54.372055
13.270000	47.975303
13.280000	59.509688
13.290000	83.371814
13.300000	110.617129
13.310000	128.068981
13.320000	142.758980
13.330000	157.734072
13.340000	174.876460
13.350000	190.696528
13.360000	206.318690
13.370000	226.982321
13.380000	247.377269
13.390000	270.937408
13.400000	288.379483
13.410000	308.253323
13.420000	324.988046
13.430000	342.908163
13.440000	355.211072
13.450000	372.589357
13.460000	394.381157
13.470000	407.548076
13.480000	413.569237
13.490000	431.867468
13.500000	452.320824
13.510000	426.058351
13.520000	322.099395
13.530000	177.747886
13.540000	56.928773
13.550000	-18.701060
13.560000	-47.653045
13.570000	-52.906426
13.580000	-42.549931
13.590000	-28.478292
13.600000	-20.463782
13.610000	-19.047681
13.620000	-13.369274
13.630000	-3.336351
13.640000	-1.332147
13.650000	-22.656228
13.660000	-54.908888
13.670000	-83.660555
13.680000	-101.862674
13.690000	-110.376794
13.700000	-113.516204
13.710000	-110.770125
13.720000	-105.203310
13.730000	-97.179871
13.740000	-89.253671
13.750000	-79.267329
13.760000	-67.334329
13.770000	-51.707142
13.780000	-30.772899
13.790000	-8.519956
13.800000	10.429099
13.810000	22.646080
13.820000	37.307881
13.830000	59.108561
13.840000	86.478141
13.850000	110.526211
13.860000	123.961328
13.870000	128.944951
13.880000	137.446505
13.890000	159.667142
13.900000	182.175003
13.910000	195.708943
13.920000	214.609733
13.930000	229.994954
13.940000	197.254248
13.950000	85.626835
13.960000	-72.954631
13.970000	-213.676645
13.980000	-317.982981
13.990000	-379.372409
14.000000	-405.743472
14.010000	-410.776725
14.020000	-410.536595
14.030000	-415.859510
14.040000	-422.982522
14.050000	-414.598068
14.060000	-388.830545
14.070000	-361.745681
14.080000	-354.385410
14.090000	-365.525375
14.100000	-371.906384
14.110000	-370.721260
14.120000	-359.789153
14.130000	-342.960506
14.140000	-324.366203
14.150000	-308.561141
14.160000	-294.956062
14.170000	-278.844116
14.180000	-257.912855
14.190000	-233.831759
14.200000	-201.879197
14.210000	-171.218009
14.220000	-137.168027
14.230000	-107.666122
14.240000	-80.456104
14.250000	-54.478130
14.260000	-26.432000
14.270000	6.013197
14.280000	36.206734
14.290000	73.186882
14.300000	108.770739
14.310000	137.674403
14.320000	155.977665
14.330000	172.168480
14.340000	176.440120
14.350000	183.702854
14.360000	183.806119
14.370000	142.142395
14.380000	19.465011
14.390000	-174.979276
14.400000	-369.398752
14.410000	-530.233766
14.420000	-666.407047
14.430000	-819.271881
14.440000	-967.270467
14.450000	-1064.604694
14.460000	-1079.868048
14.470000	-980.295092
14.480000	-781.502624
14.490000	-455.939358
14.500000	-190.418976
14.510000	-10.749662
14.520000	106.295331
14.530000	184.913158
14.540000	238.762829
14.550000	266.506837
14.560000	272.885746
14.570000	232.991150
14.580000	141.701749
14.590000	43.918263
14.600000	-7.822527
14.610000	-19.008577
14.620000	-20.778502
14.630000	-42.959727
14.640000	-87.686325
14.650000	-134.877770
14.660000	-165.291019
14.670000	-154.810331
14.680000	-114.687416
14.690000	-52.427160
14.700000	27.229224
14.710000	115.918182
14.720000	209.128571
14.730000	276.832238
14.740000	316.742919
14.750000	328.390092
14.760000	342.080613
14.770000	385.245528
14.780000	466.004077
14.790000	537.589023
14.800000	535.517688
14.810000	446.712501
14.820000	319.839666
14.830000	212.499285
14.840000	138.346364
14.850000	92.206417
14.860000	54.117825
14.870000	1.879420
14.880000	-78.783610
14.890000	-163.034844
14.900000	-221.032677
14.910000	-240.024110
14.920000	-247.420146
14.930000	-258.675313
14.940000	-276.133066
14.950000	-296.338734
14.960000	-314.202988
14.970000	-337.398715
14.980000	-352.910941
14.990000	-361.524794
15.000000	-357.629530
15.010000	-347.712308
15.020000	-335.034137
15.030000	-318.248714
15.040000	-303.153241
15.050000	-285.786526
15.060000	-268.651638
15.070000	-250.676048
15.080000	-235.190315
15.090000	-217.237652
15.100000	-200.113156
15.110000	-176.799084
15.120000	-155.773361
15.130000	-131.349733
15.140000	-112.501935
15.150000	-97.231667
15.160000	-71.893253
15.170000	-47.877079
15.180000	-57.369717
15.190000	-136.561494
15.200000	-257.698538
15.210000	-368.539951
15.220000	-437.779467
15.230000	-465.967154
15.240000	-470.267251
15.250000	-461.738784
15.260000	-452.118058
15.270000	-448.525531
15.280000	-442.955076
15.290000	-433.690604
15.300000	-419.153479
15.310000	-414.261948
15.320000	-421.010633
15.330000	-435.511329
15.340000	-447.878788
15.350000	-454.806196
15.360000	-455.113477
15.370000	-445.789998
15.380000	-433.401700
15.390000	-411.765948
15.400000	-394.437894
15.410000	-377.387286
15.420000	-365.191340
15.430000	-349.332859
15.440000	-330.329722
15.450000	-307.969797
15.460000	-282.161720
15.470000	-257.312288
15.480000	-233.006918
15.490000	-212.357482
15.500000	-186.846435
15.510000	-156.786429
15.520000	-131.068918
15.530000	-115.566392
15.540000	-94.257146
15.550000	-75.438931
15.560000	-94.211334
15.570000	-184.667620
15.580000	-307.656499
15.590000	-412.891106
15.600000	-473.524656
15.610000	-494.226327
15.620000	-491.115998
15.630000	-475.573489
15.640000	-464.079531
15.650000	-455.229594
15.660000	-447.066159
15.670000	-427.883416
15.680000	-405.464017
15.690000	-392.240921
15.700000	-397.544132
15.710000	-409.564346
15.720000	-410.297747
15.730000	-398.624522
15.740000	-376.750734
15.750000	-357.737942
15.760000	-336.844776
15.770000	-317.563783
15.780000	-294.270100
15.790000	-268.431944
15.800000	-238.710399
15.810000	-207.666681
15.820000	-182.853449
15.830000	-161.896369
15.840000	-141.014693
15.850000	-119.823949
15.860000	-100.872394
15.870000	-88.778790
15.880000	-80.731097
15.890000	-73.754429
15.900000	-52.911359
15.910000	-19.127890
15.920000	13.518170
15.930000	46.855082
15.940000	70.894824
15.950000	64.787967
15.960000	-13.139142
15.970000	-145.470113
15.980000	-275.752320
15.990000	-359.447178
16.000000	-397.175629
16.010000	-404.818751
16.020000	-402.295788
16.030000	-397.175324
16.040000	-393.424803
16.050000	-392.543688
16.060000	-381.866637
16.070000	-361.966620
16.080000	-339.677023
16.090000	-330.431009
16.100000	-333.794811
16.110000	-336.878645
16.120000	-328.935749
16.130000	-317.727517
16.140000	-308.419764
16.150000	-302.248936
16.160000	-291.562503
16.170000	-272.129354
16.180000	-253.759870
16.190000	-234.994675
16.200000	-218.651299
16.210000	-194.506282
16.220000	-165.928620
16.230000	-135.697950
16.240000	-109.562226
16.250000	-93.905950
16.260000	-75.489634
16.270000	-57.506568
16.280000	-35.743967
16.290000	-17.820062
16.300000	5.701711
16.310000	34.827261
16.320000	56.431597
16.330000	78.519778
16.340000	108.146248
16.350000	121.114055
16.360000	73.461091
16.370000	-36.855172
16.380000	-159.759344
16.390000	-252.522783
16.400000	-307.086323
16.410000	-320.549001
16.420000	-310.814665
16.430000	-292.577069
16.440000	-278.882260
16.450000	-267.239351
16.460000	-243.594758
16.470000	-214.635031
16.480000	-187.986039
16.490000	-178.392903
16.500000	-180.330722
16.510000	-187.156546
16.520000	-190.011257
16.530000	-186.947543
16.540000	-174.027793
16.550000	-154.098401
16.560000	-131.389117
16.570000	-106.246008
16.580000	-80.093912
16.590000	-57.743179
16.600000	-38.456827
16.610000	-19.909100
16.620000	1.845168
16.630000	26.908465
16.640000	45.447493
16.650000	65.101883
16.660000	81.344506
16.670000	102.325135
16.680000	116.850317
16.690000	134.935473
16.700000	151.644138
16.710000	167.891200
16.720000	193.124286
16.730000	222.470726
16.740000	222.857015
16.750000	150.684952
16.760000	23.087054
16.770000	-107.005087
16.780000	-200.723891
16.790000	-251.452493
16.800000	-263.232664
16.810000	-253.605294
16.820000	-237.402078
16.830000	-229.760110
16.840000	-227.856432
16.850000	-221.562222
16.860000	-207.329312
16.870000	-198.076434
16.880000	-206.468122
16.890000	-233.224221
16.900000	-259.887060
16.910000	-281.073802
16.920000	-293.310204
16.930000	-294.258550
16.940000	-288.751500
16.950000	-276.761485
16.960000	-266.881083
16.970000	-251.885325
16.980000	-236.708149
16.990000	-221.994545
17.000000	-205.189989
17.010000	-190.117909
17.020000	-174.317595
17.030000	-159.582383
17.040000	-142.760774
17.050000	-124.720110
17.060000	-111.546900
17.070000	-99.158245
17.080000	-86.669875
17.090000	-66.238389
17.100000	-43.824945
17.110000	-27.651982
17.120000	-8.592661
17.130000	0.881751
17.140000	-31.741833
17.150000	-134.899451
17.160000	-285.742670
17.170000	-416.883901
17.180000	-515.552150
17.190000	-569.193969
17.200000	-592.093412
17.210000	-592.144271
17.220000	-584.645843
17.230000	-587.425386
17.240000	-592.116572
17.250000	-595.376908
17.260000	-585.219863
17.270000	-582.407706
17.280000	-591.601284
17.290000	-615.421606
17.300000	-633.240568
17.310000	-642.473127
17.320000	-644.879525
17.330000	-643.181363
17.340000	-639.503919
17.350000	-632.533558
17.360000	-625.794663
17.370000	-618.192449
17.380000	-607.401059
17.390000	-597.186752
17.400000	-584.306526
17.410000	-573.520998
17.420000	-561.841638
17.430000	-549.514690
17.440000	-538.698859
17.450000	-524.806332
17.460000	-515.572694
17.470000	-507.048265
17.480000	-499.439946
17.490000	-488.593162
17.500000	-461.263449
17.510000	-431.193004
17.520000	-390.675133
17.530000	-333.109241
17.540000	-250.061403
17.550000	-144.703234
17.560000	30.305841
17.570000	342.447329
17.580000	1022.174443
17.590000	1523.763485
17.600000	1767.140036
17.610000	1902.339646
17.620000	1943.407651
17.630000	1921.700837
17.640000	1862.349198
17.650000	1773.707345
17.660000	1670.332854
17.670000	1579.440691
17.680000	1508.955926
17.690000	1430.433519
17.700000	1339.671930
17.710000	1252.842276
17.720000	1180.064906
17.730000	1117.239174
17.740000	1062.157216
17.750000	1012.329697
17.760000	958.592512
17.770000	898.801065
17.780000	846.766773
17.790000	804.602344
17.800000	756.587660
17.810000	708.826059
17.820000	673.120250
17.830000	648.711537
17.840000	625.657422
17.850000	609.335772
17.860000	615.586879
17.870000	624.893308
17.880000	630.247970
17.890000	616.459162
17.900000	595.681820
17.910000	572.034107
17.920000	536.109870
17.930000	484.657476
17.940000	442.647123
17.950000	408.907570
17.960000	356.144652
17.970000	230.450087
17.980000	51.543418
17.990000	-81.757643
18.000000	-128.183215
18.010000	-111.110113
18.020000	-125.740815
18.030000	-206.930370
18.040000	-368.206551
18.050000	-553.526099
18.060000	-680.566501
18.070000	-673.104811
18.080000	-513.135406
18.090000	-257.354640
18.100000	16.122519
18.110000	222.968609
18.120000	374.342441
18.130000	501.978593
18.140000	621.468470
18.150000	731.644373
18.160000	795.197232
18.170000	822.142299
18.180000	793.883072
18.190000	704.711445
18.200000	556.960304
18.210000	386.074323
18.220000	243.116701
18.230000	136.356071
18.240000	60.940274
18.250000	11.005056
18.260000	10.549355
18.270000	78.009051
18.280000	216.820997
18.290000	401.637879
18.300000	578.050176
18.310000	722.054379
18.320000	812.658582
18.330000	850.233968
18.340000	830.291510
18.350000	780.874231
18.360000	729.628114
18.370000	664.777760
18.380000	578.012544
18.390000	481.442451
18.400000	415.847555
18.410000	390.057982
18.420000	391.997157
18.430000	394.002803
18.440000	371.193242
18.450000	320.379463
18.460000	236.757227
18.470000	137.856545
18.480000	59.410358
18.490000	8.962090
18.500000	-18.264387
18.510000	-53.632691
18.520000	-89.459118
18.530000	-117.519819
18.540000	-128.945836
18.550000	-126.398971
18.560000	-116.069194
18.570000	-109.586608
18.580000	-103.778699
18.590000	-103.088558
18.600000	-106.767265
18.610000	-110.874989
18.620000	-114.390350
18.630000	-102.583530
18.640000	-80.026131
18.650000	-41.892532
18.660000	-1.671740
18.670000	31.517690
18.680000	67.107567
18.690000	103.271034
18.700000	138.929720
18.710000	171.059904
18.720000	208.157794
18.730000	224.462375
18.740000	177.380738
18.750000	67.357561
18.760000	-55.217891
18.770000	-131.348955
18.780000	-162.608149
18.790000	-154.691998
18.800000	-134.348018
18.810000	-112.616952
18.820000	-98.707832
18.830000	-94.814205
18.840000	-87.649954
18.850000	-82.353474
18.860000	-82.211658
18.870000	-94.528366
18.880000	-112.692990
18.890000	-133.336593
18.900000	-150.458110
18.910000	-165.790332
18.920000	-170.819274
18.930000	-166.561018
18.940000	-158.817606
18.950000	-150.948934
18.960000	-145.771630
18.970000	-138.606694
18.980000	-128.024925
18.990000	-113.891598
19.000000	-94.229993
19.010000	-72.815711
19.020000	-55.397132
19.030000	-34.660509
19.040000	-15.220166
19.050000	2.549964
19.060000	23.347778
19.070000	45.787537
19.080000	38.878311
19.090000	-33.277707
19.100000	-152.398260
19.110000	-265.871151
19.120000	-336.339127
19.130000	-360.513802
19.140000	-348.271692
19.150000	-320.475405
19.160000	-291.809299
19.170000	-274.050934
19.180000	-260.919114
19.190000	-240.900461
19.200000	-222.706072
19.210000	-215.706619
19.220000	-230.116724
19.230000	-247.388378
19.240000	-258.173799
19.250000	-256.700997
19.260000	-239.524855
19.270000	-213.663159
19.280000	-183.489334
19.290000	-153.579778
19.300000	-122.390784
19.310000	-95.803781
19.320000	-70.219726
19.330000	-41.312528
19.340000	-8.010891
19.350000	24.541831
19.360000	49.908023
19.370000	79.492290
19.380000	109.164825
19.390000	139.837273
19.400000	175.143238
19.410000	224.913538
19.420000	264.407749
19.430000	239.958191
19.440000	151.868456
19.450000	38.823005
19.460000	-42.907672
19.470000	-83.391137
19.480000	-80.657238
19.490000	-51.608567
19.500000	-13.358718
19.510000	16.554956
19.520000	41.713373
19.530000	73.789725
19.540000	102.440798
19.550000	118.744318
19.560000	106.865276
19.570000	87.849696
19.580000	70.305196
19.590000	59.662737
19.600000	52.771380
19.610000	53.879384
19.620000	63.945260
19.630000	78.130285
19.640000	91.502508
19.650000	102.106432
19.660000	114.461389
19.670000	129.122319
19.680000	147.139035
19.690000	163.840008
19.700000	177.876767
19.710000	196.632748
19.720000	210.619335
19.730000	226.855442
19.740000	253.416191
19.750000	278.742368
19.760000	255.499717
19.770000	156.402722
19.780000	20.483851
19.790000	-103.859309
19.800000	-185.193283
19.810000	-222.820337
19.820000	-219.160128
19.830000	-203.803708
19.840000	-190.698287
19.850000	-190.726176
19.860000	-189.113392
19.870000	-180.956396
19.880000	-177.185856
19.890000	-184.789550
19.900000	-214.549064
19.910000	-243.476836
19.920000	-262.229853
19.930000	-266.792080
19.940000	-259.207167
19.950000	-248.071758
19.960000	-233.440672
19.970000	-216.634447
19.980000	-199.956293
19.990000	-180.462019
20.000000	-158.760849
20.010000	-127.212653
20.020000	-97.229995
20.030000	-71.885852
20.040000	-52.974307
20.050000	-36.154084
20.060000	-7.637765
20.070000	19.559104
20.080000	39.774136
20.090000	61.700343
20.100000	78.532220
20.110000	46.127913
20.120000	-65.615466
20.130000	-223.882576
20.140000	-356.265150
20.150000	-439.973295
20.160000	-482.274543
20.170000	-494.017541
20.180000	-493.247259
20.190000	-490.651668
20.200000	-498.166686
20.210000	-502.158709
20.220000	-494.377228
20.230000	-482.318514
20.240000	-483.223899
20.250000	-503.390804
20.260000	-528.957588
20.270000	-550.751532
20.280000	-561.973191
20.290000	-558.728803
20.300000	-544.283515
20.310000	-528.666203
20.320000	-512.843658
20.330000	-500.552404
20.340000	-481.974249
20.350000	-468.103259
20.360000	-449.322196
20.370000	-431.303214
20.380000	-406.574288
20.390000	-390.171703
20.400000	-379.384145
20.410000	-366.967383
20.420000	-341.120923
20.430000	-284.353324
20.440000	-199.185013
20.450000	-92.356324
20.460000	52.208309
20.470000	235.661316
20.480000	430.250754
20.490000	556.933476
20.500000	612.563933
20.510000	645.743582
20.520000	707.279196
20.530000	786.781843
20.540000	859.016786
20.550000	885.513715
20.560000	879.961121
20.570000	823.887598
20.580000	756.795208
20.590000	671.530704
20.600000	607.153756
20.610000	533.046803
20.620000	462.029470
20.630000	336.433990
20.640000	185.876424
20.650000	-18.942311
20.660000	-225.319588
20.670000	-437.743732
20.680000	-557.834288
20.690000	-555.343293
20.700000	685.363356
20.710000	1037.882581
20.720000	1232.970257
20.730000	1310.844760
20.740000	1360.566095
20.750000	1337.000967
20.760000	1274.446718
20.770000	1109.622583
20.780000	933.484495
20.790000	758.428733
20.800000	621.657476
20.810000	496.459844
20.820000	410.380064
20.830000	344.430497
20.840000	300.560922
20.850000	244.368816
20.860000	192.950815
20.870000	143.653890
20.880000	120.481663
20.890000	105.892672
20.900000	91.438707
20.910000	61.513085
20.920000	38.568314
20.930000	29.492184
20.940000	37.422461
20.950000	35.457018
20.960000	27.763590
20.970000	16.150422
20.980000	31.252346
20.990000	68.816526
21.000000	133.835085
21.010000	198.795346
21.020000	257.545220
21.030000	305.179721
21.040000	343.007952
21.050000	371.965330
21.060000	393.206944
21.070000	417.847344
21.080000	439.426776
21.090000	457.147408
21.100000	482.081763
21.110000	504.459495
21.120000	475.699471
21.130000	370.237496
21.140000	213.192455
21.150000	69.861961
21.160000	-25.329876
21.170000	-73.876039
21.180000	-75.110057
21.190000	-54.950804
21.200000	-21.772427
21.210000	1.337011
21.220000	20.047217
21.230000	46.712918
21.240000	77.893244
21.250000	99.796866
21.260000	88.782056
21.270000	59.054641
21.280000	21.063792
21.290000	-5.258261
21.300000	-13.621963
21.310000	-6.525287
21.320000	14.097208
21.330000	37.587140
21.340000	70.266463
21.350000	106.069022
21.360000	146.192518
21.370000	194.963045
21.380000	247.162604
21.390000	298.262572
21.400000	327.157470
21.410000	349.399786
21.420000	384.567087
21.430000	427.205303
21.440000	471.713377
21.450000	520.436410
21.460000	566.237407
21.470000	558.618886
21.480000	464.880792
21.490000	328.079917
21.500000	220.006919
21.510000	161.805667
21.520000	121.724921
21.530000	94.340881
21.540000	91.226759
21.550000	112.916256
21.560000	148.099881
21.570000	191.913140
21.580000	245.727264
21.590000	281.232297
21.600000	287.807016
21.610000	263.646111
21.620000	236.371360
21.630000	213.408209
21.640000	204.011133
21.650000	204.538612
21.660000	211.388054
21.670000	234.443077
21.680000	261.775403
21.690000	288.771281
21.700000	289.173600
21.710000	272.601624
21.720000	244.965184
21.730000	252.947502
21.740000	313.077466
21.750000	396.238166
21.760000	478.607747
21.770000	540.610579
21.780000	577.248115
21.790000	537.927775
21.800000	434.463186
21.810000	322.100850
21.820000	228.672832
21.830000	136.886471
21.840000	38.309912
21.850000	-24.785607
21.860000	-25.358520
21.870000	26.844199
21.880000	108.003936
21.890000	194.209899
21.900000	274.805551
21.910000	357.027439
21.920000	451.686287
21.930000	534.818713
21.940000	586.981951
21.950000	609.068285
21.960000	639.449599
21.970000	701.679461
21.980000	784.891605
21.990000	862.984271
22.000000	907.729832
22.010000	921.441602
22.020000	912.987938
22.030000	900.994170
22.040000	892.616209
22.050000	894.613873
22.060000	904.286601
22.070000	911.949037
22.080000	915.378673
22.090000	904.998385
22.100000	867.528151
22.110000	810.505672
22.120000	766.480269
22.130000	753.707487
22.140000	752.729095
22.150000	728.934477
22.160000	679.130832
22.170000	593.543164
22.180000	467.613159
22.190000	302.232900
22.200000	130.583393
22.210000	35.792182
22.220000	24.743057
22.230000	62.969871
22.240000	42.766678
22.250000	-31.479647
22.260000	-70.244470
22.270000	-24.642921
22.280000	33.142864
22.290000	6.189993
22.300000	-40.628138
22.310000	-36.229624
22.320000	22.811929
22.330000	34.457786
22.340000	-12.435187
22.350000	-44.559885
22.360000	-17.699425
22.370000	34.604791
22.380000	53.696410
22.390000	40.996667
22.400000	41.607549
22.410000	73.709737
22.420000	117.810155
22.430000	145.793872
22.440000	141.774229
22.450000	125.035626
22.460000	120.815475
22.470000	140.633659
22.480000	162.491750
22.490000	186.686484
22.500000	225.260307
22.510000	246.010941
22.520000	187.006828
22.530000	60.933084
22.540000	-70.051562
22.550000	-151.440123
22.560000	-194.231075
22.570000	-202.067876
22.580000	-175.677531
22.590000	-130.009851
22.600000	-82.071665
22.610000	-35.189818
22.620000	11.603563
22.630000	46.987160
22.640000	66.354397
22.650000	65.221437
22.660000	58.548730
22.670000	55.162091
22.680000	63.130674
22.690000	85.812626
22.700000	128.440384
22.710000	179.472838
22.720000	230.146600
22.730000	275.532252
22.740000	317.259295
22.750000	349.960708
22.760000	367.424385
22.770000	387.175531
22.780000	420.626978
22.790000	474.431355
22.800000	519.117546
22.810000	545.128846
22.820000	574.414727
22.830000	609.158568
22.840000	605.304531
22.850000	514.562716
22.860000	367.797558
22.870000	229.778898
22.880000	140.608164
22.890000	105.952258
22.900000	111.749424
22.910000	138.495261
22.920000	172.290420
22.930000	200.759874
22.940000	239.960011
22.950000	285.351506
22.960000	324.992604
22.970000	347.661527
22.980000	351.433552
22.990000	357.417373
23.000000	362.523674
23.010000	360.212445
23.020000	357.700016
23.030000	356.373010
23.040000	351.240075
23.050000	328.891415
23.060000	291.202805
23.070000	244.803286
23.080000	210.250591
23.090000	194.390683
23.100000	194.317830
23.110000	206.689501
23.120000	204.365376
23.130000	186.773341
23.140000	172.844920
23.150000	154.828702
23.160000	85.928410
23.170000	-72.048076
23.180000	-259.676050
23.190000	-406.517626
23.200000	-482.013351
23.210000	-504.745749
23.220000	-488.962633
23.230000	-454.613704
23.240000	-418.193547
23.250000	-385.744350
23.260000	-349.344448
23.270000	-311.863248
23.280000	-283.808546
23.290000	-231.152311
23.300000	-180.064067
23.310000	-123.309311
23.320000	-99.070944
23.330000	-74.230687
23.340000	-52.472706
23.350000	-46.805069
23.360000	-31.729700
23.370000	-34.151297
23.380000	-95.989443
23.390000	-249.098317
23.400000	-421.927206
23.410000	-549.024374
23.420000	-612.625155
23.430000	-642.042531
23.440000	-640.882211
23.450000	-622.049523
23.460000	-591.751071
23.470000	-556.354066
23.480000	-516.234153
23.490000	-467.945690
23.500000	-431.746811
23.510000	-418.141887
23.520000	-424.187452
23.530000	-431.928658
23.540000	-430.947480
23.550000	-422.379397
23.560000	-414.359178
23.570000	-398.082933
23.580000	-384.457875
23.590000	-376.397578
23.600000	-375.519610
23.610000	-372.315127
23.620000	-357.214839
23.630000	-335.574188
23.640000	-312.877800
23.650000	-298.143854
23.660000	-286.136031
23.670000	-274.355646
23.680000	-274.066853
23.690000	-278.151922
23.700000	-272.613932
23.710000	-286.033804
23.720000	-371.530579
23.730000	-534.085820
23.740000	-700.200861
23.750000	-817.498537
23.760000	-876.959751
23.770000	-895.284912
23.780000	-888.352893
23.790000	-876.386547
23.800000	-877.042462
23.810000	-878.711417
23.820000	-867.696716
23.830000	-859.754396
23.840000	-868.649508
23.850000	-898.408086
23.860000	-927.503024
23.870000	-942.053793
23.880000	-951.391410
23.890000	-938.932874
23.900000	-909.977871
23.910000	-852.402157
23.920000	-777.600402
23.930000	-701.856415
23.940000	-634.508804
23.950000	-578.264137
23.960000	-512.992892
23.970000	-446.386733
23.980000	-385.446929
23.990000	-339.487576
24.000000	-301.828980
24.010000	-262.217255
24.020000	-226.226530
24.030000	-201.257349
24.040000	-172.201028
24.050000	-134.298009
24.060000	-131.615140
24.070000	-198.617841
24.080000	-312.845143
24.090000	-402.106696
24.100000	-445.187459
24.110000	-447.307157
24.120000	-419.852408
24.130000	-373.812246
24.140000	-328.512662
24.150000	-299.613022
24.160000	-273.732262
24.170000	-245.408003
24.180000	-226.638955
24.190000	-144.548170
