Time(s)	RED_denoised_wiener
0.000000	119.892195
0.010000	184.877667
0.020000	193.702927
0.030000	206.778144
0.040000	223.178528
0.050000	242.937623
0.060000	257.887609
0.070000	270.381639
0.080000	287.197451
0.090000	307.392692
0.100000	332.435114
0.110000	343.936706
0.120000	354.678844
0.130000	361.690871
0.140000	373.206383
0.150000	388.673561
0.160000	403.976407
0.170000	423.598427
0.180000	430.271523
0.190000	411.454053
0.200000	363.174230
0.210000	298.607099
0.220000	234.670478
0.230000	181.992397
0.240000	143.060159
0.250000	121.964155
0.260000	103.645566
0.270000	86.220013
0.280000	66.474833
0.290000	61.445251
0.300000	61.143240
0.310000	54.580697
0.320000	41.754364
0.330000	23.296694
0.340000	5.626444
0.350000	-14.435683
0.360000	-32.235717
0.370000	-42.923686
0.380000	-50.879802
0.390000	-52.480020
0.400000	-48.961294
0.410000	-41.794795
0.420000	-29.459441
0.430000	-19.559915
0.440000	-10.023362
0.450000	-7.441595
0.460000	-11.661927
0.470000	-33.112578
0.480000	-60.334359
0.490000	-90.234262
0.500000	-108.738093
0.510000	-123.176605
0.520000	-140.569914
0.530000	-159.859437
0.540000	-180.833811
0.550000	-188.264510
0.560000	-183.239746
0.570000	-179.468537
0.580000	-205.785247
0.590000	-267.038440
0.600000	-340.019171
0.610000	-402.376583
0.620000	-461.099958
0.630000	-517.799955
0.640000	-565.591136
0.650000	-596.989129
0.660000	-620.226646
0.670000	-636.594113
0.680000	-640.277898
0.690000	-631.985970
0.700000	-629.144397
0.710000	-642.796657
0.720000	-658.711533
0.730000	-670.399020
0.740000	-676.396576
0.750000	-688.475511
0.760000	-698.799225
0.770000	-709.350774
0.780000	-722.307878
0.790000	-741.335924
0.800000	-753.543854
0.810000	-755.787631
0.820000	-762.267572
0.830000	-770.634301
0.840000	-781.774237
0.850000	-788.232426
0.860000	-796.761255
0.870000	-807.587586
0.880000	-811.831843
0.890000	-809.743353
0.900000	-789.645488
0.910000	-759.729777
0.920000	-732.915141
0.930000	-726.170613
0.940000	-741.253229
0.950000	-756.658029
0.960000	-768.416871
0.970000	-784.957124
0.980000	-823.382218
0.990000	-880.979907
1.000000	-952.786391
1.010000	-1036.789367
1.020000	-1131.303588
1.030000	-1221.007045
1.040000	-1300.961854
1.050000	-1372.354293
1.060000	-1431.051787
1.070000	-1475.488385
1.080000	-1500.244441
1.090000	-1522.798845
1.100000	-1555.202488
1.110000	-1596.186504
1.120000	-1639.594366
1.130000	-1678.352365
1.140000	-1718.803938
1.150000	-1761.951174
1.160000	-1806.120546
1.170000	-1851.001535
1.180000	-1890.870172
1.190000	-1917.827208
1.200000	-1938.440877
1.210000	-1955.757927
1.220000	-1965.773631
1.230000	-1970.820824
1.240000	-1973.889635
1.250000	-1989.028869
1.260000	-2006.388089
1.270000	-2010.670013
1.280000	-2000.038199
1.290000	-1982.786948
1.300000	-1979.503305
1.310000	-1992.969466
1.320000	-2012.378815
1.330000	-2029.941227
1.340000	-2046.391915
1.350000	-2058.349059
1.360000	-2064.190419
1.370000	-2072.231267
1.380000	-2100.796664
1.390000	-2154.522614
1.400000	-2216.791077
1.410000	-2285.299617
1.420000	-2356.895940
1.430000	-2424.177496
1.440000	-2471.757843
1.450000	-2494.528980
1.460000	-2511.798569
1.470000	-2531.293459
1.480000	-2554.600259
1.490000	-2569.798344
1.500000	-2578.549752
1.510000	-2585.755602
1.520000	-2602.960597
1.530000	-2627.449744
1.540000	-2654.809089
1.550000	-2678.245912
1.560000	-2691.767901
1.570000	-2697.171141
1.580000	-2698.841026
1.590000	-2701.871698
1.600000	-2711.353684
1.610000	-2717.303208
1.620000	-2718.662678
1.630000	-2713.169341
1.640000	-2701.416881
1.650000	-2692.829837
1.660000	-2691.927113
1.670000	-2704.596308
1.680000	-2716.149075
1.690000	-2722.158550
1.700000	-2716.466532
1.710000	-2707.861407
1.720000	-2698.865635
1.730000	-2689.321702
1.740000	-2676.688919
1.750000	-2664.227900
1.760000	-2648.589914
1.770000	-2640.267189
1.780000	-2641.228432
1.790000	-2671.783630
1.800000	-2739.925726
1.810000	-2828.990766
1.820000	-2920.375236
1.830000	-2986.596835
1.840000	-3026.653220
1.850000	-3048.983655
1.860000	-3059.010125
1.870000	-3061.120547
1.880000	-3054.772084
1.890000	-3042.683994
1.900000	-3030.291411
1.910000	-3021.993466
1.920000	-3026.236332
1.930000	-3036.007212
1.940000	-3051.947916
1.950000	-3067.746383
1.960000	-3092.779313
1.970000	-3116.840673
1.980000	-3131.356257
1.990000	-3131.351389
2.000000	-3122.033163
2.010000	-3113.613284
2.020000	-3106.084854
2.030000	-3097.605052
2.040000	-3093.890934
2.050000	-3104.004994
2.060000	-3121.050840
2.070000	-3136.129079
2.080000	-3137.263910
2.090000	-3132.368016
2.100000	-3120.511514
2.110000	-3100.998327
2.120000	-3079.833479
2.130000	-3065.356206
2.140000	-3068.883296
2.150000	-3082.713358
2.160000	-3098.314150
2.170000	-3108.790117
2.180000	-3113.141416
2.190000	-3125.286490
2.200000	-3157.340773
2.210000	-3218.149306
2.220000	-3292.514551
2.230000	-3364.716151
2.240000	-3412.039572
2.250000	-3434.380520
2.260000	-3445.302504
2.270000	-3460.081558
2.280000	-3477.550479
2.290000	-3483.441704
2.300000	-3480.872821
2.310000	-3472.826271
2.320000	-3475.253729
2.330000	-3489.190947
2.340000	-3512.979758
2.350000	-3535.212786
2.360000	-3549.067050
2.370000	-3557.608502
2.380000	-3571.854252
2.390000	-3588.975594
2.400000	-3605.981725
2.410000	-3609.653263
2.420000	-3610.511007
2.430000	-3613.650547
2.440000	-3617.688228
2.450000	-3622.982885
2.460000	-3619.498344
2.470000	-3620.705719
2.480000	-3620.578638
2.490000	-3625.784923
2.500000	-3632.282106
2.510000	-3639.858303
2.520000	-3645.626255
2.530000	-3646.911314
2.540000	-3650.974402
2.550000	-3660.258775
2.560000	-3672.615234
2.570000	-3677.887135
2.580000	-3683.605110
2.590000	-3692.801152
2.600000	-3712.568344
2.610000	-3751.010986
2.620000	-3817.826472
2.630000	-3954.930620
2.640000	-4104.763457
2.650000	-4198.769535
2.660000	-4203.075901
2.670000	-4169.454574
2.680000	-4148.994692
2.690000	-3996.539471
2.700000	-3765.728973
2.710000	-3588.439317
2.720000	-3529.877439
2.730000	-3483.461838
2.740000	-3297.159423
2.750000	-3070.430621
2.760000	-2879.964857
2.770000	-2731.454183
2.780000	-2537.427959
2.790000	-2159.247839
2.800000	-1554.768643
2.810000	-656.517815
2.820000	508.508813
2.830000	1771.019143
2.840000	3093.542195
2.850000	4470.011924
2.860000	5797.998443
2.870000	6994.795503
2.880000	7964.371367
2.890000	8496.311701
2.900000	8498.261723
2.910000	7965.994487
2.920000	7013.243079
2.930000	6242.281609
2.940000	5570.487682
2.950000	4889.965776
2.960000	4085.578716
2.970000	3420.737923
2.980000	2975.521242
2.990000	2762.969459
3.000000	2670.215059
3.010000	2664.571152
3.020000	2721.082448
3.030000	2810.315264
3.040000	2884.723845
3.050000	2962.733343
3.060000	3046.816533
3.070000	3164.718253
3.080000	3293.603347
3.090000	3446.971618
3.100000	3576.725229
3.110000	3686.206087
3.120000	3752.951606
3.130000	3819.128962
3.140000	3839.450849
3.150000	3859.483252
3.160000	3850.931229
3.170000	3883.626489
3.180000	3889.888767
3.190000	3915.270959
3.200000	3895.737568
3.210000	3926.881452
3.220000	3922.282695
3.230000	3959.808030
3.240000	3930.514858
3.250000	3963.256425
3.260000	3947.292868
3.270000	4024.604700
3.280000	4055.504851
3.290000	4284.216816
3.300000	4582.571882
3.310000	5168.021832
3.320000	6591.650455
3.330000	8376.615335
3.340000	11302.653844
3.350000	14648.268393
3.360000	17954.703632
3.370000	19380.460967
3.380000	20056.277889
3.390000	19646.698445
3.400000	9927.988359
3.410000	9377.126669
3.420000	8903.235953
3.430000	8704.170702
3.440000	8293.337486
3.450000	8106.980431
3.460000	7758.076276
3.470000	7593.037004
3.480000	7291.884453
3.490000	7137.984269
3.500000	6871.768825
3.510000	6720.837439
3.520000	6473.682103
3.530000	6323.370459
3.540000	6110.195441
3.550000	5984.323844
3.560000	5807.820344
3.570000	5695.207028
3.580000	5549.099811
3.590000	5471.875589
3.600000	5371.415237
3.610000	5307.865921
3.620000	5204.257654
3.630000	5131.165091
3.640000	5029.982163
3.650000	4938.632887
3.660000	4815.057061
3.670000	4711.596575
3.680000	4610.175000
3.690000	4546.611221
3.700000	4481.656139
3.710000	4427.670082
3.720000	4355.258118
3.730000	4284.433200
3.740000	4213.368336
3.750000	4157.478208
3.760000	4102.631553
3.770000	4039.436638
3.780000	3938.740464
3.790000	3809.733222
3.800000	3650.384243
3.810000	3488.343166
3.820000	3323.516463
3.830000	3188.607272
3.840000	3077.772984
3.850000	2996.799552
3.860000	2919.169731
3.870000	2848.302363
3.880000	2777.098574
3.890000	2714.743540
3.900000	2643.178870
3.910000	2564.131293
3.920000	2473.802163
3.930000	2390.470444
3.940000	2309.920339
3.950000	2232.711937
3.960000	2154.246110
3.970000	2078.197112
3.980000	1997.428997
3.990000	1904.901858
4.000000	1809.540861
4.010000	1726.173752
4.020000	1666.527606
4.030000	1621.938824
4.040000	1589.411543
4.050000	1562.241098
4.060000	1536.516294
4.070000	1503.408752
4.080000	1459.848146
4.090000	1408.469084
4.100000	1350.719462
4.110000	1305.452319
4.120000	1283.776971
4.130000	1286.279800
4.140000	1296.326011
4.150000	1292.632351
4.160000	1278.479350
4.170000	1258.190254
4.180000	1241.849986
4.190000	1226.579663
4.200000	1199.726520
4.210000	1156.522429
4.220000	1088.122509
4.230000	999.031456
4.240000	899.395858
4.250000	803.078149
4.260000	723.527790
4.270000	662.952600
4.280000	615.160865
4.290000	570.340227
4.300000	524.665742
4.310000	484.944647
4.320000	456.018373
4.330000	426.021894
4.340000	388.236073
4.350000	334.611978
4.360000	284.377398
4.370000	237.998120
4.380000	193.358101
4.390000	141.878525
4.400000	81.534361
4.410000	30.323690
4.420000	-6.148109
4.430000	-18.379596
4.440000	-24.399807
4.450000	-27.202993
4.460000	-32.822382
4.470000	-37.830730
4.480000	-43.756686
4.490000	-49.951730
4.500000	-53.518514
4.510000	-57.256536
4.520000	-60.774196
4.530000	-66.740157
4.540000	-79.539459
4.550000	-91.697195
4.560000	-100.157306
4.570000	-98.152276
4.580000	-99.006362
4.590000	-97.734215
4.600000	-95.717843
4.610000	-83.799931
4.620000	-73.332830
4.630000	-84.070350
4.640000	-123.764268
4.650000	-191.835086
4.660000	-274.343996
4.670000	-366.143401
4.680000	-458.099993
4.690000	-540.973084
4.700000	-600.030348
4.710000	-641.049649
4.720000	-654.109237
4.730000	-659.735933
4.740000	-656.321183
4.750000	-652.311448
4.760000	-651.048481
4.770000	-654.413409
4.780000	-667.984137
4.790000	-680.334615
4.800000	-685.468394
4.810000	-688.487730
4.820000	-692.817200
4.830000	-697.833277
4.840000	-698.023853
4.850000	-687.717379
4.860000	-669.125531
4.870000	-644.810193
4.880000	-618.773287
4.890000	-599.124112
4.900000	-590.956951
4.910000	-591.294411
4.920000	-587.995017
4.930000	-572.020492
4.940000	-545.278088
4.950000	-510.297571
4.960000	-470.112840
4.970000	-431.803730
4.980000	-403.502788
4.990000	-379.491817
5.000000	-353.111116
5.010000	-324.420321
5.020000	-302.634209
5.030000	-284.204378
5.040000	-258.696652
5.050000	-236.939417
5.060000	-236.003140
5.070000	-267.219910
5.080000	-321.148099
5.090000	-382.046274
5.100000	-439.872866
5.110000	-481.094842
5.120000	-503.862488
5.130000	-505.040283
5.140000	-492.784496
5.150000	-475.889812
5.160000	-454.586276
5.170000	-431.316339
5.180000	-413.974907
5.190000	-408.978300
5.200000	-416.252826
5.210000	-422.512030
5.220000	-429.480977
5.230000	-434.610632
5.240000	-442.974281
5.250000	-458.618235
5.260000	-477.023481
5.270000	-492.870657
5.280000	-493.634168
5.290000	-484.086127
5.300000	-466.822005
5.310000	-451.237656
5.320000	-441.580663
5.330000	-442.977473
5.340000	-445.217317
5.350000	-443.987852
5.360000	-439.120617
5.370000	-433.596380
5.380000	-428.275159
5.390000	-418.113324
5.400000	-414.734335
5.410000	-416.520314
5.420000	-416.439277
5.430000	-408.859339
5.440000	-390.078593
5.450000	-368.829135
5.460000	-354.650960
5.470000	-361.409184
5.480000	-403.824926
5.490000	-465.838144
5.500000	-533.940221
5.510000	-586.179100
5.520000	-617.036704
5.530000	-637.502306
5.540000	-651.050314
5.550000	-670.456345
5.560000	-681.930428
5.570000	-677.032057
5.580000	-659.117431
5.590000	-635.226543
5.600000	-620.268870
5.610000	-611.315686
5.620000	-607.704341
5.630000	-605.006448
5.640000	-597.749722
5.650000	-588.332417
5.660000	-575.733445
5.670000	-567.965069
5.680000	-565.646201
5.690000	-561.860494
5.700000	-547.503879
5.710000	-521.396071
5.720000	-497.355260
5.730000	-480.862042
5.740000	-463.121507
5.750000	-440.964983
5.760000	-418.195863
5.770000	-392.674667
5.780000	-366.572558
5.790000	-329.641507
5.800000	-298.648816
5.810000	-271.516043
5.820000	-251.700497
5.830000	-236.668435
5.840000	-211.346134
5.850000	-189.195019
5.860000	-166.240454
5.870000	-162.752183
5.880000	-177.039198
5.890000	-207.608716
5.900000	-248.458463
5.910000	-283.738521
5.920000	-320.240980
5.930000	-342.776427
5.940000	-353.039087
5.950000	-348.439192
5.960000	-340.513357
5.970000	-339.402892
5.980000	-334.903915
5.990000	-328.036986
6.000000	-319.935077
6.010000	-316.993223
6.020000	-325.607993
6.030000	-343.902543
6.040000	-365.912878
6.050000	-388.797687
6.060000	-400.838011
6.070000	-405.713805
6.080000	-398.719506
6.090000	-397.337635
6.100000	-399.193941
6.110000	-404.282821
6.120000	-405.297207
6.130000	-402.230978
6.140000	-404.743973
6.150000	-400.770445
6.160000	-396.893632
6.170000	-381.579179
6.180000	-367.763553
6.190000	-360.687178
6.200000	-355.593769
6.210000	-348.118017
6.220000	-330.069256
6.230000	-311.588994
6.240000	-297.854905
6.250000	-291.042860
6.260000	-282.268646
6.270000	-265.162772
6.280000	-242.366943
6.290000	-232.654126
6.300000	-236.074949
6.310000	-251.804870
6.320000	-275.769818
6.330000	-312.977002
6.340000	-362.445343
6.350000	-410.445210
6.360000	-442.784675
6.370000	-457.278791
6.380000	-465.829072
6.390000	-472.090076
6.400000	-477.869395
6.410000	-477.549271
6.420000	-478.614647
6.430000	-485.670131
6.440000	-503.363558
6.450000	-521.420842
6.460000	-537.806556
6.470000	-547.167855
6.480000	-553.614911
6.490000	-557.912328
6.500000	-556.752676
6.510000	-557.694514
6.520000	-560.210038
6.530000	-568.164507
6.540000	-574.981728
6.550000	-576.317565
6.560000	-574.449128
6.570000	-576.495366
6.580000	-582.576001
6.590000	-591.348428
6.600000	-596.034463
6.610000	-598.572522
6.620000	-613.876225
6.630000	-640.098810
6.640000	-660.358815
6.650000	-662.654514
6.660000	-644.216663
6.670000	-620.945279
6.680000	-598.731351
6.690000	-584.924922
6.700000	-590.942617
6.710000	-611.544761
6.720000	-658.553886
6.730000	-724.130933
6.740000	-796.174305
6.750000	-856.722385
6.760000	-905.197694
6.770000	-941.002848
6.780000	-962.240415
6.790000	-965.302012
6.800000	-962.016094
6.810000	-965.963703
6.820000	-971.430304
6.830000	-975.324601
6.840000	-974.202682
6.850000	-979.084824
6.860000	-991.308521
6.870000	-1005.186259
6.880000	-1015.443109
6.890000	-1016.982906
6.900000	-1014.633441
6.910000	-1011.470320
6.920000	-1008.514127
6.930000	-1012.001804
6.940000	-1014.052854
6.950000	-1012.579749
6.960000	-997.935095
6.970000	-973.224051
6.980000	-949.537650
6.990000	-931.883734
7.000000	-923.835388
7.010000	-916.876366
7.020000	-906.176427
7.030000	-890.579285
7.040000	-866.544794
7.050000	-843.351626
7.060000	-829.612548
7.070000	-823.463404
7.080000	-816.363835
7.090000	-796.936244
7.100000	-778.218014
7.110000	-780.130803
7.120000	-808.402991
7.130000	-863.012981
7.140000	-926.911573
7.150000	-985.271924
7.160000	-1031.814576
7.170000	-1054.553082
7.180000	-1064.151283
7.190000	-1057.501506
7.200000	-1043.225555
7.210000	-1025.142340
7.220000	-1001.991724
7.230000	-983.185237
7.240000	-968.103327
7.250000	-960.279418
7.260000	-956.235770
7.270000	-959.767219
7.280000	-977.082028
7.290000	-1004.267944
7.300000	-1030.951458
7.310000	-1043.467402
7.320000	-1037.888924
7.330000	-1015.054751
7.340000	-981.216229
7.350000	-937.670294
7.360000	-892.938672
7.370000	-852.319095
7.380000	-816.691239
7.390000	-780.659728
7.400000	-742.830664
7.410000	-717.419230
7.420000	-690.602537
7.430000	-667.607298
7.440000	-637.706954
7.450000	-609.558409
7.460000	-584.501186
7.470000	-559.875218
7.480000	-542.030281
7.490000	-527.542062
7.500000	-533.325545
7.510000	-563.885213
7.520000	-614.639667
7.530000	-672.248203
7.540000	-730.350270
7.550000	-779.981425
7.560000	-812.104795
7.570000	-827.452332
7.580000	-838.602774
7.590000	-848.608045
7.600000	-851.787793
7.610000	-844.814624
7.620000	-837.720615
7.630000	-836.053366
7.640000	-842.690614
7.650000	-852.648383
7.660000	-859.033257
7.670000	-860.971169
7.680000	-859.425526
7.690000	-856.675486
7.700000	-852.522237
7.710000	-843.080920
7.720000	-829.677824
7.730000	-811.525093
7.740000	-797.571342
7.750000	-790.329418
7.760000	-783.150827
7.770000	-773.188608
7.780000	-763.123209
7.790000	-754.422135
7.800000	-741.119456
7.810000	-724.051904
7.820000	-709.508174
7.830000	-697.709103
7.840000	-692.952113
7.850000	-696.401648
7.860000	-705.095254
7.870000	-709.453136
7.880000	-707.636687
7.890000	-715.597089
7.900000	-734.848642
7.910000	-768.789622
7.920000	-808.068879
7.930000	-852.049277
7.940000	-887.297041
7.950000	-910.713603
7.960000	-918.232035
7.970000	-919.458177
7.980000	-919.196399
7.990000	-916.897125
8.000000	-911.869305
8.010000	-903.043813
8.020000	-898.609591
8.030000	-896.203303
8.040000	-895.396805
8.050000	-892.729233
8.060000	-892.580141
8.070000	-887.931593
8.080000	-880.829244
8.090000	-867.157704
8.100000	-854.818487
8.110000	-840.727233
8.120000	-824.856168
8.130000	-804.997263
8.140000	-784.615694
8.150000	-760.287736
8.160000	-733.093383
8.170000	-705.621239
8.180000	-679.607372
8.190000	-654.653938
8.200000	-626.147920
8.210000	-596.075973
8.220000	-562.381642
8.230000	-534.901353
8.240000	-508.945877
8.250000	-486.782640
8.260000	-457.176215
8.270000	-429.088978
8.280000	-408.099886
8.290000	-410.460300
8.300000	-432.671360
8.310000	-469.862946
8.320000	-505.244891
8.330000	-530.991378
8.340000	-543.196719
8.350000	-540.828262
8.360000	-534.213335
8.370000	-525.342191
8.380000	-518.602835
8.390000	-502.177590
8.400000	-483.410624
8.410000	-462.358310
8.420000	-454.626130
8.430000	-451.169341
8.440000	-446.214972
8.450000	-437.353624
8.460000	-424.172975
8.470000	-412.251029
8.480000	-393.122064
8.490000	-373.552916
8.500000	-347.732236
8.510000	-324.590573
8.520000	-299.667221
8.530000	-273.336078
8.540000	-244.960309
8.550000	-214.777839
8.560000	-190.634452
8.570000	-161.527629
8.580000	-134.383937
8.590000	-104.604831
8.600000	-85.875674
8.610000	-66.637698
8.620000	-45.419751
8.630000	-18.020665
8.640000	11.990936
8.650000	42.911296
8.660000	80.732937
8.670000	112.100662
8.680000	141.167271
8.690000	154.218903
8.700000	157.635108
8.710000	147.621215
8.720000	128.771701
8.730000	112.020351
8.740000	100.533403
8.750000	100.073424
8.760000	109.255978
8.770000	118.752207
8.780000	127.983811
8.790000	140.423703
8.800000	161.699507
8.810000	181.032441
8.820000	193.747963
8.830000	198.299455
8.840000	203.809097
8.850000	212.197084
8.860000	222.178844
8.870000	237.760345
8.880000	252.170443
8.890000	269.003878
8.900000	287.134559
8.910000	308.909446
8.920000	330.735199
8.930000	354.483206
8.940000	376.306992
8.950000	400.065325
8.960000	421.844971
8.970000	440.309054
8.980000	459.719861
8.990000	474.848576
9.000000	495.290989
9.010000	513.329725
9.020000	534.554832
9.030000	557.782083
9.040000	577.129236
9.050000	596.919580
9.060000	617.683972
9.070000	641.719648
9.080000	656.188491
9.090000	649.514833
9.100000	626.730566
9.110000	595.643205
9.120000	563.597217
9.130000	532.750126
9.140000	507.797243
9.150000	494.520041
9.160000	486.290133
9.170000	484.305334
9.180000	481.755173
9.190000	490.803814
9.200000	497.810668
9.210000	503.336217
9.220000	503.181594
9.230000	500.551038
9.240000	499.216410
9.250000	495.073465
9.260000	496.949553
9.270000	502.561756
9.280000	508.676699
9.290000	515.055114
9.300000	521.066506
9.310000	526.547045
9.320000	529.782901
9.330000	535.387417
9.340000	546.158921
9.350000	554.196557
9.360000	559.555152
9.370000	566.348742
9.380000	576.945351
9.390000	586.145770
9.400000	594.015831
9.410000	605.288293
9.420000	616.730629
9.430000	625.765660
9.440000	636.797826
9.450000	653.240368
9.460000	671.846965
9.470000	678.351878
9.480000	671.933594
9.490000	647.117997
