Time(s)	RED_denoised_wiener
0.000000	1349.218382
0.010000	2369.681796
0.020000	3064.123804
0.030000	3853.771411
0.040000	4582.983192
0.050000	5263.089773
0.060000	5800.661201
0.070000	6290.367298
0.080000	6700.771530
0.090000	7032.514384
0.100000	7273.965687
0.110000	7372.335315
0.120000	7428.705347
0.130000	7510.188439
0.140000	7661.511580
0.150000	7786.785923
0.160000	7864.989817
0.170000	7967.773403
0.180000	8082.708300
0.190000	8214.949343
0.200000	8230.186172
0.210000	8177.105897
0.220000	8113.168311
0.230000	8109.114559
0.240000	8201.875289
0.250000	8215.023608
0.260000	8188.999602
0.270000	8159.075409
0.280000	8226.798093
0.290000	8373.624674
0.300000	8446.723482
0.310000	8480.184782
0.320000	8462.689929
0.330000	8437.395229
0.340000	8419.414968
0.350000	8399.041283
0.360000	8396.393833
0.370000	8413.477552
0.380000	8416.783137
0.390000	8340.333925
0.400000	8164.476859
0.410000	7971.649073
0.420000	7839.336499
0.430000	7734.842199
0.440000	7610.001965
0.450000	7456.995432
0.460000	7307.626502
0.470000	7196.674636
0.480000	7144.396464
0.490000	7149.146466
0.500000	7196.986200
0.510000	7206.955130
0.520000	7211.743001
0.530000	7273.700800
0.540000	7401.876183
0.550000	7567.532672
0.560000	7674.013282
0.570000	7627.563424
0.580000	7628.482657
0.590000	7776.843874
0.600000	8074.540985
0.610000	7935.033671
0.620000	7135.457238
0.630000	6111.892527
0.640000	5325.301147
0.650000	4893.000252
0.660000	4435.306078
0.670000	3915.241976
0.680000	3369.372346
0.690000	2820.973151
0.700000	2234.469499
0.710000	1734.002072
0.720000	1360.196214
0.730000	1077.346809
0.740000	774.909349
0.750000	428.118951
0.760000	156.543871
0.770000	26.268986
0.780000	32.174098
0.790000	12.513261
0.800000	-92.056844
0.810000	-177.603288
0.820000	-102.660826
0.830000	339.315936
0.840000	955.160865
0.850000	1498.612657
0.860000	1693.757588
0.870000	1742.076862
0.880000	1909.387096
0.890000	1983.751422
0.900000	1749.528750
0.910000	1155.065139
0.920000	444.337554
0.930000	-214.641527
0.940000	-788.702665
0.950000	-1075.362089
0.960000	-1127.256116
0.970000	-1150.650721
0.980000	-1337.583520
0.990000	-1650.789501
1.000000	-1785.656819
1.010000	-1873.272036
1.020000	-1835.302227
1.030000	-1815.177833
1.040000	-1661.284974
1.050000	-1718.929676
1.060000	-1828.361940
1.070000	-1470.175252
1.080000	-635.990859
1.090000	331.466319
1.100000	664.731655
1.110000	589.353155
1.120000	329.969419
1.130000	204.346719
1.140000	237.587502
1.150000	284.055340
1.160000	165.299320
1.170000	-2.576637
1.180000	14.184522
1.190000	130.432246
1.200000	259.248153
1.210000	258.472542
1.220000	294.007556
1.230000	304.404577
1.240000	188.507258
1.250000	-7.743500
1.260000	-185.665795
1.270000	-288.491128
1.280000	-413.747221
1.290000	-614.601657
1.300000	-771.171575
1.310000	-835.394485
1.320000	-862.698692
1.330000	-875.247941
1.340000	-880.002844
1.350000	-833.448350
1.360000	-781.371318
1.370000	-787.851501
1.380000	-870.765504
1.390000	-1015.986140
1.400000	-1102.351872
1.410000	-1100.191655
1.420000	-1098.416951
1.430000	-1171.510641
1.440000	-1319.764771
1.450000	-1428.667561
1.460000	-1412.010309
1.470000	-1228.434368
1.480000	-936.349954
1.490000	-709.671873
1.500000	-617.221105
1.510000	-611.744086
1.520000	-534.606544
1.530000	-406.128027
1.540000	-259.180022
1.550000	-126.665630
1.560000	-48.927517
1.570000	24.893670
1.580000	64.281223
1.590000	107.822505
1.600000	94.395834
1.610000	91.617989
1.620000	131.926876
1.630000	192.106996
1.640000	267.354863
1.650000	311.662532
1.660000	333.779602
1.670000	360.781414
1.680000	450.468396
1.690000	572.504541
1.700000	664.582348
1.710000	721.230055
1.720000	765.286984
1.730000	854.898772
1.740000	997.364834
1.750000	1144.594853
1.760000	1259.652773
1.770000	1385.690306
1.780000	1508.295292
1.790000	1569.512117
1.800000	1571.615786
1.810000	1570.660771
1.820000	1594.036592
1.830000	1578.740095
1.840000	1540.519191
1.850000	1515.052872
1.860000	1554.224879
1.870000	1576.176758
1.880000	1541.558946
1.890000	1498.051143
1.900000	1498.752529
1.910000	1537.941758
1.920000	1560.655129
1.930000	1598.581106
1.940000	1632.261112
1.950000	1628.359316
1.960000	1617.887249
1.970000	1589.531126
1.980000	1553.080951
1.990000	1492.808862
2.000000	1442.920879
2.010000	1426.565030
2.020000	1425.823201
2.030000	1433.859860
2.040000	1398.107837
2.050000	1272.680647
2.060000	1096.465933
2.070000	976.194728
2.080000	921.731262
2.090000	907.450946
2.100000	837.643355
2.110000	753.923239
2.120000	712.433891
2.130000	722.104027
2.140000	740.253814
2.150000	720.110999
2.160000	691.788619
2.170000	674.257359
2.180000	643.040358
2.190000	541.150299
2.200000	409.061926
2.210000	302.587102
2.220000	263.212147
2.230000	222.890657
2.240000	193.415501
2.250000	155.943503
2.260000	108.163951
2.270000	50.837393
2.280000	5.468235
2.290000	22.308683
2.300000	42.637908
2.310000	25.660148
2.320000	-36.939348
2.330000	-111.375983
2.340000	-146.973853
2.350000	-151.075524
2.360000	-130.177175
2.370000	-117.687207
2.380000	-131.844137
2.390000	-188.464623
2.400000	-281.289933
2.410000	-342.913971
2.420000	-366.743043
2.430000	-364.587899
2.440000	-391.823576
2.450000	-444.941607
2.460000	-466.598158
2.470000	-441.920945
2.480000	-394.654847
2.490000	-350.749442
2.500000	-319.509314
2.510000	-255.270849
2.520000	-193.096440
2.530000	-106.133526
2.540000	45.841450
2.550000	276.752807
2.560000	529.404865
2.570000	739.774198
2.580000	840.779975
2.590000	916.029170
2.600000	959.728855
2.610000	996.854231
2.620000	1066.869376
2.630000	1153.678129
2.640000	1307.676879
2.650000	1398.823708
2.660000	1504.537695
2.670000	1654.654998
2.680000	1827.740312
2.690000	1928.766328
2.700000	2029.883797
2.710000	2179.293100
2.720000	2381.053446
2.730000	2505.265511
2.740000	2542.700910
2.750000	2606.386225
2.760000	2728.939501
2.770000	2921.927199
2.780000	3087.020425
2.790000	3245.941476
2.800000	3424.254863
2.810000	3617.682784
2.820000	3736.730253
2.830000	3825.264715
2.840000	3921.329952
2.850000	4000.147017
2.860000	4038.405859
2.870000	4043.585289
2.880000	4081.445789
2.890000	4095.825154
2.900000	4012.237678
2.910000	3909.621160
2.920000	3830.396461
2.930000	3789.808798
2.940000	3751.545634
2.950000	3706.201368
2.960000	3684.602012
2.970000	3634.494781
2.980000	3551.250514
2.990000	3484.397202
3.000000	3472.996113
3.010000	3536.035900
3.020000	3582.897614
3.030000	3601.679934
3.040000	3555.852766
3.050000	3522.088322
3.060000	3498.711618
3.070000	3446.177013
3.080000	3361.453819
3.090000	3238.372191
3.100000	3149.860410
3.110000	3054.031172
3.120000	2989.265271
3.130000	2973.075949
3.140000	2978.656802
3.150000	2989.589587
3.160000	2940.352374
3.170000	2886.540019
3.180000	2825.991998
3.190000	2770.964587
3.200000	2712.339293
3.210000	2648.173734
3.220000	2592.828040
3.230000	2601.590422
3.240000	2592.032105
3.250000	2522.544552
3.260000	2411.825538
3.270000	2274.242241
3.280000	2225.651548
3.290000	2159.080100
3.300000	2168.112273
3.310000	2169.180262
3.320000	2195.307074
3.330000	2183.762920
3.340000	2097.984187
3.350000	2021.751501
3.360000	1981.577662
3.370000	1986.764714
3.380000	1961.006148
3.390000	1884.668618
3.400000	1915.321246
3.410000	2069.249255
3.420000	2189.891245
3.430000	2235.874078
3.440000	2143.793375
3.450000	2075.174146
3.460000	2007.244918
3.470000	1929.896044
3.480000	1863.164424
3.490000	1835.691504
3.500000	1882.482757
3.510000	1954.635927
3.520000	1943.013134
3.530000	1881.682545
3.540000	1871.433673
3.550000	1917.839244
3.560000	1974.414181
3.570000	1963.611581
3.580000	1866.588199
3.590000	1774.048388
3.600000	1728.324248
3.610000	1705.663199
3.620000	1654.675178
3.630000	1532.323008
3.640000	1414.706639
3.650000	1305.134114
3.660000	1274.940737
3.670000	1280.309300
3.680000	1299.580602
3.690000	1247.318772
3.700000	1166.246453
3.710000	1048.193647
3.720000	908.646984
3.730000	775.102394
3.740000	678.722981
3.750000	631.956298
3.760000	587.963870
3.770000	557.293370
3.780000	562.227028
3.790000	572.808153
3.800000	519.366783
3.810000	409.184440
3.820000	337.730042
3.830000	409.564793
3.840000	423.898192
3.850000	333.341171
3.860000	167.249620
3.870000	175.359794
3.880000	261.953645
3.890000	295.245225
3.900000	219.831121
3.910000	136.855407
3.920000	120.928288
3.930000	63.586451
3.940000	-27.367072
3.950000	-140.720553
3.960000	-164.100878
3.970000	-129.810095
3.980000	-172.503197
3.990000	-265.847079
4.000000	-381.959749
4.010000	-421.080676
4.020000	-374.729922
4.030000	-289.864990
4.040000	-221.255545
4.050000	-282.547209
4.060000	-396.328147
4.070000	-439.845495
4.080000	-338.275187
4.090000	-243.511475
4.100000	-244.797341
4.110000	-326.973421
4.120000	-353.404088
4.130000	-356.319595
4.140000	-351.053708
4.150000	-393.201147
4.160000	-331.228079
4.170000	-209.048671
4.180000	-67.157729
4.190000	-31.564579
4.200000	-124.905812
4.210000	-174.314717
4.220000	-161.184282
4.230000	-72.188233
4.240000	-33.958202
4.250000	-5.046657
4.260000	-7.020584
4.270000	26.552392
4.280000	66.869069
4.290000	149.205543
4.300000	256.156629
4.310000	318.590384
4.320000	363.245761
4.330000	419.184355
4.340000	495.146321
4.350000	545.828288
4.360000	541.619532
4.370000	497.789522
4.380000	524.211092
4.390000	594.232104
4.400000	661.268707
4.410000	679.194545
4.420000	692.090484
4.430000	776.761061
4.440000	902.127942
4.450000	1022.129534
4.460000	1066.606773
4.470000	1056.587126
4.480000	1016.264071
4.490000	1034.055318
4.500000	1065.722313
4.510000	1084.400941
4.520000	1076.043212
4.530000	1034.593711
4.540000	998.977244
4.550000	941.423948
4.560000	934.338113
4.570000	904.670768
4.580000	831.656369
4.590000	746.872839
4.600000	707.520847
4.610000	766.536735
4.620000	797.363557
4.630000	777.956585
4.640000	718.762083
4.650000	659.587994
4.660000	618.897232
4.670000	564.205717
4.680000	544.045464
4.690000	576.528107
4.700000	628.505443
4.710000	692.036581
4.720000	717.966718
4.730000	768.295813
4.740000	829.664109
4.750000	863.593450
4.760000	854.195230
4.770000	807.386951
4.780000	743.532951
4.790000	691.635375
4.800000	635.842947
4.810000	589.055834
4.820000	510.095074
4.830000	374.945022
4.840000	225.280134
4.850000	110.271562
4.860000	47.793579
4.870000	0.859348
4.880000	-90.011917
4.890000	-225.651361
4.900000	-311.484040
4.910000	-373.424088
4.920000	-401.457654
4.930000	-445.296775
4.940000	-456.767416
4.950000	-372.067283
4.960000	-251.360816
4.970000	-170.493086
4.980000	-136.045274
4.990000	-72.309908
5.000000	109.687273
5.010000	472.512236
5.020000	777.301019
5.030000	949.826599
5.040000	897.234562
5.050000	804.271965
5.060000	762.277690
5.070000	730.718853
5.080000	746.561634
5.090000	668.702189
5.100000	112.867458
5.110000	-1437.657578
5.120000	-4598.079011
5.130000	-9375.376293
5.140000	-17420.195682
5.150000	-33840.062308
5.160000	-51724.457241
5.170000	-57299.070193
5.180000	-59448.105524
5.190000	-58411.759459
5.200000	-55818.760790
5.210000	-52939.478148
5.220000	-50756.960257
5.230000	-49563.299363
5.240000	-48822.218113
5.250000	-47760.803835
5.260000	-46125.568447
5.270000	-43839.791998
5.280000	-41605.721839
5.290000	-39303.517562
5.300000	-37294.189409
5.310000	-35321.873551
5.320000	-33448.853160
5.330000	-31503.573740
5.340000	-29314.166365
5.350000	-27540.539107
5.360000	-26193.674681
5.370000	-25179.857624
5.380000	-23891.074253
5.390000	-22430.763618
5.400000	-21122.708550
5.410000	-20177.985558
5.420000	-20059.656272
5.430000	-20908.940556
5.440000	-22432.021717
5.450000	-23726.498717
5.460000	-24156.054638
5.470000	-23231.058246
5.480000	-21060.658991
5.490000	-17970.467345
5.500000	-14314.925643
5.510000	-10583.825910
5.520000	-7121.698875
5.530000	-4369.014605
5.540000	-2053.074302
5.550000	-206.597417
5.560000	1131.316554
5.570000	2003.166776
5.580000	2671.774516
5.590000	3306.141010
5.600000	3813.654065
5.610000	4243.316714
5.620000	4507.977870
5.630000	4679.753749
5.640000	4781.997285
5.650000	5031.557402
5.660000	5312.276167
5.670000	5555.671660
5.680000	5755.912313
5.690000	5950.428764
5.700000	6166.048828
5.710000	6397.967239
5.720000	6690.193060
5.730000	7045.270827
5.740000	7297.425970
5.750000	7403.801602
5.760000	7465.950325
5.770000	7649.742359
5.780000	7974.310119
5.790000	8205.230262
5.800000	8335.209007
5.810000	8313.184880
5.820000	8308.304580
5.830000	8379.767609
5.840000	8543.549699
5.850000	8791.557281
5.860000	9101.366576
5.870000	9489.737036
5.880000	9888.905060
5.890000	10260.622850
5.900000	10557.380939
5.910000	10849.131896
5.920000	11032.352018
5.930000	11157.038581
5.940000	11264.613109
5.950000	11392.585606
5.960000	11478.588407
5.970000	11490.207472
5.980000	11486.143836
5.990000	11524.494789
6.000000	11576.130629
6.010000	11608.113010
6.020000	11644.285092
6.030000	11678.664641
6.040000	11653.984232
6.050000	11558.363267
6.060000	11455.917835
6.070000	11321.512481
6.080000	11150.941231
6.090000	10893.903914
6.100000	10614.316928
6.110000	10367.647111
6.120000	10121.830159
6.130000	9913.292608
6.140000	9562.801423
6.150000	9084.522426
6.160000	8513.886950
6.170000	7918.565973
6.180000	7367.035803
6.190000	6828.400250
6.200000	6410.297984
6.210000	6155.123948
6.220000	5996.331977
6.230000	5884.969366
6.240000	5688.545590
6.250000	5424.304061
6.260000	5184.378507
6.270000	4982.505934
6.280000	4854.356354
6.290000	4626.553825
6.300000	4428.922598
6.310000	4272.031902
6.320000	4174.604364
6.330000	4004.858441
6.340000	3768.761645
6.350000	3575.734949
6.360000	3451.122456
6.370000	3321.108833
6.380000	3208.854590
6.390000	3134.915761
6.400000	3106.993486
6.410000	3062.640609
6.420000	3031.831979
6.430000	3039.799995
6.440000	2968.392679
6.450000	2887.593909
6.460000	2820.611126
6.470000	2885.436114
6.480000	2918.846874
6.490000	2928.539135
6.500000	2889.118131
6.510000	2848.638615
6.520000	2718.477030
6.530000	2584.682516
6.540000	2413.974460
6.550000	2190.575699
6.560000	2007.907933
6.570000	1969.300445
6.580000	2098.762782
6.590000	2232.984805
6.600000	2288.312038
6.610000	2340.584368
6.620000	2430.576955
6.630000	2484.014721
6.640000	2606.149876
6.650000	2676.976090
6.660000	2713.249570
6.670000	2648.528180
6.680000	2582.292285
6.690000	2535.018638
6.700000	2439.584463
6.710000	2292.174393
6.720000	2135.497183
6.730000	2056.278461
6.740000	2084.081629
6.750000	2168.660015
6.760000	2209.024683
6.770000	2212.504987
6.780000	2304.459083
6.790000	2478.155578
6.800000	2659.210646
6.810000	2785.009351
6.820000	2869.344124
6.830000	2992.886720
6.840000	3209.244340
6.850000	3524.475713
6.860000	3778.531676
6.870000	3951.293492
6.880000	4084.501122
6.890000	4229.985593
6.900000	4259.156004
6.910000	4044.195145
6.920000	3787.567676
6.930000	3671.198891
6.940000	3790.593533
6.950000	4014.097854
6.960000	4227.854949
6.970000	4418.794512
6.980000	4520.491540
6.990000	4539.881859
7.000000	4567.213605
7.010000	4593.554208
7.020000	4584.055965
7.030000	4534.502863
7.040000	4484.544986
7.050000	4581.273438
7.060000	4712.181779
7.070000	4790.308872
7.080000	4773.804394
7.090000	4743.209583
7.100000	4851.488879
7.110000	4977.220094
7.120000	5059.202631
7.130000	5046.790536
7.140000	5059.581960
7.150000	5161.406141
7.160000	5256.053717
7.170000	5284.322327
7.180000	5216.138002
7.190000	5143.773961
7.200000	5030.734880
7.210000	4877.526976
7.220000	4777.787428
7.230000	4779.688422
7.240000	4781.628644
7.250000	4762.604633
7.260000	4694.316551
7.270000	4611.226595
7.280000	4466.982474
7.290000	4199.338129
7.300000	3856.819084
7.310000	3555.501498
7.320000	3442.273119
7.330000	3419.191695
7.340000	3355.168506
7.350000	3240.748122
7.360000	3176.230574
7.370000	3135.823174
7.380000	3123.238328
7.390000	3183.208554
7.400000	3312.645396
7.410000	3405.842383
7.420000	3398.362398
7.430000	3377.756512
7.440000	3407.876740
7.450000	3453.594105
7.460000	3422.428423
7.470000	3384.739993
7.480000	3367.722081
7.490000	3416.127454
7.500000	3429.142057
7.510000	3466.481380
7.520000	3507.533042
7.530000	3536.372539
7.540000	3575.887685
7.550000	3587.284017
7.560000	3560.176079
7.570000	3537.196137
7.580000	3562.990976
7.590000	3666.585575
7.600000	3737.943388
7.610000	3789.830972
7.620000	3780.263279
7.630000	3735.113102
7.640000	3713.189798
7.650000	3759.873631
7.660000	3797.626424
7.670000	3627.815015
7.680000	3329.337811
7.690000	2959.542064
7.700000	2709.259685
7.710000	2399.429351
7.720000	2079.317151
7.730000	1746.682594
7.740000	1580.044107
7.750000	1525.135082
7.760000	1520.923330
7.770000	1533.498476
7.780000	1542.341300
7.790000	1530.037911
7.800000	1472.574190
7.810000	1451.031238
7.820000	1501.514308
7.830000	1578.630322
7.840000	1530.657481
7.850000	1403.265474
7.860000	1370.312129
7.870000	1519.488829
7.880000	1637.296528
7.890000	1612.482122
7.900000	1605.180870
7.910000	1729.168070
7.920000	1937.776619
7.930000	2053.980130
7.940000	2073.329251
7.950000	2108.595755
7.960000	2172.754770
7.970000	2309.441273
7.980000	2415.588394
7.990000	2488.706069
8.000000	2511.523112
8.010000	2654.627165
8.020000	2890.385694
8.030000	3166.952657
8.040000	3367.873650
8.050000	3436.577354
8.060000	3433.817133
8.070000	3366.185114
8.080000	3330.472021
8.090000	3304.929457
8.100000	3302.014820
8.110000	3301.710350
8.120000	3232.540462
8.130000	3148.291201
8.140000	3080.124939
8.150000	3064.673081
8.160000	2869.755461
8.170000	2577.701470
8.180000	2385.147599
8.190000	2377.871333
8.200000	2468.842674
8.210000	2479.900057
8.220000	2389.074150
8.230000	2319.432774
8.240000	2272.074481
8.250000	2272.467812
8.260000	2283.336051
8.270000	2270.944325
8.280000	2274.561369
8.290000	2138.981412
8.300000	1977.283059
8.310000	1770.747466
8.320000	1677.913998
8.330000	1593.542850
8.340000	1489.842886
8.350000	1339.756883
8.360000	1194.401175
8.370000	1126.108596
8.380000	975.734476
8.390000	814.836097
8.400000	599.156526
8.410000	396.609881
8.420000	173.368681
8.430000	-12.630073
8.440000	-177.891392
8.450000	-285.325918
8.460000	-336.195215
8.470000	-332.631227
8.480000	-320.561723
8.490000	-357.913877
8.500000	-394.912119
8.510000	-434.289097
8.520000	-451.805435
8.530000	-458.379860
8.540000	-458.301497
8.550000	-519.267707
8.560000	-535.612969
8.570000	-591.637506
8.580000	-599.747817
8.590000	-653.134632
8.600000	-738.222169
8.610000	-926.834348
8.620000	-1065.714971
8.630000	-1078.049276
8.640000	-990.131499
8.650000	-929.183873
8.660000	-873.115651
8.670000	-781.915558
8.680000	-648.505145
8.690000	-455.602684
8.700000	-257.075422
8.710000	-84.883575
8.720000	22.012574
8.730000	139.158972
8.740000	242.834972
8.750000	386.084173
8.760000	491.301786
8.770000	581.954998
8.780000	618.261003
8.790000	640.710520
8.800000	649.438359
8.810000	655.155495
8.820000	741.474434
8.830000	906.020872
8.840000	1009.789894
8.850000	1039.885339
8.860000	1026.541271
8.870000	1052.208743
8.880000	989.362839
8.890000	898.025546
8.900000	842.840098
8.910000	876.450427
8.920000	857.423374
8.930000	777.544960
8.940000	797.438817
8.950000	1016.771862
8.960000	1343.559007
8.970000	1642.843208
8.980000	1910.331877
8.990000	2077.028628
9.000000	2153.279099
9.010000	2120.087861
9.020000	2113.939044
9.030000	2087.592778
9.040000	2015.941335
9.050000	1946.911093
9.060000	1929.223182
9.070000	1994.457593
9.080000	2118.291295
9.090000	2264.241701
9.100000	2384.597425
9.110000	2487.111510
9.120000	2657.716135
9.130000	2761.971716
9.140000	2808.153614
9.150000	2832.499960
9.160000	2953.405740
9.170000	3157.586611
9.180000	3299.545869
9.190000	3577.867145
9.200000	3825.595211
9.210000	4108.364029
9.220000	4290.667276
9.230000	4355.091387
9.240000	4351.160242
9.250000	4365.822823
9.260000	4495.244015
9.270000	4630.554126
9.280000	4666.565062
9.290000	4647.921577
9.300000	4640.834060
9.310000	4655.688489
9.320000	4709.671896
9.330000	4724.072844
9.340000	4775.815347
9.350000	4777.548106
9.360000	4779.208562
9.370000	4641.038939
9.380000	4506.914575
9.390000	4396.385916
9.400000	4412.043414
9.410000	4450.358631
9.420000	4496.605096
9.430000	4471.005342
9.440000	4385.267740
9.450000	4375.841350
9.460000	4381.898874
9.470000	4421.735274
9.480000	4403.063804
9.490000	4359.476006
9.500000	4256.539837
9.510000	4140.934283
9.520000	4071.540961
9.530000	4020.643067
9.540000	3907.214108
9.550000	3750.776521
9.560000	3600.112831
9.570000	3519.093305
9.580000	3390.987399
9.590000	3269.346295
9.600000	3180.585898
9.610000	3126.660483
9.620000	3117.665044
9.630000	3032.067986
9.640000	2913.315348
9.650000	2807.263322
9.660000	2682.196971
9.670000	2605.170785
9.680000	2546.249510
9.690000	2536.680035
9.700000	2554.252061
9.710000	2498.734907
9.720000	2396.358249
9.730000	2293.263816
9.740000	2216.494354
9.750000	2240.000280
9.760000	2198.047198
9.770000	2163.129092
9.780000	2039.539072
9.790000	1897.109867
9.800000	1656.681967
9.810000	1378.864366
9.820000	1176.019766
9.830000	1082.453473
9.840000	1020.094147
9.850000	1035.760394
9.860000	1079.273129
9.870000	1268.562932
9.880000	1364.835771
9.890000	1087.276351
9.900000	728.662985
9.910000	310.596967
9.920000	-6.446860
9.930000	-849.567861
9.940000	-2374.254195
9.950000	-5108.084630
9.960000	-9415.860086
9.970000	-19712.103371
9.980000	-34856.918528
9.990000	-42731.924266
10.000000	-45933.763760
10.010000	-47453.792026
10.020000	-48570.395645
10.030000	-49447.924054
10.040000	-50103.984784
10.050000	-49669.650330
10.060000	-48555.786741
10.070000	-47095.863409
10.080000	-45534.712597
10.090000	-43741.747052
10.100000	-41750.123915
10.110000	-39819.956867
10.120000	-38071.520795
10.130000	-36430.334637
10.140000	-34995.430086
10.150000	-34021.508552
10.160000	-33337.872083
10.170000	-32715.890074
10.180000	-32050.017614
10.190000	-31632.728792
10.200000	-31402.219099
10.210000	-30798.894097
10.220000	-29291.523561
10.230000	-27154.628607
10.240000	-24892.145162
10.250000	-23151.441471
10.260000	-22122.525531
10.270000	-21791.706850
10.280000	-22044.972579
10.290000	-22883.627939
10.300000	-24054.723563
10.310000	-25206.275766
10.320000	-26171.979606
10.330000	-26804.633995
10.340000	-27035.772527
10.350000	-26628.178565
10.360000	-25593.227085
10.370000	-24039.631548
10.380000	-21969.692478
10.390000	-19331.901729
10.400000	-16035.343022
10.410000	-12650.944707
10.420000	-9888.324294
10.430000	-7796.116770
10.440000	-6147.153876
10.450000	-4638.347375
10.460000	-3382.721258
10.470000	-2309.328755
10.480000	-1234.563059
10.490000	-229.588159
10.500000	665.440950
10.510000	1581.054137
10.520000	2516.188693
10.530000	3381.564892
10.540000	4200.361648
10.550000	4914.975675
10.560000	5629.439327
10.570000	6236.940322
10.580000	6717.560789
10.590000	7127.591525
10.600000	7466.341738
10.610000	7858.408204
10.620000	8125.784927
10.630000	8208.380723
10.640000	8102.887956
10.650000	8048.862684
10.660000	8101.665946
10.670000	8166.785624
10.680000	8119.217839
10.690000	7985.988759
10.700000	7881.878319
10.710000	7874.267490
10.720000	7905.739981
10.730000	7894.026691
10.740000	7877.152168
10.750000	7900.029625
10.760000	7996.764118
10.770000	8011.745526
10.780000	7928.329652
10.790000	7757.446888
10.800000	7707.017061
10.810000	7745.074603
10.820000	7792.163590
10.830000	7790.689541
10.840000	7732.377000
10.850000	7692.469488
10.860000	7559.016028
10.870000	7371.609521
10.880000	7147.207464
10.890000	6983.255869
10.900000	6894.795104
10.910000	6846.724284
10.920000	6763.234588
10.930000	6677.459394
10.940000	6620.640136
10.950000	6553.977132
10.960000	6488.160312
10.970000	6389.020687
10.980000	6279.489962
10.990000	6118.544803
11.000000	5868.822755
11.010000	5551.894036
11.020000	5175.116560
11.030000	4817.777633
11.040000	4523.318773
11.050000	4262.137493
11.060000	4004.868516
11.070000	3767.973398
11.080000	3655.345178
11.090000	3701.976759
11.100000	3817.504124
11.110000	3894.630064
11.120000	3977.110911
11.130000	4130.044766
11.140000	4316.142391
11.150000	4513.209939
11.160000	4746.683445
11.170000	5065.153847
11.180000	5468.475467
11.190000	5881.278965
11.200000	6386.760446
11.210000	6864.572072
11.220000	7239.566162
11.230000	7485.732914
11.240000	7661.673182
11.250000	7837.998421
11.260000	8007.975495
11.270000	8206.455202
11.280000	8407.858178
11.290000	8496.078926
11.300000	8496.213448
11.310000	8462.202441
11.320000	8383.481194
11.330000	8221.006409
11.340000	7971.942701
11.350000	7762.260723
11.360000	7508.260441
11.370000	7255.638031
11.380000	7011.575437
11.390000	6817.213709
11.400000	6649.153616
11.410000	6418.384934
11.420000	6109.377961
11.430000	5857.416613
11.440000	5672.706852
11.450000	5556.206116
11.460000	5388.490104
11.470000	5164.763858
11.480000	4946.577347
11.490000	4699.514796
11.500000	4441.934615
11.510000	4092.451798
11.520000	3744.901398
11.530000	3405.945849
11.540000	3175.923470
11.550000	2981.428868
11.560000	2810.582173
11.570000	2756.001338
11.580000	2707.487705
11.590000	2663.678035
11.600000	2520.918997
11.610000	2299.503255
11.620000	2074.309682
11.630000	1847.606536
11.640000	1728.138313
11.650000	1703.858218
11.660000	1719.997753
11.670000	1802.480982
11.680000	1849.323299
11.690000	1810.732464
11.700000	1668.555718
11.710000	1557.558516
11.720000	1588.210562
11.730000	1568.377171
11.740000	1430.031235
11.750000	1242.398983
11.760000	1119.134659
11.770000	1013.475458
11.780000	856.674156
11.790000	774.249811
11.800000	793.776800
11.810000	854.280960
11.820000	903.070030
11.830000	1009.148698
11.840000	1124.545474
11.850000	1163.417070
11.860000	1111.055431
11.870000	1112.631505
11.880000	1191.405294
11.890000	1315.202891
11.900000	1391.098623
11.910000	1360.713934
11.920000	1340.785461
11.930000	1339.774562
11.940000	1443.867168
11.950000	1521.753629
11.960000	1551.432642
11.970000	1587.460905
11.980000	1679.169420
11.990000	1714.578495
12.000000	1581.760741
12.010000	1462.692068
12.020000	1479.042861
12.030000	1647.040136
12.040000	1840.793073
12.050000	2000.428939
12.060000	2187.403575
12.070000	2292.543775
12.080000	2371.328600
12.090000	2498.240702
12.100000	2627.119754
12.110000	2749.573084
12.120000	2777.223839
12.130000	2770.848615
12.140000	2849.021013
12.150000	2945.150766
12.160000	3071.236714
12.170000	3088.575815
12.180000	3083.274135
12.190000	3082.711269
12.200000	3118.863297
12.210000	3145.170864
12.220000	3106.636505
12.230000	3072.178715
12.240000	3033.071707
12.250000	3057.273085
12.260000	3104.085013
12.270000	3225.164930
12.280000	3323.902165
12.290000	3420.255258
12.300000	3506.522216
12.310000	3607.313741
12.320000	3690.867352
12.330000	3843.242907
12.340000	3976.615778
12.350000	4028.456202
12.360000	3965.994351
12.370000	3896.268965
12.380000	3838.347148
12.390000	3657.876542
12.400000	3462.247091
12.410000	3362.377292
12.420000	3443.627262
12.430000	3516.340033
12.440000	3520.581305
12.450000	3456.686101
12.460000	3364.862846
12.470000	3238.120683
12.480000	3065.351375
12.490000	2994.543994
12.500000	3002.254246
12.510000	2974.269954
12.520000	2821.778897
12.530000	2650.749628
12.540000	2642.729897
12.550000	2704.693942
12.560000	2780.333852
12.570000	2818.872200
12.580000	2854.723844
12.590000	2917.589505
12.600000	2988.532171
12.610000	3089.637984
12.620000	3127.240968
12.630000	3077.763897
12.640000	3003.403468
12.650000	3007.219998
12.660000	3035.686993
12.670000	3079.348040
12.680000	3097.435195
12.690000	3142.950731
12.700000	3182.162015
12.710000	3206.505781
12.720000	3249.219909
12.730000	3232.973089
12.740000	3263.997579
12.750000	3321.306226
12.760000	3434.128039
12.770000	3478.767143
12.780000	3498.598083
12.790000	3558.834983
12.800000	3649.073576
12.810000	3732.375934
12.820000	3736.998955
12.830000	3698.088748
12.840000	3643.782815
12.850000	3631.091349
12.860000	3627.196509
12.870000	3619.358362
12.880000	3526.297240
12.890000	3372.122786
12.900000	3189.963337
12.910000	3078.607435
12.920000	3022.187006
12.930000	2902.349000
12.940000	2752.030499
12.950000	2653.429367
12.960000	2609.525774
12.970000	2516.752294
12.980000	2326.038422
12.990000	2160.080491
13.000000	2116.681992
13.010000	2081.357357
13.020000	2036.455693
13.030000	1904.332698
13.040000	1726.418764
13.050000	1436.540546
13.060000	1152.079745
13.070000	956.514741
13.080000	793.882901
13.090000	660.155757
13.100000	581.291612
13.110000	538.195234
13.120000	445.038244
13.130000	307.004894
13.140000	170.751322
13.150000	89.016128
13.160000	35.096738
13.170000	29.005189
13.180000	-3.635246
13.190000	-56.937797
13.200000	-78.058431
13.210000	-52.473882
13.220000	14.642095
13.230000	56.664721
13.240000	30.917522
13.250000	-43.518939
13.260000	-17.943930
13.270000	75.640522
13.280000	136.510961
13.290000	140.848624
13.300000	86.528511
13.310000	-36.797127
13.320000	-237.280188
13.330000	-352.474273
13.340000	-352.955209
13.350000	-359.733240
13.360000	-416.587758
13.370000	-483.933896
13.380000	-454.539499
13.390000	-366.372678
13.400000	-292.427763
13.410000	-252.506678
13.420000	-279.193441
13.430000	-200.254763
13.440000	-29.982377
13.450000	177.375468
13.460000	244.043150
13.470000	166.971686
13.480000	28.454844
13.490000	-84.936236
13.500000	-124.086548
13.510000	-108.550629
13.520000	-78.202603
13.530000	-55.303154
13.540000	11.028066
13.550000	122.286867
13.560000	198.177955
13.570000	229.548496
13.580000	241.229738
13.590000	297.392407
13.600000	448.717715
13.610000	559.195809
13.620000	653.785730
13.630000	679.923215
13.640000	832.335545
13.650000	961.840973
13.660000	967.150816
13.670000	975.853594
13.680000	1013.484338
13.690000	1163.155213
13.700000	1250.908291
13.710000	1306.144158
13.720000	1381.858124
13.730000	1458.393582
13.740000	1580.109408
13.750000	1675.449194
13.760000	1721.283848
13.770000	1752.453079
13.780000	1795.891200
13.790000	1839.469858
13.800000	1897.022252
13.810000	1936.812741
13.820000	2006.822372
13.830000	2073.714578
13.840000	2205.348229
13.850000	2399.537314
13.860000	2532.652625
13.870000	2602.136802
13.880000	2544.231925
13.890000	2464.977743
13.900000	2292.429549
13.910000	2068.236582
13.920000	1901.583952
13.930000	1864.162428
13.940000	1913.526884
13.950000	1964.404668
13.960000	1993.071549
13.970000	2027.219464
13.980000	2047.918143
13.990000	2029.109960
14.000000	2007.363969
14.010000	2033.465328
14.020000	2080.687988
14.030000	2120.238011
14.040000	2158.530272
14.050000	2231.177668
14.060000	2364.766412
14.070000	2442.808201
14.080000	2476.101175
14.090000	2490.226854
14.100000	2523.550380
14.110000	2534.169511
14.120000	2552.608090
14.130000	2620.550838
14.140000	2655.063291
14.150000	2640.521877
14.160000	2593.008800
14.170000	2597.416837
14.180000	2658.133142
14.190000	2748.959412
14.200000	2913.846763
14.210000	3069.881789
14.220000	3192.447030
14.230000	3298.309300
14.240000	3338.255797
14.250000	3312.259851
14.260000	3271.257362
14.270000	3339.128430
14.280000	3465.161914
14.290000	3499.438523
14.300000	3458.569311
14.310000	3359.125403
14.320000	3282.195558
14.330000	3076.881489
14.340000	2862.267750
14.350000	2622.636436
14.360000	2474.403301
14.370000	2355.265614
14.380000	2253.039569
14.390000	2169.293578
14.400000	2168.206756
14.410000	2243.484859
14.420000	2270.069201
14.430000	2252.718710
14.440000	2290.875598
14.450000	2330.880489
14.460000	2210.730711
14.470000	1977.961908
14.480000	1776.525924
14.490000	1676.513562
14.500000	1584.208795
14.510000	1454.868411
14.520000	1404.332520
14.530000	1302.545457
14.540000	1212.648870
14.550000	1005.019470
14.560000	843.762788
14.570000	650.482656
14.580000	447.138625
14.590000	204.455797
14.600000	44.578740
14.610000	-95.767554
14.620000	-89.481100
14.630000	-122.542601
14.640000	-26.260883
14.650000	-169.490419
14.660000	-402.648718
14.670000	-938.467621
14.680000	-1309.538372
14.690000	-1622.393349
14.700000	-1664.258786
14.710000	-2358.817131
14.720000	-3568.443183
14.730000	-4572.019493
14.740000	-4505.618756
14.750000	-4847.373451
14.760000	-7309.308512
14.770000	-17180.064822
14.780000	-37911.174486
14.790000	-50047.571437
14.800000	-40622.841451
14.810000	-36468.027968
14.820000	-33296.336318
14.830000	-31025.169489
14.840000	-28404.121457
14.850000	-26559.240097
14.860000	-24754.528220
14.870000	-23876.169063
14.880000	-22975.966520
14.890000	-22177.779028
14.900000	-20817.309853
14.910000	-19574.149605
14.920000	-18501.334793
14.930000	-18109.846611
14.940000	-18018.310165
14.950000	-18454.617626
14.960000	-19301.069429
14.970000	-20853.924388
14.980000	-23074.640159
14.990000	-25546.923437
15.000000	-27196.131143
15.010000	-27189.313285
15.020000	-25146.257597
15.030000	-21461.953234
15.040000	-16714.249710
15.050000	-12378.186228
15.060000	-9086.848981
15.070000	-6808.453389
15.080000	-5008.650318
15.090000	-3450.915107
15.100000	-2039.545786
15.110000	-954.505404
15.120000	-0.780201
15.130000	857.434114
15.140000	1725.813670
15.150000	2471.357080
15.160000	3137.868091
15.170000	3684.023783
15.180000	4267.783317
15.190000	5236.861025
15.200000	6099.712028
15.210000	6729.353989
15.220000	6787.717881
15.230000	6812.912797
15.240000	6960.334345
15.250000	7063.250985
15.260000	7156.838479
15.270000	7203.725313
15.280000	7311.745730
15.290000	7422.750243
15.300000	7576.263216
15.310000	7728.222998
15.320000	7922.702225
15.330000	8053.297253
15.340000	8171.926162
15.350000	8276.909627
15.360000	8416.307230
15.370000	8535.261660
15.380000	8627.846776
15.390000	8673.599554
15.400000	8734.640582
15.410000	8772.022225
15.420000	8742.787288
15.430000	8660.298317
15.440000	8508.219258
15.450000	8392.612132
15.460000	8188.720142
15.470000	7958.141934
15.480000	7645.271148
15.490000	7326.407230
15.500000	6985.275553
15.510000	6634.460523
15.520000	6231.170959
15.530000	5806.761542
15.540000	5367.709726
15.550000	4998.322251
15.560000	4753.882238
15.570000	4619.738510
15.580000	4540.658389
15.590000	3867.572957
15.600000	3101.977935
15.610000	2353.381446
15.620000	2162.199027
15.630000	2119.300639
15.640000	2049.782800
15.650000	2008.571078
15.660000	1928.752567
15.670000	1945.116759
15.680000	1957.465447
15.690000	1920.535773
15.700000	1770.182828
15.710000	1624.846536
15.720000	1440.177251
15.730000	1236.392672
15.740000	902.536633
15.750000	554.621292
15.760000	282.216340
15.770000	114.076345
15.780000	85.641721
15.790000	127.304026
15.800000	248.345440
15.810000	352.637688
15.820000	374.863121
15.830000	330.924268
15.840000	358.445463
15.850000	437.508991
15.860000	596.224390
15.870000	662.609315
15.880000	711.747563
15.890000	1045.398369
15.900000	1436.885983
15.910000	1920.304093
15.920000	2157.068399
15.930000	2392.214152
15.940000	2524.367877
15.950000	2514.698258
15.960000	2528.296805
15.970000	2621.954680
15.980000	2860.985972
15.990000	3245.769959
16.000000	3699.534136
16.010000	4097.190444
16.020000	4297.442678
16.030000	4320.125347
16.040000	4326.812652
16.050000	4306.993319
16.060000	4344.514390
16.070000	4347.451315
16.080000	4386.067885
16.090000	4485.859453
16.100000	4539.997825
16.110000	4530.919395
16.120000	4468.075318
16.130000	4512.134720
16.140000	4576.547189
16.150000	4599.491323
16.160000	4617.696373
16.170000	4699.006605
16.180000	4787.913198
16.190000	4864.693140
16.200000	4980.397203
16.210000	5069.799571
16.220000	5168.898254
16.230000	5195.319652
16.240000	5243.289488
16.250000	5274.547330
16.260000	5330.303449
16.270000	5408.059022
16.280000	5477.979304
16.290000	5522.006242
16.300000	5574.201000
16.310000	5616.211674
16.320000	5671.606106
16.330000	5736.409137
16.340000	5791.035390
16.350000	5832.719183
16.360000	5846.496857
16.370000	5889.960126
16.380000	5920.747975
16.390000	5970.467597
16.400000	6045.325184
16.410000	6140.339314
16.420000	6240.936769
16.430000	6298.176399
16.440000	6376.919687
16.450000	6446.809691
16.460000	6498.684142
16.470000	6518.485080
16.480000	6580.746310
16.490000	6723.446596
16.500000	6822.749333
16.510000	6875.456805
16.520000	6847.383275
16.530000	6853.591607
16.540000	6845.948923
16.550000	6817.885721
16.560000	6785.955077
16.570000	6747.168296
16.580000	6760.839578
16.590000	6810.949573
16.600000	6911.844767
16.610000	7008.241858
16.620000	7052.905904
16.630000	7057.394344
16.640000	7091.824773
16.650000	7219.890872
16.660000	7376.081874
16.670000	7460.985424
16.680000	7440.540932
16.690000	7370.012392
16.700000	7313.709815
16.710000	7292.937407
16.720000	7264.381862
16.730000	7230.332745
16.740000	7132.898071
16.750000	7022.365667
16.760000	6930.702048
16.770000	6819.541086
16.780000	6673.903467
16.790000	6476.039602
16.800000	6346.145257
16.810000	6250.440785
16.820000	6164.067826
16.830000	6038.764630
16.840000	5920.232707
16.850000	5823.652803
16.860000	5700.869001
16.870000	5579.391351
16.880000	5429.989148
16.890000	5348.443390
16.900000	5251.250755
16.910000	5113.286688
16.920000	4944.570143
16.930000	4799.877812
16.940000	4708.106955
16.950000	4606.168371
16.960000	4501.118725
16.970000	4348.931107
16.980000	4234.092772
16.990000	4086.542127
17.000000	3942.294366
17.010000	3698.370997
17.020000	3429.914840
17.030000	3209.452363
17.040000	3085.057838
17.050000	3016.878561
17.060000	2966.120032
17.070000	2868.815185
17.080000	2774.737443
17.090000	2625.026160
17.100000	2467.216352
17.110000	2365.181151
17.120000	2321.422361
17.130000	2321.515151
17.140000	2178.376137
17.150000	2003.220242
17.160000	1803.593431
17.170000	1685.072615
17.180000	1591.240260
17.190000	1477.829247
17.200000	1309.111175
17.210000	1099.253290
17.220000	939.721156
17.230000	861.367333
17.240000	773.851127
17.250000	689.612900
17.260000	548.293409
17.270000	429.752211
17.280000	294.914007
17.290000	200.322145
17.300000	128.495643
17.310000	62.053053
17.320000	34.707995
17.330000	45.508811
17.340000	126.494032
17.350000	161.035665
17.360000	194.534192
17.370000	159.056685
17.380000	190.602922
17.390000	270.450880
17.400000	312.614713
17.410000	373.359924
17.420000	425.183578
17.430000	539.657907
17.440000	501.745068
17.450000	345.415964
17.460000	258.167378
17.470000	268.840403
17.480000	372.929899
17.490000	473.438926
17.500000	618.849761
17.510000	795.955438
17.520000	910.965366
17.530000	1019.629389
17.540000	1142.393693
17.550000	1292.355809
17.560000	1414.370198
17.570000	1468.522628
17.580000	1566.825491
17.590000	1661.976323
17.600000	1744.772802
17.610000	1741.971081
17.620000	1757.921085
17.630000	1807.763579
17.640000	1883.712043
17.650000	1997.645277
17.660000	2097.024121
17.670000	2175.347656
17.680000	2251.095216
17.690000	2327.361011
17.700000	2357.712994
17.710000	2371.594939
17.720000	2417.725337
17.730000	2529.791980
17.740000	2593.331253
17.750000	2576.545957
17.760000	2574.277604
17.770000	2567.977152
17.780000	2593.691917
17.790000	2567.726816
17.800000	2537.777115
17.810000	2544.429612
17.820000	2544.266871
17.830000	2568.969897
17.840000	2526.711224
17.850000	2454.487074
17.860000	2296.519730
17.870000	2152.044853
17.880000	2068.128997
17.890000	2012.658390
17.900000	1993.450341
17.910000	1989.791795
17.920000	2056.239127
17.930000	2140.555058
17.940000	2234.735031
17.950000	2256.696265
17.960000	2261.518160
17.970000	2341.178395
17.980000	2489.934875
17.990000	2614.317272
18.000000	2627.262592
18.010000	2597.105386
18.020000	2606.514444
18.030000	2639.837209
18.040000	2678.634706
18.050000	2694.413103
18.060000	2761.237281
18.070000	2854.581095
18.080000	2982.454346
18.090000	3321.399324
18.100000	3710.594370
18.110000	4111.732457
18.120000	4258.949966
18.130000	4316.750341
18.140000	4357.885058
18.150000	4349.304557
18.160000	4314.798583
18.170000	4274.332627
18.180000	4278.275315
18.190000	4224.750899
18.200000	4115.841216
18.210000	3980.709124
18.220000	3894.661331
18.230000	3699.147731
18.240000	3446.177639
18.250000	3225.803866
18.260000	3088.359700
18.270000	2955.209075
18.280000	2774.714309
18.290000	2610.691527
18.300000	2450.948692
18.310000	2301.307034
18.320000	2119.128584
18.330000	1930.518298
18.340000	1814.188247
18.350000	1701.053895
18.360000	1544.702084
18.370000	1298.308561
18.380000	1089.075713
18.390000	937.647314
18.400000	790.617651
18.410000	590.341036
18.420000	376.454985
18.430000	214.462249
18.440000	143.237212
18.450000	129.063692
18.460000	101.593337
18.470000	0.695950
18.480000	-163.860901
18.490000	-330.537033
18.500000	-454.373214
18.510000	-466.388332
18.520000	-489.769384
18.530000	-562.032136
18.540000	-695.128234
18.550000	-893.693825
18.560000	-1289.546120
18.570000	-1993.679789
18.580000	-2885.715053
18.590000	-3721.383744
18.600000	-4427.082701
18.610000	-5008.373463
18.620000	-5403.338351
18.630000	-5664.756522
18.640000	-5723.676255
18.650000	-5425.659632
18.660000	-4985.788800
18.670000	-4706.233173
18.680000	-4696.809085
18.690000	-4723.302642
18.700000	-4627.817900
18.710000	-4422.623119
18.720000	-4038.056686
18.730000	-3675.146727
18.740000	-3611.971396
18.750000	-3830.325483
18.760000	-4155.930939
18.770000	-5016.636087
18.780000	-7430.661252
18.790000	-11839.180801
18.800000	-21087.840071
18.810000	-37132.231308
18.820000	-51879.471162
18.830000	-56053.922776
18.840000	-58407.544540
18.850000	-58674.113374
18.860000	-56508.331751
18.870000	-52355.988426
18.880000	-47586.718256
18.890000	-43161.376130
18.900000	-39493.102756
18.910000	-36433.944462
18.920000	-33912.456892
18.930000	-31046.097610
18.940000	-28360.208043
18.950000	-26248.419842
18.960000	-24718.430519
18.970000	-23367.813937
18.980000	-21801.538412
18.990000	-20327.336655
19.000000	-18911.239396
19.010000	-17946.898506
19.020000	-17037.299642
19.030000	-16714.876836
19.040000	-16486.071613
19.050000	-17026.929835
19.060000	-17761.265630
19.070000	-19306.454795
19.080000	-20805.268876
19.090000	-21049.027555
19.100000	-8419.567577
19.110000	-5688.990209
19.120000	-4045.862105
19.130000	-3048.555155
19.140000	-1676.838240
19.150000	-623.340252
19.160000	715.565262
19.170000	1698.609864
19.180000	2752.056935
19.190000	3434.668472
19.200000	4092.537247
19.210000	4496.976256
19.220000	4957.659046
19.230000	5307.472310
19.240000	5715.871327
19.250000	6088.411186
19.260000	6569.909943
19.270000	6956.563229
19.280000	7077.878869
19.290000	5869.433595
19.300000	4586.393678
19.310000	3383.457741
19.320000	3283.804772
19.330000	3305.152621
19.340000	3484.863198
19.350000	3760.421214
19.360000	3956.126664
19.370000	3963.391233
19.380000	3814.963252
19.390000	3679.253263
19.400000	3698.916288
19.410000	3842.826271
19.420000	3726.755522
19.430000	3481.671364
19.440000	3302.294612
19.450000	3371.676826
19.460000	3362.625676
19.470000	3172.159120
19.480000	3021.041225
19.490000	3045.271476
19.500000	3200.826095
19.510000	3312.554995
19.520000	3451.820198
19.530000	3625.527820
19.540000	3866.419081
19.550000	3997.124844
19.560000	3976.260177
19.570000	3932.391456
19.580000	3985.280616
19.590000	4336.085853
19.600000	4747.969634
19.610000	5054.178289
19.620000	5106.582640
19.630000	4983.098333
19.640000	4853.321441
19.650000	4668.961119
19.660000	4474.857716
19.670000	4313.693463
19.680000	4204.872650
19.690000	4158.944490
19.700000	4145.317977
19.710000	4156.469286
19.720000	4120.798059
19.730000	3917.403060
19.740000	3524.428177
19.750000	3080.990547
19.760000	2783.761525
19.770000	2676.703974
19.780000	2576.683355
19.790000	2381.853058
19.800000	2131.538808
19.810000	1976.520950
19.820000	1902.486969
19.830000	1803.149152
19.840000	1639.499612
19.850000	1468.253377
19.860000	1389.845523
19.870000	1388.585240
19.880000	1290.637056
19.890000	826.395609
