Time(s)	GREEN_denoised_wiener
0.000000	483.256331
0.010000	698.924674
0.020000	630.751413
0.030000	536.903854
0.040000	426.348951
0.050000	310.915762
0.060000	170.883537
0.070000	1.992669
0.080000	-163.794362
0.090000	-296.916830
0.100000	-424.609232
0.110000	-565.785625
0.120000	-721.357976
0.130000	-836.485776
0.140000	-904.892417
0.150000	-943.235722
0.160000	-992.147327
0.170000	-1074.258666
0.180000	-1184.315894
0.190000	-1301.229497
0.200000	-1397.793503
0.210000	-1446.192283
0.220000	-1469.071116
0.230000	-1452.383472
0.240000	-1450.867928
0.250000	-1427.988664
0.260000	-1409.501602
0.270000	-1359.090210
0.280000	-1326.706786
0.290000	-1500.908061
0.300000	-1710.928390
0.310000	-1900.711998
0.320000	-1903.183788
0.330000	-1888.114169
0.340000	-1898.431535
0.350000	-1902.987938
0.360000	-1918.486743
0.370000	-1925.105052
0.380000	-1949.347147
0.390000	-1967.763861
0.400000	-1983.961687
0.410000	-1982.049865
0.420000	-1985.031371
0.430000	-1989.278605
0.440000	-2000.476727
0.450000	-1999.122459
0.460000	-1986.664782
0.470000	-1968.997853
0.480000	-1964.908410
0.490000	-1974.175355
0.500000	-2002.189240
0.510000	-2034.320455
0.520000	-2060.171727
0.530000	-2061.802305
0.540000	-2040.899685
0.550000	-2012.346033
0.560000	-1990.318744
0.570000	-1932.762403
0.580000	-1862.945014
0.590000	-1850.668404
0.600000	-2019.414560
0.610000	-2357.566522
0.620000	-2627.627543
0.630000	-2685.418756
0.640000	-2567.702605
0.650000	-2472.412717
0.660000	-2446.061432
0.670000	-2408.759745
0.680000	-2320.229861
0.690000	-2170.558197
0.700000	-1990.211092
0.710000	-1780.646058
0.720000	-1575.316463
0.730000	-1393.063878
0.740000	-1237.751272
0.750000	-1088.785582
0.760000	-918.872530
0.770000	-764.053223
0.780000	-656.355199
0.790000	-586.580517
0.800000	-500.086375
0.810000	-386.603447
0.820000	-279.645333
0.830000	-212.333261
0.840000	-198.192191
0.850000	-223.697598
0.860000	-268.429353
0.870000	-306.757292
0.880000	-351.482157
0.890000	-392.130238
0.900000	-431.615995
0.910000	-468.870254
0.920000	-537.222738
0.930000	-640.909200
0.940000	-718.695578
0.950000	-745.761143
0.960000	-723.955054
0.970000	-710.144648
0.980000	-710.121758
0.990000	-667.405012
1.000000	-594.860543
1.010000	-546.159443
1.020000	-579.661242
1.030000	-635.304697
1.040000	-666.883101
1.050000	-655.575305
1.060000	-605.886191
1.070000	-676.319739
1.080000	-943.381942
1.090000	-1275.878596
1.100000	-1412.572417
1.110000	-1333.819909
1.120000	-1208.332787
1.130000	-1140.303568
1.140000	-1100.446415
1.150000	-1065.189759
1.160000	-997.577083
1.170000	-884.863211
1.180000	-765.235354
1.190000	-680.267290
1.200000	-671.949704
1.210000	-717.548800
1.220000	-814.775673
1.230000	-912.752583
1.240000	-992.411658
1.250000	-1042.701281
1.260000	-1070.486661
1.270000	-1084.378153
1.280000	-1067.882996
1.290000	-1002.774098
1.300000	-900.752252
1.310000	-785.594146
1.320000	-680.678222
1.330000	-586.074851
1.340000	-495.311092
1.350000	-391.585584
1.360000	-276.720361
1.370000	-156.833550
1.380000	-37.520478
1.390000	71.848985
1.400000	154.934282
1.410000	194.469490
1.420000	200.069871
1.430000	202.755601
1.440000	212.754990
1.450000	219.257047
1.460000	221.741308
1.470000	211.007403
1.480000	175.995081
1.490000	121.406761
1.500000	74.248967
1.510000	43.027301
1.520000	9.033247
1.530000	-50.424818
1.540000	-125.488317
1.550000	-209.949066
1.560000	-284.034920
1.570000	-349.595184
1.580000	-418.672194
1.590000	-485.588828
1.600000	-538.689426
1.610000	-573.331632
1.620000	-626.551207
1.630000	-702.714959
1.640000	-794.444487
1.650000	-879.120354
1.660000	-933.734124
1.670000	-963.333725
1.680000	-988.464062
1.690000	-1035.962264
1.700000	-1077.106099
1.710000	-1091.678998
1.720000	-1040.427477
1.730000	-939.947544
1.740000	-834.556863
1.750000	-776.971134
1.760000	-769.613533
1.770000	-786.649294
1.780000	-825.466262
1.790000	-875.705207
1.800000	-913.681507
1.810000	-934.211128
1.820000	-949.343353
1.830000	-982.815153
1.840000	-1026.650829
1.850000	-1058.111417
1.860000	-1079.760638
1.870000	-1086.118470
1.880000	-1080.962125
1.890000	-1067.523640
1.900000	-1072.293798
1.910000	-1110.296972
1.920000	-1153.239494
1.930000	-1171.131982
1.940000	-1174.696673
1.950000	-1175.034353
1.960000	-1188.902358
1.970000	-1202.251724
1.980000	-1208.862459
1.990000	-1207.549129
2.000000	-1198.893571
2.010000	-1190.933114
2.020000	-1176.615948
2.030000	-1167.768252
2.040000	-1158.689412
2.050000	-1136.649894
2.060000	-1081.809062
2.070000	-997.661245
2.080000	-910.389874
2.090000	-832.032475
2.100000	-764.006798
2.110000	-663.346957
2.120000	-515.099018
2.130000	-345.840399
2.140000	-197.966101
2.150000	-77.966504
2.160000	29.495633
2.170000	117.114210
2.180000	166.863749
2.190000	193.888664
2.200000	219.518300
2.210000	248.888232
2.220000	276.413139
2.230000	300.836230
2.240000	332.275904
2.250000	376.375425
2.260000	427.711898
2.270000	482.857190
2.280000	536.413037
2.290000	582.274365
2.300000	616.056379
2.310000	648.336904
2.320000	685.960521
2.330000	717.286507
2.340000	733.142723
2.350000	746.568503
2.360000	767.588135
2.370000	791.748992
2.380000	803.274125
2.390000	798.902294
2.400000	794.618163
2.410000	792.623004
2.420000	794.566025
2.430000	794.260936
2.440000	811.189860
2.450000	845.785413
2.460000	886.720315
2.470000	918.570940
2.480000	946.579876
2.490000	982.981386
2.500000	1041.048037
2.510000	1138.676976
2.520000	1282.424178
2.530000	1454.578389
2.540000	1618.353743
2.550000	1751.124507
2.560000	1851.948666
2.570000	1917.937727
2.580000	1951.497212
2.590000	1961.039818
2.600000	1957.324521
2.610000	1957.431522
2.620000	1953.020849
2.630000	1960.830853
2.640000	1979.606400
2.650000	2005.829162
2.660000	2036.465014
2.670000	2061.078736
2.680000	2089.651143
2.690000	2118.227977
2.700000	2137.092540
2.710000	2139.656715
2.720000	2120.808691
2.730000	2089.728523
2.740000	2053.790133
2.750000	2016.727004
2.760000	1979.700927
2.770000	1942.992544
2.780000	1912.897437
2.790000	1882.824926
2.800000	1831.655972
2.810000	1745.946663
2.820000	1618.031655
2.830000	1482.451925
2.840000	1331.558711
2.850000	1190.313641
2.860000	1059.619536
2.870000	946.123936
2.880000	863.298183
2.890000	806.817372
2.900000	789.288287
2.910000	770.964897
2.920000	754.993666
2.930000	721.646647
2.940000	670.682531
2.950000	585.880715
2.960000	488.068929
2.970000	398.377623
2.980000	319.666716
2.990000	234.078760
3.000000	160.292206
3.010000	107.012748
3.020000	65.797057
3.030000	20.184062
3.040000	-35.409316
3.050000	-97.026638
3.060000	-175.732276
3.070000	-248.218714
3.080000	-304.167138
3.090000	-346.189648
3.100000	-400.744618
3.110000	-469.837652
3.120000	-565.427440
3.130000	-695.553335
3.140000	-830.418555
3.150000	-942.354176
3.160000	-1012.847894
3.170000	-1056.325646
3.180000	-1084.684200
3.190000	-1107.371382
3.200000	-1133.601259
3.210000	-1162.805374
3.220000	-1188.918738
3.230000	-1222.367228
3.240000	-1256.271630
3.250000	-1287.355622
3.260000	-1312.709202
3.270000	-1301.350942
3.280000	-1268.691899
3.290000	-1216.058956
3.300000	-1175.510709
3.310000	-1147.432002
3.320000	-1126.399241
3.330000	-1125.943089
3.340000	-1147.006145
3.350000	-1184.524250
3.360000	-1218.325078
3.370000	-1242.565236
3.380000	-1262.762622
3.390000	-1277.006822
3.400000	-1260.558724
3.410000	-1211.933784
3.420000	-1162.199309
3.430000	-1127.241026
3.440000	-1103.876390
3.450000	-1076.269264
3.460000	-1058.057051
3.470000	-1056.369126
3.480000	-1064.957330
3.490000	-1080.232843
3.500000	-1099.617118
3.510000	-1123.862619
3.520000	-1143.673052
3.530000	-1152.256515
3.540000	-1150.507495
3.550000	-1144.756221
3.560000	-1134.413957
3.570000	-1120.351091
3.580000	-1107.088394
3.590000	-1097.031555
3.600000	-1083.161796
3.610000	-1057.133330
3.620000	-1024.030474
3.630000	-990.330747
3.640000	-964.997883
3.650000	-934.224269
3.660000	-908.457297
3.670000	-888.182552
3.680000	-867.992711
3.690000	-835.213116
3.700000	-766.925614
3.710000	-682.452031
3.720000	-595.268171
3.730000	-524.465448
3.740000	-467.644143
3.750000	-418.895030
3.760000	-383.476617
3.770000	-358.060209
3.780000	-339.401857
3.790000	-327.326367
3.800000	-317.073735
3.810000	-309.032574
3.820000	-292.474332
3.830000	-267.527862
3.840000	-222.936255
3.850000	-165.498678
3.860000	-106.168860
3.870000	-57.566676
3.880000	-27.815053
3.890000	-3.334338
3.900000	18.750081
3.910000	47.154776
3.920000	67.826743
3.930000	76.244135
3.940000	72.155868
3.950000	65.268245
3.960000	66.395439
3.970000	78.177305
3.980000	91.510156
3.990000	109.025998
4.000000	127.516230
4.010000	142.445108
4.020000	147.090358
4.030000	149.478785
4.040000	158.908697
4.050000	176.731347
4.060000	202.964079
4.070000	229.535725
4.080000	239.235047
4.090000	225.944588
4.100000	210.487346
4.110000	213.593853
4.120000	251.300728
4.130000	306.726668
4.140000	369.372250
4.150000	416.065269
4.160000	448.419086
4.170000	463.966544
4.180000	460.373477
4.190000	439.453040
4.200000	413.597390
4.210000	395.514167
4.220000	374.330266
4.230000	336.809160
4.240000	298.716446
4.250000	278.685635
4.260000	275.287750
4.270000	277.108196
4.280000	282.793483
4.290000	295.115498
4.300000	296.483314
4.310000	282.398731
4.320000	264.791512
4.330000	251.577462
4.340000	235.631528
4.350000	217.684169
4.360000	204.728416
4.370000	198.683213
4.380000	195.715712
4.390000	193.592790
4.400000	192.281790
4.410000	197.089700
4.420000	207.738458
4.430000	230.844737
4.440000	253.046035
4.450000	270.531718
4.460000	279.927109
4.470000	282.470257
4.480000	279.380273
4.490000	277.329167
4.500000	279.729796
4.510000	284.411300
4.520000	283.970087
4.530000	278.418854
4.540000	273.130060
4.550000	271.993873
4.560000	307.272737
4.570000	365.013304
4.580000	429.314648
4.590000	474.242998
4.600000	504.010407
4.610000	516.693453
4.620000	496.238195
4.630000	463.482631
4.640000	436.027709
4.650000	421.815782
4.660000	400.643634
4.670000	366.424631
4.680000	332.884109
4.690000	305.581059
4.700000	290.361920
4.710000	280.940580
4.720000	283.777689
4.730000	293.503755
4.740000	303.425835
4.750000	312.986320
4.760000	321.977339
4.770000	332.711397
4.780000	344.088247
4.790000	355.339350
4.800000	369.444602
4.810000	385.525037
4.820000	405.042232
4.830000	430.615263
4.840000	459.860657
4.850000	495.955135
4.860000	538.236083
4.870000	585.861896
4.880000	637.844986
4.890000	688.322304
4.900000	746.395186
4.910000	811.322363
4.920000	889.197324
4.930000	972.852310
4.940000	1062.586087
4.950000	1156.274854
4.960000	1252.876868
4.970000	1356.276428
4.980000	1489.786291
4.990000	1674.169385
5.000000	1937.614259
5.010000	2308.627788
5.020000	2675.287511
5.030000	2955.398555
5.040000	3074.211643
5.050000	3115.501518
5.060000	3124.259067
5.070000	3113.746816
5.080000	3064.445577
5.090000	2923.462532
5.100000	2523.546348
5.110000	1583.615105
5.120000	7.817282
5.130000	-2293.536853
5.140000	-4844.929478
5.150000	-7439.431029
5.160000	-8758.089027
5.170000	-9149.688573
5.180000	-8342.130286
5.190000	-6797.544203
5.200000	-4555.529785
5.210000	-2979.722880
5.220000	-1587.414224
5.230000	-371.465169
5.240000	641.621778
5.250000	1507.043949
5.260000	2409.165230
5.270000	3367.991772
5.280000	4218.089365
5.290000	4827.254073
5.300000	5235.041638
5.310000	5533.215977
5.320000	5752.047684
5.330000	5867.584715
5.340000	5921.790256
5.350000	5872.276955
5.360000	5752.963908
5.370000	5554.404536
5.380000	5416.434939
5.390000	5398.197394
5.400000	5429.436989
5.410000	5415.475734
5.420000	5153.026074
5.430000	4445.657656
5.440000	3253.041225
5.450000	1566.836286
5.460000	-150.170249
5.470000	-1851.179392
5.480000	-3308.355611
5.490000	-4428.347047
5.500000	-5117.944905
5.510000	-5446.775863
5.520000	-5510.201649
5.530000	-5448.115616
5.540000	-5266.546606
5.550000	-5041.102910
5.560000	-4847.014146
5.570000	-4713.755314
5.580000	-4635.509321
5.590000	-4599.847886
5.600000	-4613.515880
5.610000	-4638.276002
5.620000	-4670.744262
5.630000	-4735.239945
5.640000	-4841.392315
5.650000	-4958.887785
5.660000	-5069.868403
5.670000	-5188.751621
5.680000	-5286.352243
5.690000	-5333.743807
5.700000	-5316.002277
5.710000	-5252.290748
5.720000	-5169.467944
5.730000	-5063.881716
5.740000	-4936.741423
5.750000	-4778.905314
5.760000	-4599.860362
5.770000	-4391.340985
5.780000	-4163.490537
5.790000	-3932.587327
5.800000	-3720.262351
5.810000	-3548.628356
5.820000	-3409.076219
5.830000	-3308.504791
5.840000	-3219.254337
5.850000	-3126.542096
5.860000	-3022.576807
5.870000	-2930.789932
5.880000	-2874.690541
5.890000	-2838.052607
5.900000	-2791.558528
5.910000	-2711.787907
5.920000	-2623.013472
5.930000	-2538.615439
5.940000	-2471.923258
5.950000	-2412.164572
5.960000	-2344.943694
5.970000	-2269.203729
5.980000	-2197.119965
5.990000	-2135.346638
6.000000	-2083.394941
6.010000	-2042.278058
6.020000	-2011.449403
6.030000	-1981.969565
6.040000	-1937.933894
6.050000	-1886.172017
6.060000	-1828.184918
6.070000	-1779.861140
6.080000	-1743.511780
6.090000	-1714.644001
6.100000	-1681.931585
6.110000	-1641.558474
6.120000	-1613.527056
6.130000	-1589.504624
6.140000	-1557.554706
6.150000	-1495.530707
6.160000	-1408.765028
6.170000	-1318.038967
6.180000	-1234.053280
6.190000	-1161.301657
6.200000	-1096.758210
6.210000	-1044.019045
6.220000	-997.206135
6.230000	-948.165029
6.240000	-907.807099
6.250000	-884.737839
6.260000	-873.134071
6.270000	-849.025585
6.280000	-805.271180
6.290000	-754.463910
6.300000	-702.151106
6.310000	-653.997177
6.320000	-613.786269
6.330000	-586.292677
6.340000	-555.790412
6.350000	-513.030354
6.360000	-459.246836
6.370000	-413.573107
6.380000	-368.719027
6.390000	-319.542523
6.400000	-277.322838
6.410000	-246.913224
6.420000	-215.295580
6.430000	-165.356442
6.440000	-105.421035
6.450000	-45.887274
6.460000	17.078266
6.470000	85.831094
6.480000	154.810007
6.490000	220.476793
6.500000	284.812938
6.510000	353.055051
6.520000	418.373937
6.530000	490.938791
6.540000	561.808826
6.550000	634.450566
6.560000	699.804181
6.570000	758.584967
6.580000	803.708127
6.590000	828.986081
6.600000	839.575040
6.610000	846.001311
6.620000	853.694873
6.630000	859.260098
6.640000	870.447325
6.650000	883.757530
6.660000	896.138076
6.670000	893.830153
6.680000	886.832862
6.690000	876.819540
6.700000	877.835435
6.710000	887.037183
6.720000	894.761416
6.730000	889.526129
6.740000	873.000635
6.750000	848.631221
6.760000	817.512135
6.770000	782.687880
6.780000	757.666048
6.790000	748.338089
6.800000	750.741487
6.810000	757.260972
6.820000	757.760151
6.830000	750.825405
6.840000	740.411923
6.850000	732.681690
6.860000	724.324230
6.870000	729.205793
6.880000	752.166471
6.890000	790.330842
6.900000	824.586994
6.910000	845.105000
6.920000	852.326744
6.930000	851.851730
6.940000	840.668638
6.950000	819.568748
6.960000	789.638564
6.970000	759.267084
6.980000	724.202400
6.990000	683.938365
7.000000	644.413952
7.010000	610.570942
7.020000	591.936148
7.030000	581.122459
7.040000	583.459339
7.050000	588.931904
7.060000	593.967632
7.070000	592.703127
7.080000	586.464401
7.090000	572.098100
7.100000	552.949056
7.110000	526.447514
7.120000	503.107644
7.130000	483.073753
7.140000	470.917671
7.150000	465.992237
7.160000	462.353696
7.170000	460.569781
7.180000	460.095132
7.190000	462.127870
7.200000	461.796274
7.210000	461.349179
7.220000	459.799472
7.230000	458.221038
7.240000	444.745957
7.250000	435.482507
7.260000	438.650816
7.270000	468.741841
7.280000	510.455091
7.290000	543.636344
7.300000	561.277899
7.310000	571.221313
7.320000	579.746686
7.330000	573.737190
7.340000	553.570632
7.350000	528.596377
7.360000	517.071617
7.370000	504.685922
7.380000	490.262380
7.390000	481.119737
7.400000	486.446439
7.410000	503.843774
7.420000	514.240639
7.430000	519.281190
7.440000	519.689339
7.450000	517.713698
7.460000	511.117164
7.470000	505.493026
7.480000	501.524014
7.490000	500.600675
7.500000	496.236132
7.510000	492.732049
7.520000	494.610135
7.530000	498.503554
7.540000	502.985111
7.550000	502.927722
7.560000	500.376450
7.570000	503.031257
7.580000	505.395884
7.590000	511.158188
7.600000	515.390321
7.610000	521.975143
7.620000	525.358485
7.630000	521.797206
7.640000	516.685697
7.650000	506.261883
7.660000	487.015171
7.670000	451.384146
7.680000	421.762769
7.690000	414.492769
7.700000	442.838695
7.710000	475.817103
7.720000	501.638372
7.730000	513.827522
7.740000	525.162871
7.750000	527.118487
7.760000	521.722530
7.770000	514.425467
7.780000	508.951170
7.790000	502.054132
7.800000	491.523912
7.810000	485.051682
7.820000	482.082791
7.830000	487.740704
7.840000	487.931853
7.850000	489.163021
7.860000	490.437437
7.870000	499.954806
7.880000	505.565080
7.890000	502.779325
7.900000	504.753280
7.910000	512.583216
7.920000	522.942223
7.930000	522.038316
7.940000	508.178071
7.950000	497.222359
7.960000	493.062155
7.970000	500.423522
7.980000	504.908920
7.990000	506.346001
8.000000	505.106463
8.010000	509.640321
8.020000	515.953176
8.030000	520.285665
8.040000	518.482875
8.050000	511.295576
8.060000	503.708983
8.070000	494.974869
8.080000	487.295335
8.090000	477.993244
8.100000	469.916353
8.110000	460.015249
8.120000	447.898163
8.130000	445.758979
8.140000	462.558580
8.150000	508.193090
8.160000	556.808941
8.170000	601.367329
8.180000	639.427365
8.190000	671.238037
8.200000	695.063060
8.210000	698.435634
8.220000	691.450718
8.230000	683.989603
8.240000	679.845573
8.250000	673.208067
8.260000	663.947186
8.270000	658.135000
8.280000	667.088248
8.290000	676.349791
8.300000	685.292877
8.310000	686.237722
8.320000	693.250002
8.330000	699.427754
8.340000	700.574497
8.350000	697.993077
8.360000	692.257419
8.370000	692.609538
8.380000	683.232410
8.390000	670.314230
8.400000	654.887925
8.410000	642.058341
8.420000	630.554380
8.430000	622.841378
8.440000	616.904064
8.450000	618.006816
8.460000	625.600388
8.470000	640.873162
8.480000	659.644962
8.490000	675.095440
8.500000	694.758995
8.510000	716.989381
8.520000	742.911026
8.530000	766.561084
8.540000	788.779133
8.550000	801.472475
8.560000	814.393968
8.570000	824.379587
8.580000	845.420600
8.590000	877.947609
8.600000	922.479100
8.610000	968.517132
8.620000	1018.605303
8.630000	1064.756403
8.640000	1100.768530
8.650000	1115.347247
8.660000	1118.689781
8.670000	1118.630693
8.680000	1121.639795
8.690000	1128.932301
8.700000	1132.263161
8.710000	1130.285589
8.720000	1124.928317
8.730000	1132.043300
8.740000	1135.538631
8.750000	1136.882172
8.760000	1123.142360
8.770000	1104.818388
8.780000	1080.747064
8.790000	1054.467202
8.800000	1022.699396
8.810000	990.171026
8.820000	965.027459
8.830000	948.221422
8.840000	924.677805
8.850000	892.340519
8.860000	860.726179
8.870000	831.470842
8.880000	795.778727
8.890000	755.997881
8.900000	719.210329
8.910000	694.897501
8.920000	672.285558
8.930000	658.211347
8.940000	650.033871
8.950000	653.246571
8.960000	655.097693
8.970000	657.019621
8.980000	658.855929
8.990000	647.121412
9.000000	624.022512
9.010000	596.601631
9.020000	596.956285
9.030000	617.003086
9.040000	645.579748
9.050000	667.758896
9.060000	678.595202
9.070000	681.568962
9.080000	667.607160
9.090000	642.784814
9.100000	597.941315
9.110000	548.097650
9.120000	494.267418
9.130000	437.774941
9.140000	378.619998
9.150000	331.856872
9.160000	306.318622
9.170000	299.938503
9.180000	291.326981
9.190000	229.635193
9.200000	160.964089
9.210000	102.949335
9.220000	99.702713
9.230000	96.687823
9.240000	84.928255
9.250000	81.860467
9.260000	84.459033
9.270000	95.744311
9.280000	100.634511
9.290000	102.706979
9.300000	98.818931
9.310000	93.718544
9.320000	88.687542
9.330000	80.411016
9.340000	76.613161
9.350000	90.478327
9.360000	134.897636
9.370000	193.491391
9.380000	251.211734
9.390000	300.550948
9.400000	344.580490
9.410000	377.611860
9.420000	392.303266
9.430000	398.411442
9.440000	395.021582
9.450000	402.293562
9.460000	404.666245
9.470000	412.604758
9.480000	417.950484
9.490000	425.976703
9.500000	442.593454
9.510000	457.661341
9.520000	474.630312
9.530000	481.994584
9.540000	485.069502
9.550000	489.685153
9.560000	494.845633
9.570000	503.074183
9.580000	501.601662
9.590000	498.207988
9.600000	495.698796
9.610000	494.690308
9.620000	502.836213
9.630000	510.813376
9.640000	520.692050
9.650000	532.952286
9.660000	544.558187
9.670000	558.126421
9.680000	572.098963
9.690000	588.329100
9.700000	611.332625
9.710000	630.843147
9.720000	649.620426
9.730000	664.358618
9.740000	672.595010
9.750000	680.916459
9.760000	678.873359
9.770000	679.221630
9.780000	684.139284
9.790000	705.235698
9.800000	735.703980
9.810000	763.584654
9.820000	781.630342
9.830000	787.294926
9.840000	779.575687
9.850000	770.722678
9.860000	762.506327
9.870000	766.190243
9.880000	768.716895
9.890000	792.434763
9.900000	812.142888
9.910000	815.727559
9.920000	738.770521
9.930000	510.013164
9.940000	40.694639
9.950000	-893.729994
9.960000	-2325.936299
9.970000	-4708.080392
9.980000	-6506.811448
9.990000	-7311.400476
10.000000	-7496.652491
10.010000	-7357.126104
10.020000	-6931.168556
10.030000	-6192.332127
10.040000	-5247.041414
10.050000	-4055.571709
10.060000	-2667.151642
10.070000	-1291.025865
10.080000	-47.494807
10.090000	1046.852456
10.100000	1965.981616
10.110000	2708.975760
10.120000	3300.536301
10.130000	3780.816059
10.140000	4134.279226
10.150000	4332.963372
10.160000	4444.291878
10.170000	4527.094728
10.180000	4609.561229
10.190000	4668.091214
10.200000	4670.146559
10.210000	4644.262430
10.220000	4606.370692
10.230000	4561.409938
10.240000	4506.245511
10.250000	4382.745598
10.260000	4160.535420
10.270000	3788.696641
10.280000	3254.936153
10.290000	2515.231510
10.300000	1664.722959
10.310000	732.922840
10.320000	-266.530943
10.330000	-1320.384491
10.340000	-2410.436031
10.350000	-3483.594605
10.360000	-4457.593420
10.370000	-5232.087979
10.380000	-5789.310980
10.390000	-6183.780352
10.400000	-6412.538206
10.410000	-6470.468019
10.420000	-6435.327931
10.430000	-6370.451230
10.440000	-6301.349185
10.450000	-6221.014073
10.460000	-6156.466347
10.470000	-6092.129158
10.480000	-6004.564576
10.490000	-5900.663586
10.500000	-5789.671993
10.510000	-5671.842674
10.520000	-5533.410204
10.530000	-5382.417525
10.540000	-5229.825493
10.550000	-5067.274872
10.560000	-4895.267144
10.570000	-4731.180363
10.580000	-4574.995871
10.590000	-4390.989011
10.600000	-4159.770364
10.610000	-3903.913459
10.620000	-3648.217800
10.630000	-3408.813852
10.640000	-3183.614524
10.650000	-2998.122223
10.660000	-2874.333343
10.670000	-2797.327093
10.680000	-2721.966550
10.690000	-2612.888988
10.700000	-2486.070392
10.710000	-2373.824817
10.720000	-2292.458744
10.730000	-2209.287297
10.740000	-2113.902209
10.750000	-2004.767446
10.760000	-1907.078418
10.770000	-1823.176827
10.780000	-1745.552234
10.790000	-1666.910790
10.800000	-1580.684673
10.810000	-1499.352993
10.820000	-1424.107992
10.830000	-1347.091496
10.840000	-1239.460767
10.850000	-1097.552173
10.860000	-946.210779
10.870000	-820.024454
10.880000	-733.890791
10.890000	-668.720032
10.900000	-612.572980
10.910000	-551.725799
10.920000	-498.307149
10.930000	-447.665664
10.940000	-408.390413
10.950000	-384.906026
10.960000	-374.431690
10.970000	-383.482258
10.980000	-400.065004
10.990000	-453.814888
11.000000	-547.265139
11.010000	-704.179610
11.020000	-914.344921
11.030000	-1152.140837
11.040000	-1373.344944
11.050000	-1528.391224
11.060000	-1616.114239
11.070000	-1646.641458
11.080000	-1645.560643
11.090000	-1619.473328
11.100000	-1579.318538
11.110000	-1535.268456
11.120000	-1484.672353
11.130000	-1423.356304
11.140000	-1361.026952
11.150000	-1299.718153
11.160000	-1233.319996
11.170000	-1147.015962
11.180000	-1052.310928
11.190000	-970.632333
11.200000	-898.858116
11.210000	-823.509641
11.220000	-726.347303
11.230000	-613.407723
11.240000	-500.483065
11.250000	-407.937153
11.260000	-344.872364
11.270000	-308.717996
11.280000	-289.858121
11.290000	-283.125866
11.300000	-279.446952
11.310000	-272.821649
11.320000	-265.002204
11.330000	-258.129289
11.340000	-251.492740
11.350000	-228.669208
11.360000	-198.995119
11.370000	-168.139131
11.380000	-143.775401
11.390000	-121.513963
11.400000	-102.507935
11.410000	-87.156067
11.420000	-73.502326
11.430000	-57.727023
11.440000	-46.458363
11.450000	-37.204861
11.460000	-21.996929
11.470000	-3.307934
11.480000	14.864788
11.490000	26.321768
11.500000	37.501060
11.510000	51.015163
11.520000	76.231106
11.530000	105.738721
11.540000	138.388946
11.550000	171.536455
11.560000	209.645618
11.570000	261.426173
11.580000	310.247365
11.590000	358.116105
11.600000	406.932191
11.610000	472.929793
11.620000	569.026638
11.630000	685.768440
11.640000	807.859117
11.650000	919.694652
11.660000	1008.789569
11.670000	1079.423979
11.680000	1124.780929
11.690000	1157.967062
11.700000	1183.508730
11.710000	1213.291330
11.720000	1250.307372
11.730000	1281.668199
11.740000	1319.271256
11.750000	1362.107720
11.760000	1419.696416
11.770000	1470.896314
11.780000	1507.925797
11.790000	1544.178165
11.800000	1583.899379
11.810000	1621.202393
11.820000	1648.305508
11.830000	1670.367447
11.840000	1689.810259
11.850000	1699.613549
11.860000	1698.438432
11.870000	1701.346671
11.880000	1713.147901
11.890000	1736.183271
11.900000	1763.609862
11.910000	1785.122191
11.920000	1804.222346
11.930000	1813.143520
11.940000	1815.647270
11.950000	1807.591320
11.960000	1795.216284
11.970000	1786.493495
11.980000	1792.577698
11.990000	1805.126467
12.000000	1817.060946
12.010000	1837.255624
12.020000	1864.302310
12.030000	1894.498819
12.040000	1908.622020
12.050000	1906.917084
12.060000	1899.424176
12.070000	1881.417605
12.080000	1859.714770
12.090000	1840.039098
12.100000	1823.116180
12.110000	1813.462767
12.120000	1804.613063
12.130000	1795.360382
12.140000	1790.920941
12.150000	1783.683294
12.160000	1778.724696
12.170000	1769.769871
12.180000	1764.027473
12.190000	1761.632803
12.200000	1756.776825
12.210000	1747.636694
12.220000	1732.323102
12.230000	1721.472516
12.240000	1717.645133
12.250000	1713.746822
12.260000	1703.768866
12.270000	1689.842582
12.280000	1675.027947
12.290000	1665.747396
12.300000	1658.727225
12.310000	1655.131563
12.320000	1649.542580
12.330000	1641.998516
12.340000	1626.810308
12.350000	1600.339497
12.360000	1575.926684
12.370000	1568.152838
12.380000	1578.476231
12.390000	1596.068565
12.400000	1612.502081
12.410000	1628.145062
12.420000	1638.986067
12.430000	1625.315487
12.440000	1584.988879
12.450000	1522.976226
12.460000	1455.827786
12.470000	1388.075084
12.480000	1317.452652
12.490000	1260.363331
12.500000	1220.514240
12.510000	1198.782200
12.520000	1179.669381
12.530000	1162.045847
12.540000	1146.969293
12.550000	1127.426195
12.560000	1106.101478
12.570000	1078.258554
12.580000	1053.411952
12.590000	1025.520749
12.600000	995.547626
12.610000	962.249582
12.620000	930.840457
12.630000	905.782492
12.640000	890.269326
12.650000	880.435577
12.660000	874.510211
12.670000	869.892677
12.680000	871.578278
12.690000	901.536069
12.700000	922.957926
12.710000	936.756086
12.720000	927.097943
12.730000	921.568377
12.740000	920.970750
12.750000	913.151413
12.760000	905.704107
12.770000	891.500298
12.780000	877.950315
12.790000	868.644907
12.800000	866.333717
12.810000	862.899124
12.820000	853.198023
12.830000	835.301510
12.840000	817.228930
12.850000	805.171414
12.860000	803.393676
12.870000	809.829647
12.880000	819.689905
12.890000	833.307487
12.900000	851.125213
12.910000	874.927689
12.920000	899.011858
12.930000	917.686381
12.940000	933.392514
12.950000	951.925838
12.960000	970.220254
12.970000	984.969256
12.980000	989.175672
12.990000	991.861007
13.000000	999.595208
13.010000	1005.854152
13.020000	1012.508327
13.030000	1017.974836
13.040000	1041.950070
13.050000	1076.155347
13.060000	1115.537145
13.070000	1144.777275
13.080000	1161.295278
13.090000	1165.877646
13.100000	1161.528482
13.110000	1151.113059
13.120000	1136.560972
13.130000	1122.490808
13.140000	1106.709459
13.150000	1089.008461
13.160000	1073.671143
13.170000	1066.330414
13.180000	1067.418862
13.190000	1072.773114
13.200000	1080.639618
13.210000	1084.000815
13.220000	1081.007059
13.230000	1072.033476
13.240000	1058.509264
13.250000	1037.853338
13.260000	1022.851564
13.270000	1011.764192
13.280000	998.980446
13.290000	981.813276
13.300000	962.920522
13.310000	944.323434
13.320000	924.981311
13.330000	911.316174
13.340000	902.818103
13.350000	889.744882
13.360000	871.808463
13.370000	857.992931
13.380000	853.916387
13.390000	855.674562
13.400000	850.793433
13.410000	840.853706
13.420000	825.122612
13.430000	817.531186
13.440000	813.859569
13.450000	806.656985
13.460000	788.386373
13.470000	775.972942
13.480000	779.015572
13.490000	797.049987
13.500000	816.396739
13.510000	829.598586
13.520000	832.908758
13.530000	823.269260
13.540000	806.899291
13.550000	788.722255
13.560000	763.647708
13.570000	735.985960
13.580000	705.835611
13.590000	681.723361
13.600000	671.137365
13.610000	666.201415
13.620000	666.241232
13.630000	660.099151
13.640000	656.848612
13.650000	647.728651
13.660000	631.590442
13.670000	616.496451
13.680000	599.080004
13.690000	581.725289
13.700000	559.327018
13.710000	533.416486
13.720000	509.027223
13.730000	481.189884
13.740000	461.883085
13.750000	444.019453
13.760000	429.204118
13.770000	416.616415
13.780000	405.966754
13.790000	394.646569
13.800000	385.850973
13.810000	383.450302
13.820000	388.832844
13.830000	397.007055
13.840000	409.602849
13.850000	420.979859
13.860000	420.461109
13.870000	412.428843
13.880000	408.439956
13.890000	429.002688
13.900000	461.427288
13.910000	500.028157
13.920000	532.160612
13.930000	555.178911
13.940000	562.647395
13.950000	554.109331
13.960000	535.581240
13.970000	508.121452
13.980000	479.962810
13.990000	448.197021
14.000000	416.121497
14.010000	390.040278
14.020000	371.693099
14.030000	368.323453
14.040000	367.635185
14.050000	371.402102
14.060000	373.311233
14.070000	369.242289
14.080000	364.434508
14.090000	355.479582
14.100000	343.657520
14.110000	325.790825
14.120000	310.999831
14.130000	308.186318
14.140000	314.393749
14.150000	322.320042
14.160000	320.191540
14.170000	305.561525
14.180000	294.454859
14.190000	291.184952
14.200000	297.792026
14.210000	304.522056
14.220000	315.579578
14.230000	335.605046
14.240000	356.743473
14.250000	374.106151
14.260000	390.671580
14.270000	409.683222
14.280000	427.989993
14.290000	433.977545
14.300000	440.114342
14.310000	457.674336
14.320000	506.333471
14.330000	562.322790
14.340000	621.677262
14.350000	662.992895
14.360000	703.529404
14.370000	729.646226
14.380000	751.514309
14.390000	762.319532
14.400000	780.300574
14.410000	790.633835
14.420000	799.208115
14.430000	784.269180
14.440000	771.642543
14.450000	749.864212
14.460000	746.579054
14.470000	738.379586
14.480000	745.695749
14.490000	740.821746
14.500000	755.032645
14.510000	750.130507
14.520000	766.976632
14.530000	752.570614
14.540000	756.925222
14.550000	730.458033
14.560000	753.951909
14.570000	764.670483
14.580000	814.678966
14.590000	813.876690
14.600000	850.278622
14.610000	823.280724
14.620000	849.857576
14.630000	794.371791
14.640000	810.277203
14.650000	725.949139
14.660000	730.064692
14.670000	631.527471
14.680000	663.393666
14.690000	597.213881
14.700000	715.166536
14.710000	672.552388
14.720000	825.236530
14.730000	1071.673321
14.740000	1452.735524
14.750000	1034.937841
14.760000	-859.005997
14.770000	-3900.975657
14.780000	-7631.659952
14.790000	-8517.221787
14.800000	2832.794365
14.810000	3836.933599
14.820000	4594.539551
14.830000	4828.954464
14.840000	5223.565563
14.850000	5242.320827
14.860000	5446.298801
14.870000	5338.139715
14.880000	5392.727682
14.890000	5285.453699
14.900000	5356.338614
14.910000	5259.238605
14.920000	5270.012344
14.930000	5072.082961
14.940000	4835.040149
14.950000	4349.570880
14.960000	3823.897764
14.970000	2959.348327
14.980000	1701.415494
14.990000	-426.578857
15.000000	-2821.897992
15.010000	-4628.344009
15.020000	-5857.881789
15.030000	-6564.191972
15.040000	-6710.383617
15.050000	-6637.765367
15.060000	-6478.975562
15.070000	-6382.379712
15.080000	-6239.193447
15.090000	-6132.855327
15.100000	-5966.249797
15.110000	-5882.325684
15.120000	-5747.884050
15.130000	-5672.132466
15.140000	-5512.832562
15.150000	-5431.111538
15.160000	-5242.505121
15.170000	-5105.038656
15.180000	-4839.593157
15.190000	-4153.084688
15.200000	-1889.717696
15.210000	-1316.575622
15.220000	-1216.536282
15.230000	-1218.508007
15.240000	-1148.362683
15.250000	-1158.683833
15.260000	-1108.730155
15.270000	-1119.592779
15.280000	-1080.809554
15.290000	-1095.436660
15.300000	-1063.346631
15.310000	-1077.493832
15.320000	-1063.775082
15.330000	-1088.621093
15.340000	-1081.177790
15.350000	-1096.111640
15.360000	-1088.325564
15.370000	-1106.211901
15.380000	-1108.580759
15.390000	-1131.545131
15.400000	-1145.342850
15.410000	-1178.058908
15.420000	-1204.313594
15.430000	-1233.357121
15.440000	-1224.169406
15.450000	-1184.813760
15.460000	-1115.026429
15.470000	-1049.724903
15.480000	-990.817788
15.490000	-961.386309
15.500000	-951.210232
15.510000	-965.783860
15.520000	-981.883879
15.530000	-1006.290985
15.540000	-1027.200729
15.550000	-1053.215483
15.560000	-1075.498075
15.570000	-1098.204460
15.580000	-1104.433433
15.590000	-1120.341262
15.600000	-1132.957936
15.610000	-1145.887229
15.620000	-1141.120420
15.630000	-1129.543588
15.640000	-1118.638264
15.650000	-1107.542082
15.660000	-1094.853347
15.670000	-1073.557543
15.680000	-1047.129945
15.690000	-1031.974864
15.700000	-1031.738157
15.710000	-1031.040220
15.720000	-1011.705942
15.730000	-957.812636
15.740000	-886.465596
15.750000	-796.235575
15.760000	-704.311417
15.770000	-614.991738
15.780000	-534.197248
15.790000	-467.783532
15.800000	-404.070977
15.810000	-347.990588
15.820000	-294.955114
15.830000	-250.261585
15.840000	-193.806520
15.850000	-130.304685
15.860000	-43.303962
15.870000	27.125900
15.880000	92.970260
15.890000	190.585210
15.900000	279.327888
15.910000	352.097970
15.920000	362.873032
15.930000	380.219637
15.940000	388.480791
15.950000	382.330045
15.960000	364.738129
15.970000	355.780641
15.980000	353.561412
15.990000	354.853625
16.000000	344.644781
16.010000	316.575910
16.020000	271.707135
16.030000	233.317570
16.040000	207.680870
16.050000	189.986610
16.060000	171.601664
16.070000	159.321986
16.080000	144.102642
16.090000	69.818141
16.100000	11.587244
16.110000	-28.596999
16.120000	-0.172141
16.130000	21.597944
16.140000	25.867473
16.150000	21.802985
16.160000	6.495450
16.170000	-0.976993
16.180000	-10.668937
16.190000	-27.455365
16.200000	-53.538873
16.210000	-73.264517
16.220000	-80.481680
16.230000	-84.830743
16.240000	-94.801967
16.250000	-107.078784
16.260000	-122.849139
16.270000	-139.029875
16.280000	-155.954076
16.290000	-172.024313
16.300000	-194.465493
16.310000	-222.044702
16.320000	-245.671440
16.330000	-264.470697
16.340000	-286.284633
16.350000	-305.576844
16.360000	-319.622705
16.370000	-323.059825
16.380000	-314.689880
16.390000	-300.614107
16.400000	-290.819231
16.410000	-286.863660
16.420000	-278.300942
16.430000	-262.186062
16.440000	-242.186639
16.450000	-224.568330
16.460000	-206.767723
16.470000	-189.679973
16.480000	-171.728799
16.490000	-159.534478
16.500000	-159.743865
16.510000	-159.723512
16.520000	-145.810487
16.530000	-95.609846
16.540000	-25.705682
16.550000	46.112099
16.560000	101.676115
16.570000	135.145699
16.580000	153.036084
16.590000	149.088219
16.600000	135.724472
16.610000	116.616916
16.620000	99.366961
16.630000	77.717292
16.640000	43.948278
16.650000	13.156276
16.660000	-11.895239
16.670000	-21.443378
16.680000	-32.871412
16.690000	-42.710760
16.700000	-60.274594
16.710000	-82.670089
16.720000	-112.084099
16.730000	-145.340628
16.740000	-177.949503
16.750000	-210.752218
16.760000	-242.535903
16.770000	-268.213371
16.780000	-285.858084
16.790000	-289.390446
16.800000	-283.604354
16.810000	-275.300815
16.820000	-265.730048
16.830000	-259.281365
16.840000	-246.880543
16.850000	-230.688102
16.860000	-211.088373
16.870000	-191.833184
16.880000	-172.012708
16.890000	-149.370756
16.900000	-117.990054
16.910000	-81.330693
16.920000	-49.716403
16.930000	-30.011489
16.940000	-10.789751
16.950000	15.232228
16.960000	38.359285
16.970000	48.744337
16.980000	60.509423
16.990000	91.200912
17.000000	158.260794
17.010000	240.151739
17.020000	322.299057
17.030000	385.357021
17.040000	431.664225
17.050000	461.156169
17.060000	473.963513
17.070000	478.244064
17.080000	480.859051
17.090000	487.929512
17.100000	491.649030
17.110000	495.244394
17.120000	502.706670
17.130000	521.500809
17.140000	544.656416
17.150000	568.698336
17.160000	592.209747
17.170000	616.501035
17.180000	638.013802
17.190000	653.902866
17.200000	664.423284
17.210000	667.561783
17.220000	667.446013
17.230000	666.144484
17.240000	660.383233
17.250000	654.343211
17.260000	647.903904
17.270000	644.479958
17.280000	635.319174
17.290000	621.571621
17.300000	603.994116
17.310000	587.267842
17.320000	572.252031
17.330000	562.564799
17.340000	560.098046
17.350000	553.083425
17.360000	539.228954
17.370000	513.185526
17.380000	486.664928
17.390000	462.186920
17.400000	429.991378
17.410000	404.846213
17.420000	392.884299
17.430000	406.445730
17.440000	425.611445
17.450000	444.004919
17.460000	461.277269
17.470000	467.793704
17.480000	460.549379
17.490000	439.177449
17.500000	411.765391
17.510000	387.484486
17.520000	357.184362
17.530000	324.412640
17.540000	287.842476
17.550000	256.955969
17.560000	241.419540
17.570000	225.012928
17.580000	213.641720
17.590000	189.923218
17.600000	164.858769
17.610000	132.369788
17.620000	102.034957
17.630000	69.025867
17.640000	35.813216
17.650000	6.267424
17.660000	-21.175541
17.670000	-49.580958
17.680000	-80.245649
17.690000	-110.505057
17.700000	-144.755470
17.710000	-178.492086
17.720000	-209.024709
17.730000	-226.547728
17.740000	-240.769422
17.750000	-257.347843
17.760000	-269.569469
17.770000	-279.595362
17.780000	-285.113978
17.790000	-297.972229
17.800000	-310.027756
17.810000	-322.465928
17.820000	-345.390951
17.830000	-367.994150
17.840000	-381.853032
17.850000	-370.258980
17.860000	-348.161799
17.870000	-310.228198
17.880000	-276.300170
17.890000	-250.581951
17.900000	-244.218781
17.910000	-250.982853
17.920000	-265.902729
17.930000	-290.162901
17.940000	-312.648820
17.950000	-339.820825
17.960000	-372.810228
17.970000	-406.892967
17.980000	-438.739441
17.990000	-451.692821
18.000000	-465.199136
18.010000	-471.516325
18.020000	-489.162948
18.030000	-510.700858
18.040000	-540.257842
18.050000	-567.946537
18.060000	-594.816067
18.070000	-611.597488
18.080000	-633.542232
18.090000	-719.803253
18.100000	-808.704405
18.110000	-875.879671
18.120000	-859.866500
18.130000	-822.062302
18.140000	-780.010535
18.150000	-727.281761
18.160000	-678.983340
18.170000	-634.561428
18.180000	-605.425827
18.190000	-588.906177
18.200000	-574.283555
18.210000	-540.660573
18.220000	-472.594119
18.230000	-379.922511
18.240000	-292.063476
18.250000	-225.253504
18.260000	-185.276289
18.270000	-160.308544
18.280000	-149.291309
18.290000	-139.771833
18.300000	-133.117399
18.310000	-118.642029
18.320000	-104.101051
18.330000	-89.264102
18.340000	-70.181863
18.350000	-43.328276
18.360000	-5.036791
18.370000	26.105029
18.380000	53.727676
18.390000	74.410443
18.400000	90.733204
18.410000	99.925512
18.420000	99.296403
18.430000	87.334376
18.440000	69.769817
18.450000	53.636913
18.460000	45.130786
18.470000	43.810852
18.480000	47.710290
18.490000	62.561764
18.500000	83.817150
18.510000	120.906427
18.520000	156.739628
18.530000	186.172120
18.540000	192.518394
18.550000	185.397811
18.560000	164.824957
18.570000	142.208735
18.580000	115.314412
18.590000	82.574950
18.600000	32.329358
18.610000	-29.457452
18.620000	-84.402193
18.630000	-116.610872
18.640000	-128.966407
18.650000	-124.211909
18.660000	-143.417466
18.670000	-195.840722
18.680000	-276.277529
18.690000	-322.762601
18.700000	-333.752748
18.710000	-321.505156
18.720000	-343.468430
18.730000	-422.937145
18.740000	-577.284653
18.750000	-776.689876
18.760000	-1112.885323
18.770000	-1650.485605
18.780000	-2445.580274
18.790000	-3534.344540
18.800000	-4984.216461
18.810000	-7254.045999
18.820000	-8056.184329
18.830000	-7881.551601
18.840000	-6731.757002
18.850000	-5188.570183
18.860000	-2690.709953
18.870000	524.930609
18.880000	3077.855371
18.890000	4960.572914
18.900000	6198.520444
18.910000	7051.481662
18.920000	7465.104082
18.930000	7834.871548
18.940000	8002.381478
18.950000	8060.834115
18.960000	7873.575736
18.970000	7675.030537
18.980000	7406.178460
18.990000	7289.881995
19.000000	7116.139459
19.010000	7100.448918
19.020000	6987.019074
19.030000	7025.951234
19.040000	6895.206011
19.050000	6829.527666
19.060000	6360.673082
19.070000	5823.520238
19.080000	4844.403717
19.090000	3607.583484
19.100000	-4612.420577
19.110000	-4803.286213
19.120000	-4778.899514
19.130000	-4505.700795
19.140000	-4421.027877
19.150000	-4141.657260
19.160000	-4016.296185
19.170000	-3748.973375
19.180000	-3643.008103
19.190000	-3459.598743
19.200000	-3409.420029
19.210000	-3270.501875
19.220000	-3221.398627
19.230000	-3103.613062
19.240000	-3035.271289
19.250000	-2897.875793
19.260000	-2780.516020
19.270000	-2643.921670
19.280000	-2538.476448
19.290000	-2175.506166
19.300000	-1844.829347
19.310000	-1539.746897
19.320000	-1520.051861
19.330000	-1489.598731
19.340000	-1463.601254
19.350000	-1428.844524
19.360000	-1387.331477
19.370000	-1318.501026
19.380000	-1248.329174
19.390000	-1180.569782
19.400000	-1131.835768
19.410000	-1098.055586
19.420000	-1079.160826
19.430000	-1064.319566
19.440000	-1055.328568
19.450000	-1060.743695
19.460000	-1075.266758
19.470000	-1088.963833
19.480000	-1088.671721
19.490000	-1093.080662
19.500000	-1093.811761
19.510000	-1099.052630
19.520000	-1093.029167
19.530000	-1096.601930
19.540000	-1100.306856
19.550000	-1118.025778
19.560000	-1121.613054
19.570000	-1132.396287
19.580000	-1135.965374
19.590000	-1009.613790
19.600000	-859.758254
19.610000	-714.427396
19.620000	-712.333344
19.630000	-726.322457
19.640000	-727.322960
19.650000	-722.127952
19.660000	-718.460513
19.670000	-727.087305
19.680000	-733.006232
19.690000	-743.252900
19.700000	-749.656000
19.710000	-766.292182
19.720000	-780.378002
19.730000	-799.199347
19.740000	-811.528666
19.750000	-817.951881
19.760000	-811.137247
19.770000	-801.900657
19.780000	-786.184771
19.790000	-765.009897
19.800000	-730.354032
19.810000	-690.978522
19.820000	-640.294464
19.830000	-587.470463
19.840000	-531.019033
19.850000	-479.804271
19.860000	-429.520894
19.870000	-387.650607
19.880000	-366.516226
19.890000	-239.735947
