Time(s)	GREEN_denoised_wiener
0.000000	259.089697
0.010000	385.019912
0.020000	377.871200
0.030000	375.360782
0.040000	377.323248
0.050000	382.485827
0.060000	386.220185
0.070000	389.079428
0.080000	394.579801
0.090000	403.119219
0.100000	411.384191
0.110000	417.618464
0.120000	411.955022
0.130000	394.600969
0.140000	360.634224
0.150000	317.406509
0.160000	267.088718
0.170000	211.333676
0.180000	154.005862
0.190000	96.711407
0.200000	45.391872
0.210000	1.199800
0.220000	-37.438937
0.230000	-71.185109
0.240000	-100.478094
0.250000	-124.107586
0.260000	-143.065209
0.270000	-160.577924
0.280000	-177.520729
0.290000	-195.926115
0.300000	-209.494512
0.310000	-220.839742
0.320000	-230.670490
0.330000	-240.629834
0.340000	-247.373137
0.350000	-246.624204
0.360000	-243.641942
0.370000	-239.145873
0.380000	-235.120453
0.390000	-227.189434
0.400000	-212.809821
0.410000	-195.789384
0.420000	-178.701202
0.430000	-163.593087
0.440000	-147.450329
0.450000	-129.608014
0.460000	-110.072525
0.470000	-86.821713
0.480000	-59.904537
0.490000	-32.915730
0.500000	-5.262075
0.510000	26.795414
0.520000	64.837865
0.530000	103.283841
0.540000	141.749251
0.550000	175.223616
0.560000	201.465848
0.570000	212.612434
0.580000	210.674265
0.590000	200.808137
0.600000	185.340029
0.610000	167.137328
0.620000	146.798438
0.630000	127.940560
0.640000	112.718787
0.650000	98.530220
0.660000	85.111931
0.670000	72.587513
0.680000	60.303048
0.690000	46.441924
0.700000	23.946952
0.710000	-1.534722
0.720000	-30.959696
0.730000	-61.031900
0.740000	-95.417477
0.750000	-134.384888
0.760000	-174.062160
0.770000	-209.934180
0.780000	-237.905861
0.790000	-261.368361
0.800000	-283.279160
0.810000	-306.332398
0.820000	-327.500447
0.830000	-346.835053
0.840000	-363.917054
0.850000	-380.540183
0.860000	-396.524420
0.870000	-410.772088
0.880000	-423.330672
0.890000	-436.204883
0.900000	-449.660769
0.910000	-460.155609
0.920000	-468.865319
0.930000	-476.633347
0.940000	-485.935372
0.950000	-495.962843
0.960000	-505.865847
0.970000	-513.482357
0.980000	-515.319371
0.990000	-512.206864
1.000000	-508.308247
1.010000	-506.119393
1.020000	-509.827442
1.030000	-524.894165
1.040000	-551.524003
1.050000	-585.180783
1.060000	-620.743548
1.070000	-661.013471
1.080000	-704.141017
1.090000	-747.701657
1.100000	-787.390105
1.110000	-823.592552
1.120000	-853.152320
1.130000	-877.351524
1.140000	-896.433926
1.150000	-912.637903
1.160000	-932.248253
1.170000	-952.086238
1.180000	-972.593473
1.190000	-989.709486
1.200000	-1005.475722
1.210000	-1021.183927
1.220000	-1034.534336
1.230000	-1049.193958
1.240000	-1060.087772
1.250000	-1069.743328
1.260000	-1075.478309
1.270000	-1081.161713
1.280000	-1083.366100
1.290000	-1070.407649
1.300000	-1047.483408
1.310000	-1017.830939
1.320000	-990.465567
1.330000	-967.751182
1.340000	-950.625262
1.350000	-948.876750
1.360000	-949.904026
1.370000	-953.884197
1.380000	-952.672925
1.390000	-955.451755
1.400000	-957.582588
1.410000	-963.555965
1.420000	-964.967932
1.430000	-962.529151
1.440000	-945.832856
1.450000	-919.720499
1.460000	-876.840065
1.470000	-840.170415
1.480000	-801.603303
1.490000	-699.313684
1.500000	-588.194142
1.510000	-481.181545
1.520000	-441.763112
1.530000	-405.202649
1.540000	-360.985880
1.550000	-320.789025
1.560000	-277.995513
1.570000	-242.256639
1.580000	-201.782259
1.590000	-157.260640
1.600000	-103.053186
1.610000	-51.147385
1.620000	-1.123809
1.630000	37.772780
1.640000	69.007825
1.650000	84.495793
1.660000	92.686675
1.670000	97.040795
1.680000	97.859769
1.690000	74.030459
1.700000	51.332360
1.710000	35.469577
1.720000	46.683362
1.730000	57.282754
1.740000	70.291656
1.750000	84.257121
1.760000	104.091476
1.770000	124.043465
1.780000	147.758924
1.790000	215.773503
1.800000	288.382246
1.810000	363.450208
1.820000	399.407954
1.830000	431.181594
1.840000	463.195012
1.850000	488.728041
1.860000	511.523685
1.870000	518.742360
1.880000	516.083899
1.890000	504.591710
1.900000	493.849251
1.910000	480.587970
1.920000	470.488581
1.930000	462.415426
1.940000	461.662675
1.950000	471.087139
1.960000	489.009103
1.970000	506.925413
1.980000	516.207662
1.990000	523.324798
2.000000	540.609136
2.010000	571.219628
2.020000	603.156775
2.030000	621.294157
2.040000	624.932814
2.050000	620.911980
2.060000	619.574878
2.070000	622.696478
2.080000	629.734590
2.090000	636.996803
2.100000	646.100495
2.110000	660.159973
2.120000	680.320179
2.130000	700.830509
2.140000	718.740974
2.150000	729.691034
2.160000	738.046703
2.170000	746.408108
2.180000	763.564594
2.190000	789.630274
2.200000	821.603266
2.210000	858.387429
2.220000	898.504386
2.230000	941.009954
2.240000	985.604913
2.250000	1030.493063
2.260000	1076.912190
2.270000	1118.821648
2.280000	1154.430313
2.290000	1179.676873
2.300000	1194.826891
2.310000	1203.073732
2.320000	1206.755060
2.330000	1203.659042
2.340000	1194.893625
2.350000	1183.785383
2.360000	1176.909700
2.370000	1172.089917
2.380000	1171.139269
2.390000	1171.585509
2.400000	1177.255923
2.410000	1183.260557
2.420000	1188.921148
2.430000	1191.132876
2.440000	1196.149607
2.450000	1199.179304
2.460000	1204.942215
2.470000	1206.064106
2.480000	1214.660175
2.490000	1274.909015
2.500000	1353.704790
2.510000	1440.688865
2.520000	1494.537017
2.530000	1546.875261
2.540000	1606.178688
2.550000	1665.559330
2.560000	1730.394076
2.570000	1791.075759
2.580000	1850.851760
2.590000	1902.771298
2.600000	1951.214471
2.610000	1984.296178
2.620000	2009.504502
2.630000	2025.671476
2.640000	2043.367705
2.650000	2057.544867
2.660000	2071.795679
2.670000	2080.935220
2.680000	2094.806017
2.690000	2142.586446
2.700000	2198.874207
2.710000	2255.158475
2.720000	2283.429887
2.730000	2310.756109
2.740000	2343.803806
2.750000	2376.192106
2.760000	2412.415039
2.770000	2447.141795
2.780000	2485.930069
2.790000	2523.602423
2.800000	2562.673170
2.810000	2598.917991
2.820000	2634.306551
2.830000	2668.099192
2.840000	2704.493021
2.850000	2741.469289
2.860000	2778.890382
2.870000	2818.048776
2.880000	2861.830638
2.890000	2908.152838
2.900000	2951.967327
2.910000	2990.133050
2.920000	3021.312867
2.930000	3040.974682
2.940000	3052.550090
2.950000	3060.354814
2.960000	3068.656161
2.970000	3073.915378
2.980000	3076.975677
2.990000	3082.019375
3.000000	3089.485340
3.010000	3097.650678
3.020000	3106.198235
3.030000	3118.825152
3.040000	3135.766524
3.050000	3152.517581
3.060000	3166.537230
3.070000	3177.746494
3.080000	3189.513136
3.090000	3201.159353
3.100000	3211.682513
3.110000	3222.104756
3.120000	3234.046447
3.130000	3248.908382
3.140000	3266.597664
3.150000	3288.573528
3.160000	3311.659257
3.170000	3335.100935
3.180000	3358.911038
3.190000	3384.486017
3.200000	3410.675468
3.210000	3436.055741
3.220000	3462.299520
3.230000	3488.802702
3.240000	3516.777738
3.250000	3544.055213
3.260000	3572.447371
3.270000	3602.817885
3.280000	3633.287835
3.290000	3664.765483
3.300000	3695.965096
3.310000	3732.239669
3.320000	3769.456833
3.330000	3804.890394
3.340000	3835.118129
3.350000	3857.714098
3.360000	3870.950330
3.370000	3870.698921
3.380000	3858.965789
3.390000	3838.851837
3.400000	3811.138614
3.410000	3777.837159
3.420000	3739.802562
3.430000	3705.001557
3.440000	3669.592176
3.450000	3638.346247
3.460000	3608.516279
3.470000	3586.202197
3.480000	3567.230924
3.490000	3552.556092
3.500000	3538.080647
3.510000	3526.409075
3.520000	3511.051111
3.530000	3498.441630
3.540000	3480.123076
3.550000	3465.998659
3.560000	3446.948456
3.570000	3434.081845
3.580000	3418.855365
3.590000	3349.513407
3.600000	3283.193284
3.610000	3227.271738
3.620000	3235.453377
3.630000	3251.186979
3.640000	3264.632955
3.650000	3280.598399
3.660000	3289.226285
3.670000	3297.842431
3.680000	3297.558534
3.690000	3289.896524
3.700000	3270.320277
3.710000	3248.099309
3.720000	3220.156835
3.730000	3192.433520
3.740000	3162.073808
3.750000	3136.231022
3.760000	3113.400675
3.770000	3098.143377
3.780000	3087.469501
3.790000	3082.494183
3.800000	3080.285517
3.810000	3080.942730
3.820000	3082.516411
3.830000	3083.477340
3.840000	3083.834158
3.850000	3083.425144
3.860000	3084.570062
3.870000	3089.782482
3.880000	3098.370472
3.890000	3116.563096
3.900000	3140.879415
3.910000	3172.088167
3.920000	3202.428615
3.930000	3234.703481
3.940000	3267.357934
3.950000	3301.047792
3.960000	3332.998241
3.970000	3363.451597
3.980000	3387.673530
3.990000	3405.246667
4.000000	3410.377531
4.010000	3407.778116
4.020000	3394.097604
4.030000	3375.036648
4.040000	3350.835553
4.050000	3330.683261
4.060000	3313.907196
4.070000	3302.695766
4.080000	3293.317846
4.090000	3260.334461
4.100000	3240.916799
4.110000	3238.895093
4.120000	3278.248421
4.130000	3318.285897
4.140000	3356.356091
4.150000	3398.703128
4.160000	3445.446003
4.170000	3495.446352
4.180000	3545.523445
4.190000	3587.833582
4.200000	3621.607448
4.210000	3638.517478
4.220000	3638.695719
4.230000	3612.485774
4.240000	3549.423283
4.250000	3429.065045
4.260000	3231.119832
4.270000	2919.232258
4.280000	2418.004683
4.290000	1681.773459
4.300000	758.513056
4.310000	-285.931320
4.320000	-1360.131448
4.330000	-2314.700012
4.340000	-3122.158059
4.350000	-3767.612347
4.360000	-4302.212681
4.370000	-4735.477287
4.380000	-5032.883147
4.390000	-5118.969763
4.400000	-4955.732935
4.410000	-4581.083631
4.420000	-3923.698664
4.430000	-3004.346023
4.440000	-1892.420593
4.450000	-1076.414383
4.460000	-641.547146
4.470000	-691.922112
4.480000	-1011.948374
4.490000	-1518.564046
4.500000	-2139.819936
4.510000	-2946.039493
4.520000	-3828.645814
4.530000	-4652.223150
4.540000	-5335.070710
4.550000	-6045.882224
4.560000	-6590.623210
4.570000	-6826.475307
4.580000	-6535.766231
4.590000	-5788.683214
4.600000	-2863.127121
4.610000	-1907.787320
4.620000	-1202.416740
4.630000	-711.460212
4.640000	-257.088882
4.650000	3.465369
4.660000	163.777336
4.670000	86.603921
4.680000	-69.700207
4.690000	-385.070222
4.700000	-748.146463
4.710000	-1113.421925
4.720000	-1344.174783
4.730000	-1471.068519
4.740000	-1516.351034
4.750000	-1502.890411
4.760000	-1402.563369
4.770000	-1275.800857
4.780000	-1190.644462
4.790000	-1263.026541
4.800000	-1543.732832
4.810000	-2160.986951
4.820000	-3109.490588
4.830000	-4434.316389
4.840000	-5453.343026
4.850000	-6010.633477
4.860000	-6079.670669
4.870000	-5842.352632
4.880000	-5461.150676
4.890000	-5556.203503
4.900000	-5878.119423
4.910000	-6409.236716
4.920000	-6563.742450
4.930000	-6571.393534
4.940000	-6450.002397
4.950000	-6207.410765
4.960000	-5935.382688
4.970000	-5721.976334
4.980000	-5522.960122
4.990000	-4942.343139
5.000000	-3903.492382
5.010000	-3286.173360
5.020000	-3055.405337
5.030000	-2966.457621
5.040000	-2911.491732
5.050000	-2964.815534
5.060000	-2989.239019
5.070000	-3053.649638
5.080000	-3092.529045
5.090000	-3211.534141
5.100000	-3346.267262
5.110000	-3542.304272
5.120000	-3661.084947
5.130000	-3792.622354
5.140000	-3829.615775
5.150000	-3916.555313
5.160000	-3895.574350
5.170000	-3854.756839
5.180000	-3513.113779
5.190000	-3034.108433
5.200000	-2451.895516
5.210000	-2263.329759
5.220000	-2385.685691
5.230000	-2910.966014
5.240000	-3440.731901
5.250000	-4297.395054
5.260000	-5590.796978
5.270000	-6878.033228
5.280000	-7694.827271
5.290000	-7947.412302
5.300000	-782.624668
5.310000	-619.954486
5.320000	-631.972213
5.330000	-915.195494
5.340000	-1045.778307
5.350000	-1404.930840
5.360000	-1689.321883
5.370000	-2271.474526
5.380000	-2884.729704
5.390000	-3736.608130
5.400000	-4417.063271
5.410000	-5021.085171
5.420000	-5269.326025
5.430000	-5429.021771
5.440000	-5380.151102
5.450000	-5330.151310
5.460000	-5117.256580
5.470000	-4903.799652
5.480000	-4549.159444
5.490000	-3865.601885
5.500000	-3003.462967
5.510000	-2354.281806
5.520000	-2084.053328
5.530000	-1935.839291
5.540000	-1797.250588
5.550000	-1749.563241
5.560000	-1634.090643
5.570000	-1542.276710
5.580000	-1406.129281
5.590000	-1327.426910
5.600000	-1233.660280
5.610000	-1208.644797
5.620000	-1185.416079
5.630000	-1234.546622
5.640000	-1286.761206
5.650000	-1384.729919
5.660000	-1453.758557
5.670000	-1505.792978
5.680000	-1440.757245
5.690000	-1306.237824
5.700000	-1096.920725
5.710000	-948.045988
5.720000	-848.660466
5.730000	-839.307225
5.740000	-783.225365
5.750000	-697.303104
5.760000	-567.017114
5.770000	-576.157276
5.780000	-650.748318
5.790000	-198.903537
5.800000	502.830592
5.810000	1054.558974
5.820000	1126.205025
5.830000	1040.694951
5.840000	954.148076
5.850000	817.282680
5.860000	724.835426
5.870000	597.407043
5.880000	474.864761
5.890000	238.442944
5.900000	-91.042477
5.910000	-477.800481
5.920000	-763.935315
5.930000	-931.416207
5.940000	-1000.588886
5.950000	-1052.855466
5.960000	-1085.333970
5.970000	-1148.431252
5.980000	-1233.240131
5.990000	-1354.061921
6.000000	-1468.315005
6.010000	-1574.464072
6.020000	-1655.339477
6.030000	-1702.215736
6.040000	-1708.362856
6.050000	-1684.007831
6.060000	-1634.701000
6.070000	-1557.103529
6.080000	-1455.053940
6.090000	-1369.296061
6.100000	-1310.319635
6.110000	-1259.070334
6.120000	-1193.908141
6.130000	-1120.917688
6.140000	-1071.897884
6.150000	-1034.307540
6.160000	-1008.253645
6.170000	-988.347232
6.180000	-981.976418
6.190000	-1091.981321
6.200000	-1207.444625
6.210000	-1307.528986
6.220000	-1304.395263
6.230000	-1273.191048
6.240000	-1250.908120
6.250000	-1205.664560
6.260000	-1175.279962
6.270000	-1143.323533
6.280000	-1123.402345
6.290000	-1116.616432
6.300000	-1126.867600
6.310000	-1141.532676
6.320000	-1155.021117
6.330000	-1168.135637
6.340000	-1189.532230
6.350000	-1212.365575
6.360000	-1236.063647
6.370000	-1263.608529
6.380000	-1291.580908
6.390000	-1306.828341
6.400000	-1303.120931
6.410000	-1283.744853
6.420000	-1269.045178
6.430000	-1264.625045
6.440000	-1264.608859
6.450000	-1257.159943
6.460000	-1247.557403
6.470000	-1233.679135
6.480000	-1221.532991
6.490000	-1217.871838
6.500000	-1225.168368
6.510000	-1246.069969
6.520000	-1275.119829
6.530000	-1315.630584
6.540000	-1362.052058
6.550000	-1405.854833
6.560000	-1450.355338
6.570000	-1496.076612
6.580000	-1534.305131
6.590000	-1563.657077
6.600000	-1577.245024
6.610000	-1585.289732
6.620000	-1586.491786
6.630000	-1581.599822
6.640000	-1592.134031
6.650000	-1610.501663
6.660000	-1645.158670
6.670000	-1663.295073
6.680000	-1681.323328
6.690000	-1695.370832
6.700000	-1714.193964
6.710000	-1726.395751
6.720000	-1727.421113
6.730000	-1741.169739
6.740000	-1758.896036
6.750000	-1781.641221
6.760000	-1788.982451
6.770000	-1788.860873
6.780000	-1786.063612
6.790000	-1784.080167
6.800000	-1785.812821
6.810000	-1771.239268
6.820000	-1737.277760
6.830000	-1697.780501
6.840000	-1676.104171
6.850000	-1668.916864
6.860000	-1652.208607
6.870000	-1619.435731
6.880000	-1572.670940
6.890000	-1528.662159
6.900000	-1484.412645
6.910000	-1456.609257
6.920000	-1440.428205
6.930000	-1442.921558
6.940000	-1441.360865
6.950000	-1441.978599
6.960000	-1434.579893
6.970000	-1425.077649
6.980000	-1403.419113
6.990000	-1367.863169
7.000000	-1317.925012
7.010000	-1257.991545
7.020000	-1208.470629
7.030000	-1164.378794
7.040000	-1140.398426
7.050000	-1118.002545
7.060000	-1096.368774
7.070000	-1072.614094
7.080000	-1039.319646
7.090000	-1009.942148
7.100000	-967.846551
7.110000	-928.015231
7.120000	-882.300953
7.130000	-850.154632
7.140000	-833.697765
7.150000	-825.590871
7.160000	-797.024575
7.170000	-760.127990
7.180000	-709.624820
7.190000	-589.178906
7.200000	-474.909024
7.210000	-388.399654
7.220000	-385.606696
7.230000	-393.250626
7.240000	-383.413580
7.250000	-379.225869
7.260000	-355.738582
7.270000	-344.673036
7.280000	-323.229545
7.290000	-234.675477
7.300000	-130.331857
7.310000	-38.261371
7.320000	-6.803288
7.330000	19.792439
7.340000	61.314232
7.350000	97.090082
7.360000	134.196835
7.370000	160.023094
7.380000	180.152763
7.390000	192.291723
7.400000	205.831947
7.410000	216.882267
7.420000	229.558757
7.430000	240.812665
7.440000	262.687118
7.450000	277.355021
7.460000	294.251586
7.470000	303.205317
7.480000	307.883079
7.490000	294.704484
7.500000	259.904998
7.510000	226.307362
7.520000	195.900937
7.530000	169.271509
7.540000	138.572723
7.550000	105.628439
7.560000	80.300022
7.570000	59.316618
7.580000	47.082932
7.590000	41.020693
7.600000	40.239432
7.610000	44.763445
7.620000	41.730581
7.630000	36.259503
7.640000	29.247934
7.650000	26.139722
7.660000	21.775049
7.670000	7.382784
7.680000	-8.276379
7.690000	-22.684117
7.700000	-30.946892
7.710000	-37.735689
7.720000	-42.895340
7.730000	-47.080129
7.740000	-50.465910
7.750000	-47.364690
7.760000	-55.055242
7.770000	-62.860940
7.780000	-77.981597
7.790000	-142.406789
7.800000	-226.665182
7.810000	-329.650166
7.820000	-398.826589
7.830000	-460.394990
7.840000	-519.548273
7.850000	-580.420995
7.860000	-655.576641
7.870000	-730.656030
7.880000	-792.891791
7.890000	-843.879023
7.900000	-884.820470
7.910000	-913.038722
7.920000	-925.695489
7.930000	-925.827418
7.940000	-926.878026
7.950000	-923.509533
7.960000	-917.691700
7.970000	-917.819752
7.980000	-934.120244
7.990000	-975.736215
8.000000	-1021.741459
8.010000	-1075.661127
8.020000	-1104.202203
8.030000	-1120.988240
8.040000	-1116.873098
8.050000	-1211.942327
8.060000	-1479.353130
8.070000	-1934.007100
8.080000	-2458.406191
8.090000	-3018.236328
8.100000	-3615.494262
8.110000	-4327.607290
8.120000	-5222.668927
8.130000	-5870.290778
8.140000	-5709.582231
8.150000	-4619.737951
8.160000	-3647.515007
8.170000	-3118.729563
8.180000	-3044.618204
8.190000	-3128.505449
8.200000	-3340.380709
8.210000	-3580.348637
8.220000	-3713.304755
8.230000	-3823.384541
8.240000	-3953.705655
8.250000	-3884.620520
8.260000	-3316.486945
8.270000	-2246.324363
8.280000	-1390.444325
8.290000	-893.214431
8.300000	-667.826023
8.310000	-592.244744
8.320000	-644.061764
8.330000	-817.901060
8.340000	-1056.399409
8.350000	-1305.476551
8.360000	-1557.105830
8.370000	-1818.334516
8.380000	-2062.292278
8.390000	-2240.705650
8.400000	-2388.611590
8.410000	-2534.628613
8.420000	-2648.336939
8.430000	-2705.134461
8.440000	-2714.722112
8.450000	-2789.152386
8.460000	-2931.036324
8.470000	-3087.245496
8.480000	-3199.229222
8.490000	-3221.934541
8.500000	-3185.185231
8.510000	-3087.761020
8.520000	-2966.801188
8.530000	-2787.275741
8.540000	-2589.174839
8.550000	-2416.351217
8.560000	-2346.189214
8.570000	-2365.725639
8.580000	-2443.030372
8.590000	-2723.798569
8.600000	-2938.272859
8.610000	-3260.965858
8.620000	-3771.794725
8.630000	-4780.819580
8.640000	-5823.836440
8.650000	-5915.530566
8.660000	-4615.597562
8.670000	-3702.000745
8.680000	-3142.236088
8.690000	-2778.459428
8.700000	-2472.453388
8.710000	-2329.777869
8.720000	-2415.079992
8.730000	-2655.906212
8.740000	-2887.303771
8.750000	-3068.892691
8.760000	-3172.073966
8.770000	-3228.222671
8.780000	-3239.941950
8.790000	-3212.735448
8.800000	-3169.029239
8.810000	-3129.413984
8.820000	-3132.668572
8.830000	-3166.452142
8.840000	-3184.379008
8.850000	-3133.969401
8.860000	-2824.871149
8.870000	-2268.198241
8.880000	-1613.566441
8.890000	-1110.856368
8.900000	-823.233950
8.910000	-648.209017
8.920000	-583.323504
8.930000	-584.926943
8.940000	-605.879671
8.950000	-522.575488
8.960000	-304.162339
8.970000	73.621687
8.980000	798.342460
8.990000	2257.992163
9.000000	3199.354399
9.010000	3559.532476
9.020000	3311.802877
9.030000	2938.486310
9.040000	2649.047929
9.050000	2676.051736
9.060000	2950.682172
9.070000	3593.690225
9.080000	4441.561427
9.090000	5307.192084
9.100000	5855.239833
9.110000	6021.370538
9.120000	5993.979650
9.130000	5893.928138
9.140000	5839.612593
9.150000	5877.523360
9.160000	5930.476160
9.170000	5910.661521
9.180000	5779.716101
9.190000	5628.062377
9.200000	5443.919348
9.210000	5248.800365
9.220000	4921.644994
9.230000	4546.684459
9.240000	4129.070601
9.250000	3823.564831
9.260000	3566.483107
9.270000	3344.505226
9.280000	2891.457620
9.290000	2072.989026
9.300000	126.991516
9.310000	-239.511653
9.320000	-299.487725
9.330000	-390.886449
9.340000	-622.530578
9.350000	-838.601419
9.360000	-1103.243216
9.370000	-1262.448130
9.380000	-1401.007914
9.390000	-1472.997255
9.400000	-1552.495572
9.410000	-1632.716211
9.420000	-1790.269455
9.430000	-2111.851931
9.440000	-2561.427185
