Time(s)	IR_denoised_wiener
0.000000	-405.177774
0.010000	-571.502327
0.020000	-684.620017
0.030000	-762.179106
0.040000	-801.985286
0.050000	-818.215529
0.060000	-825.666804
0.070000	-827.868747
0.080000	-826.657940
0.090000	-828.515511
0.100000	-830.269868
0.110000	-825.132820
0.120000	-815.554152
0.130000	-816.096884
0.140000	-829.786726
0.150000	-845.000513
0.160000	-852.004107
0.170000	-849.239362
0.180000	-840.883142
0.190000	-829.786942
0.200000	-819.075095
0.210000	-799.612811
0.220000	-776.618215
0.230000	-753.745912
0.240000	-734.472147
0.250000	-714.502076
0.260000	-692.311195
0.270000	-667.906381
0.280000	-640.458305
0.290000	-615.304402
0.300000	-588.222353
0.310000	-563.368375
0.320000	-537.609060
0.330000	-515.763275
0.340000	-499.963874
0.350000	-482.773772
0.360000	-464.982895
0.370000	-441.074949
0.380000	-423.358595
0.390000	-416.663023
0.400000	-404.984231
0.410000	-409.660529
0.420000	-467.291695
0.430000	-597.989236
0.440000	-756.723337
0.450000	-880.773778
0.460000	-948.236240
0.470000	-965.009968
0.480000	-952.429644
0.490000	-929.544335
0.500000	-912.251856
0.510000	-904.683519
0.520000	-901.016862
0.530000	-891.113975
0.540000	-870.099099
0.550000	-854.238258
0.560000	-850.792004
0.570000	-856.635722
0.580000	-863.104360
0.590000	-862.670607
0.600000	-856.073337
0.610000	-842.000055
0.620000	-827.698968
0.630000	-802.914174
0.640000	-771.997065
0.650000	-742.803190
0.660000	-726.268485
0.670000	-721.290256
0.680000	-712.130402
0.690000	-693.101864
0.700000	-664.973223
0.710000	-638.570501
0.720000	-615.085218
0.730000	-592.993541
0.740000	-570.491189
0.750000	-550.055972
0.760000	-523.829282
0.770000	-491.098082
0.780000	-454.135168
0.790000	-418.107270
0.800000	-376.033017
0.810000	-320.406544
0.820000	-265.281134
0.830000	-219.649163
0.840000	-180.118672
0.850000	-154.211382
0.860000	-173.979396
0.870000	-258.359576
0.880000	-373.650394
0.890000	-463.733901
0.900000	-508.373824
0.910000	-515.137984
0.920000	-503.750212
0.930000	-485.805485
0.940000	-473.747511
0.950000	-471.400728
0.960000	-472.334222
0.970000	-462.592377
0.980000	-446.253698
0.990000	-439.098888
1.000000	-449.434854
1.010000	-468.172644
1.020000	-475.868741
1.030000	-469.238096
1.040000	-452.269395
1.050000	-432.927397
1.060000	-415.271721
1.070000	-396.208914
1.080000	-376.897051
1.090000	-355.426125
1.100000	-331.470311
1.110000	-309.934070
1.120000	-288.299006
1.130000	-267.727399
1.140000	-244.722963
1.150000	-219.805930
1.160000	-200.773858
1.170000	-192.148527
1.180000	-187.065988
1.190000	-176.089339
1.200000	-157.985373
1.210000	-139.322408
1.220000	-122.162649
1.230000	-97.795593
1.240000	-60.951851
1.250000	-23.250409
1.260000	7.000024
1.270000	39.075625
1.280000	82.351955
1.290000	100.676961
1.300000	51.754591
1.310000	-47.156655
1.320000	-144.680359
1.330000	-202.958129
1.340000	-230.171927
1.350000	-230.010193
1.360000	-217.289761
1.370000	-199.637644
1.380000	-185.003044
1.390000	-171.498739
1.400000	-151.293425
1.410000	-130.658086
1.420000	-119.185206
1.430000	-128.080232
1.440000	-143.933842
1.450000	-157.437526
1.460000	-165.957452
1.470000	-172.399432
1.480000	-174.890087
1.490000	-167.271142
1.500000	-154.774998
1.510000	-137.716420
1.520000	-112.569186
1.530000	-93.462767
1.540000	-80.242800
1.550000	-74.130965
1.560000	-60.456919
1.570000	-38.755078
1.580000	-19.951972
1.590000	-4.934006
1.600000	9.649474
1.610000	24.298018
1.620000	42.010489
1.630000	56.925665
1.640000	70.813009
1.650000	89.986930
1.660000	119.032499
1.670000	161.467570
1.680000	200.619426
1.690000	226.055493
1.700000	250.360301
1.710000	274.369124
1.720000	261.089171
1.730000	179.792435
1.740000	38.016190
1.750000	-97.193849
1.760000	-186.705921
1.770000	-228.854924
1.780000	-246.734009
1.790000	-261.748763
1.800000	-268.257965
1.810000	-265.559075
1.820000	-253.686270
1.830000	-236.615287
1.840000	-220.354649
1.850000	-212.242389
1.860000	-213.238827
1.870000	-223.098907
1.880000	-235.672255
1.890000	-246.190765
1.900000	-245.992606
1.910000	-235.872285
1.920000	-220.887759
1.930000	-201.436833
1.940000	-179.682990
1.950000	-156.559295
1.960000	-132.704771
1.970000	-103.226652
1.980000	-79.330252
1.990000	-68.108261
2.000000	-67.823088
2.010000	-59.165943
2.020000	-39.919929
2.030000	-13.127860
2.040000	7.732055
2.050000	25.733779
2.060000	40.820808
2.070000	54.712940
2.080000	71.028025
2.090000	86.453589
2.100000	105.705088
2.110000	124.952504
2.120000	147.517469
2.130000	161.525964
2.140000	185.864556
2.150000	219.495523
2.160000	223.559187
2.170000	155.908079
2.180000	28.521775
2.190000	-95.084594
2.200000	-180.140764
2.210000	-231.732312
2.220000	-256.017896
2.230000	-253.910002
2.240000	-231.787154
2.250000	-202.983306
2.260000	-185.779239
2.270000	-173.530118
2.280000	-153.963897
2.290000	-134.672241
2.300000	-130.374946
2.310000	-145.659405
2.320000	-164.601917
2.330000	-172.187377
2.340000	-174.758585
2.350000	-171.232041
2.360000	-163.794040
2.370000	-153.810309
2.380000	-135.344681
2.390000	-119.637043
2.400000	-98.041376
2.410000	-71.356437
2.420000	-36.593769
2.430000	-5.314605
2.440000	19.679707
2.450000	44.888536
2.460000	75.419077
2.470000	110.211745
2.480000	143.282549
2.490000	175.692551
2.500000	199.928004
2.510000	224.690714
2.520000	245.677845
2.530000	274.874333
2.540000	301.840764
2.550000	330.572883
2.560000	360.801196
2.570000	387.067017
2.580000	416.272691
2.590000	453.032585
2.600000	484.842156
2.610000	461.373190
2.620000	368.991926
2.630000	241.323711
2.640000	134.350473
2.650000	62.641788
2.660000	29.827527
2.670000	29.748787
2.680000	50.772608
2.690000	80.002631
2.700000	102.195478
2.710000	124.135130
2.720000	146.754351
2.730000	170.084478
2.740000	180.094511
2.750000	175.556151
2.760000	164.280575
2.770000	151.509090
2.780000	141.619839
2.790000	140.288409
2.800000	152.781375
2.810000	170.186090
2.820000	193.795491
2.830000	218.892388
2.840000	242.974724
2.850000	263.424641
2.860000	283.998307
2.870000	312.127739
2.880000	342.815737
2.890000	368.987012
2.900000	392.821034
2.910000	420.687472
2.920000	451.970718
2.930000	481.873912
2.940000	510.966492
2.950000	543.234975
2.960000	576.778552
2.970000	607.088543
2.980000	639.116806
2.990000	676.773333
3.000000	708.246498
3.010000	744.689682
3.020000	789.189713
3.030000	820.375056
3.040000	787.221538
3.050000	684.690632
3.060000	560.235277
3.070000	465.188445
3.080000	414.654924
3.090000	408.149346
3.100000	431.209251
3.110000	462.598535
3.120000	495.644290
3.130000	523.221013
3.140000	557.641064
3.150000	593.637367
3.160000	628.821713
3.170000	651.538040
3.180000	656.864434
3.190000	650.645659
3.200000	640.757234
3.210000	640.279197
3.220000	649.794454
3.230000	670.426746
3.240000	697.328242
3.250000	726.088909
3.260000	756.052855
3.270000	782.587762
3.280000	811.320352
3.290000	840.247455
3.300000	871.782192
3.310000	905.415080
3.320000	938.755232
3.330000	970.101368
3.340000	1001.255058
3.350000	1030.963490
3.360000	1062.953166
3.370000	1092.654477
3.380000	1122.856844
3.390000	1152.186419
3.400000	1178.277211
3.410000	1209.935478
3.420000	1247.862092
3.430000	1285.852684
3.440000	1324.319254
3.450000	1370.309212
3.460000	1388.514829
3.470000	1342.952265
3.480000	1228.650929
3.490000	1107.969210
3.500000	1023.254650
3.510000	977.734897
3.520000	966.358752
3.530000	979.344302
3.540000	1008.657953
3.550000	1044.806911
3.560000	1077.479023
3.570000	1111.167871
3.580000	1148.151923
3.590000	1178.687280
3.600000	1198.030239
3.610000	1203.069728
3.620000	1206.143074
3.630000	1211.956832
3.640000	1222.106496
3.650000	1242.715683
3.660000	1272.910177
3.670000	1312.001350
3.680000	1358.905903
3.690000	1400.781329
3.700000	1438.465951
3.710000	1469.412216
3.720000	1501.247607
3.730000	1534.550852
3.740000	1568.218522
3.750000	1605.896503
3.760000	1638.682359
3.770000	1666.794668
3.780000	1687.331818
3.790000	1707.915983
3.800000	1730.493311
3.810000	1754.223968
3.820000	1777.179493
3.830000	1799.398380
3.840000	1831.422212
3.850000	1872.068268
3.860000	1909.830902
3.870000	1945.967503
3.880000	1986.781030
3.890000	1994.941085
3.900000	1939.609778
3.910000	1829.550808
3.920000	1728.784237
3.930000	1668.597803
3.940000	1638.704899
3.950000	1639.200241
3.960000	1662.130248
3.970000	1695.651972
3.980000	1718.389230
3.990000	1725.675914
4.000000	1736.907100
4.010000	1767.214090
4.020000	1802.537204
4.030000	1829.613318
4.040000	1840.373550
4.050000	1852.608646
4.060000	1869.026632
4.070000	1884.774444
4.080000	1898.547094
4.090000	1919.827226
4.100000	1956.252887
4.110000	1999.024955
4.120000	2036.808156
4.130000	2050.390498
4.140000	2049.298131
4.150000	2057.985798
4.160000	2097.299918
4.170000	2159.356864
4.180000	2221.448605
4.190000	2287.989637
4.200000	2368.130428
4.210000	2439.722808
4.220000	2478.659451
4.230000	2483.704250
4.240000	2490.808924
4.250000	2525.842485
4.260000	2584.058288
4.270000	2623.060770
4.280000	2629.236287
4.290000	2644.279994
4.300000	2676.838641
4.310000	2667.827726
4.320000	2567.590084
4.330000	2431.179407
4.340000	2351.734201
4.350000	2344.498876
4.360000	2367.174222
4.370000	2391.701464
4.380000	2414.190600
4.390000	2442.111181
4.400000	2469.344860
4.410000	2490.363647
4.420000	2516.719734
4.430000	2538.062217
4.440000	2551.286652
4.450000	2544.909108
4.460000	2528.415014
4.470000	2509.587672
4.480000	2497.716341
4.490000	2503.772151
4.500000	2524.478950
4.510000	2555.453101
4.520000	2587.393317
4.530000	2619.321247
4.540000	2640.778369
4.550000	2665.083793
4.560000	2699.976210
4.570000	2745.318495
4.580000	2778.605390
4.590000	2815.148812
4.600000	2856.687993
4.610000	2904.801660
4.620000	2932.848312
4.630000	2949.371940
4.640000	2964.833573
4.650000	2993.771962
4.660000	3039.939931
4.670000	3078.242302
4.680000	3113.276203
4.690000	3147.520642
4.700000	3172.728938
4.710000	3138.828780
4.720000	3037.439592
4.730000	2918.439050
4.740000	2833.629680
4.750000	2786.389141
4.760000	2773.606761
4.770000	2781.780811
4.780000	2810.087403
4.790000	2838.921575
4.800000	2857.391240
4.810000	2871.573446
4.820000	2882.811793
4.830000	2897.701325
4.840000	2900.631458
4.850000	2897.680706
4.860000	2894.573895
4.870000	2896.113092
4.880000	2895.939661
4.890000	2895.352250
4.900000	2902.107313
4.910000	2922.703827
4.920000	2955.032231
4.930000	2987.475219
4.940000	3017.091910
4.950000	3043.028256
4.960000	3065.929920
4.970000	3080.671267
4.980000	3101.257892
4.990000	3130.051288
5.000000	3163.336389
5.010000	3191.179645
5.020000	3212.201980
5.030000	3232.423420
5.040000	3238.106544
5.050000	3234.477308
5.060000	3257.184130
5.070000	3300.505117
5.080000	3310.882610
5.090000	3239.295706
5.100000	3115.880175
5.110000	2980.860348
5.120000	2873.619755
5.130000	2806.760387
5.140000	2788.754892
5.150000	2781.270026
5.160000	2761.334954
5.170000	2734.926461
5.180000	2707.311561
5.190000	2687.322371
5.200000	2672.317511
5.210000	2655.766276
5.220000	2617.676305
5.230000	2577.372441
5.240000	2546.399105
5.250000	2529.676880
5.260000	2524.147531
5.270000	2532.709608
5.280000	2546.907743
5.290000	2560.455623
5.300000	2569.379311
5.310000	2578.595390
5.320000	2584.527864
5.330000	2580.090120
5.340000	2574.082270
5.350000	2567.924394
5.360000	2566.002215
5.370000	2566.095483
5.380000	2563.935708
5.390000	2566.647904
5.400000	2577.205353
5.410000	2588.183488
5.420000	2585.465824
5.430000	2567.760972
5.440000	2512.338203
5.450000	2401.019187
5.460000	2226.906957
5.470000	2000.038573
5.480000	1751.501671
5.490000	1533.822632
5.500000	1387.090810
5.510000	1268.504894
5.520000	1130.283503
5.530000	960.665343
5.540000	798.738819
5.550000	659.050790
5.560000	555.209381
5.570000	486.907074
5.580000	460.331568
5.590000	462.675606
5.600000	473.059969
5.610000	496.139949
5.620000	526.049107
5.630000	559.899397
5.640000	601.006159
5.650000	644.919007
5.660000	690.250394
5.670000	726.523029
5.680000	754.131136
5.690000	769.720671
5.700000	768.609407
5.710000	762.227668
5.720000	753.994695
5.730000	734.960292
5.740000	697.975106
5.750000	640.960926
5.760000	546.498029
5.770000	406.630684
5.780000	254.717878
5.790000	136.780349
5.800000	60.410074
5.810000	21.195730
5.820000	6.648065
5.830000	-41.282158
5.840000	-162.175331
5.850000	-393.416264
5.860000	-615.672586
5.870000	-764.599735
5.880000	-841.333222
5.890000	-882.771554
5.900000	-937.496781
5.910000	-1018.636350
5.920000	-1107.031447
5.930000	-1169.926338
5.940000	-1195.422016
5.950000	-1194.747876
5.960000	-1208.029376
5.970000	-1266.351403
5.980000	-1349.639095
5.990000	-1421.722976
6.000000	-1477.482379
6.010000	-1538.318375
6.020000	-1623.473404
6.030000	-1711.291122
6.040000	-1776.948076
6.050000	-1864.615038
6.060000	-2012.081672
6.070000	-2300.763711
6.080000	-2613.533382
6.090000	-2920.548581
6.100000	-3232.865178
6.110000	-3504.314110
6.120000	-3728.850289
6.130000	-3979.149023
6.140000	-4249.092823
6.150000	-4424.766141
6.160000	-4524.709355
6.170000	-4561.069640
6.180000	-4573.863558
6.190000	-4575.828754
6.200000	-4582.224254
6.210000	-4622.495400
6.220000	-4708.407263
6.230000	-4827.301448
6.240000	-4929.029365
6.250000	-4997.077491
6.260000	-5037.259258
6.270000	-5069.440756
6.280000	-5087.301313
6.290000	-5083.687915
6.300000	-5074.962864
6.310000	-5089.525075
6.320000	-5117.077073
6.330000	-5136.226004
6.340000	-5160.516755
6.350000	-5199.814911
6.360000	-5274.217828
6.370000	-5357.177499
6.380000	-5441.876697
6.390000	-5542.837409
6.400000	-5680.430495
6.410000	-5857.852110
6.420000	-6012.851336
6.430000	-6126.778879
6.440000	-6198.567033
6.450000	-6240.510134
6.460000	-6246.148045
6.470000	-6208.825833
6.480000	-6131.341449
6.490000	-6054.834679
6.500000	-6000.402345
6.510000	-5960.020750
6.520000	-5897.979031
6.530000	-5805.874918
6.540000	-5700.218453
6.550000	-5579.608723
6.560000	-5446.732412
6.570000	-5318.312167
6.580000	-5217.863863
6.590000	-5163.935176
6.600000	-5163.898840
6.610000	-5222.151874
6.620000	-5301.422178
6.630000	-5351.937962
6.640000	-5349.954937
6.650000	-5320.797601
6.660000	-5289.760540
6.670000	-5263.880802
6.680000	-5226.442024
6.690000	-5172.270877
6.700000	-5119.797521
6.710000	-5075.571486
6.720000	-5030.721112
6.730000	-4962.779121
6.740000	-4889.032144
6.750000	-4823.590141
6.760000	-4778.617098
6.770000	-4730.917103
6.780000	-4664.836258
6.790000	-4564.524084
6.800000	-4449.433310
6.810000	-4334.733906
6.820000	-4233.974160
6.830000	-4135.823935
6.840000	-4040.161258
6.850000	-3942.183472
6.860000	-3833.287152
6.870000	-3728.223237
6.880000	-3622.643497
6.890000	-3530.930823
6.900000	-3443.550636
6.910000	-3370.308098
6.920000	-3300.016756
6.930000	-3227.652312
6.940000	-3159.463876
6.950000	-3118.994063
6.960000	-3095.767583
6.970000	-3059.230649
6.980000	-3012.112630
6.990000	-2989.505971
7.000000	-2997.327297
7.010000	-2996.607650
7.020000	-2940.135496
7.030000	-2833.470287
7.040000	-2701.947193
7.050000	-2565.266442
7.060000	-2437.692748
7.070000	-2323.985054
7.080000	-2239.749757
7.090000	-2175.583045
7.100000	-2120.750915
7.110000	-2072.483764
7.120000	-2038.728731
7.130000	-2021.648844
7.140000	-2003.598734
7.150000	-1973.444732
7.160000	-1933.451443
7.170000	-1882.844486
7.180000	-1821.250428
7.190000	-1737.826944
7.200000	-1656.756672
7.210000	-1590.721799
7.220000	-1540.841390
7.230000	-1502.878416
7.240000	-1467.855788
7.250000	-1434.999813
7.260000	-1385.094659
7.270000	-1327.474283
7.280000	-1263.586051
7.290000	-1210.264714
7.300000	-1178.334139
7.310000	-1156.600709
7.320000	-1129.341984
7.330000	-1097.253477
7.340000	-1060.619857
7.350000	-1020.846617
7.360000	-992.537402
7.370000	-1006.086006
7.380000	-1073.339672
7.390000	-1151.443591
7.400000	-1210.111004
7.410000	-1219.402772
7.420000	-1197.280631
7.430000	-1162.964891
7.440000	-1140.729694
7.450000	-1125.711939
7.460000	-1114.446950
7.470000	-1102.386415
7.480000	-1087.434058
7.490000	-1074.676443
7.500000	-1076.703630
7.510000	-1085.170185
7.520000	-1085.550128
7.530000	-1065.931019
7.540000	-1032.037654
7.550000	-994.630935
7.560000	-956.427662
7.570000	-926.271576
7.580000	-901.709853
7.590000	-886.518507
7.600000	-870.542264
7.610000	-853.045756
7.620000	-824.938797
7.630000	-793.203504
7.640000	-763.249978
7.650000	-741.615922
7.660000	-719.102114
7.670000	-696.305353
7.680000	-671.196405
7.690000	-648.261303
7.700000	-619.170036
7.710000	-582.817550
7.720000	-551.760889
7.730000	-518.564489
7.740000	-492.977110
7.750000	-498.927778
7.760000	-560.436882
7.770000	-657.412433
7.780000	-736.714296
7.790000	-772.880740
7.800000	-777.333192
7.810000	-766.936721
7.820000	-755.515664
7.830000	-741.855858
7.840000	-729.949425
7.850000	-722.006282
7.860000	-709.589312
7.870000	-682.386105
7.880000	-652.190308
7.890000	-634.007650
7.900000	-625.642796
7.910000	-616.504035
7.920000	-600.337592
7.930000	-584.266711
7.940000	-563.561871
7.950000	-537.601858
7.960000	-510.024848
7.970000	-480.819789
7.980000	-452.720643
7.990000	-431.604100
8.000000	-412.610498
8.010000	-402.643397
8.020000	-385.324880
8.030000	-368.302946
8.040000	-344.552345
8.050000	-329.576876
8.060000	-333.650400
8.070000	-354.032464
8.080000	-377.937380
8.090000	-392.704020
8.100000	-394.128992
8.110000	-380.262274
8.120000	-358.559382
8.130000	-331.686085
8.140000	-307.548645
8.150000	-271.257528
8.160000	-251.199440
8.170000	-274.701158
8.180000	-344.323066
8.190000	-417.895210
8.200000	-464.349551
8.210000	-480.370269
8.220000	-481.632061
8.230000	-471.681631
8.240000	-460.801763
8.250000	-449.500579
8.260000	-445.859101
8.270000	-442.810493
8.280000	-436.122528
8.290000	-418.977339
8.300000	-405.306038
8.310000	-409.674746
8.320000	-428.634606
8.330000	-447.869229
8.340000	-457.835592
8.350000	-464.297441
8.360000	-466.877109
8.370000	-462.574890
8.380000	-450.446415
8.390000	-453.439140
8.400000	-462.113648
8.410000	-468.493318
8.420000	-453.936524
8.430000	-434.493405
8.440000	-415.914093
8.450000	-404.677495
8.460000	-394.370601
8.470000	-380.714140
8.480000	-359.339237
8.490000	-328.602986
8.500000	-298.516935
8.510000	-266.299419
8.520000	-234.216891
8.530000	-194.475612
8.540000	-156.470445
8.550000	-114.783172
8.560000	-79.604586
8.570000	-46.219836
8.580000	-9.907746
8.590000	19.468747
8.600000	11.900071
8.610000	-46.297177
8.620000	-122.663720
8.630000	-181.551677
8.640000	-210.119810
8.650000	-224.046492
8.660000	-224.697564
8.670000	-225.400794
8.680000	-221.718811
8.690000	-223.285013
8.700000	-228.532887
8.710000	-224.293273
8.720000	-215.217466
8.730000	-211.136297
8.740000	-229.408905
8.750000	-249.360019
8.760000	-260.445644
8.770000	-264.099755
8.780000	-262.633547
8.790000	-258.654698
8.800000	-248.952167
8.810000	-242.054219
8.820000	-237.724683
8.830000	-232.254468
8.840000	-222.975957
8.850000	-207.931528
8.860000	-191.384808
8.870000	-176.411442
8.880000	-159.580864
8.890000	-141.372795
8.900000	-120.909515
8.910000	-98.472610
8.920000	-71.698466
8.930000	-41.715201
8.940000	-11.624979
8.950000	13.906820
8.960000	37.338027
8.970000	57.389581
8.980000	84.538706
8.990000	116.042461
9.000000	138.918738
9.010000	162.632182
9.020000	192.496939
9.030000	205.354313
9.040000	165.585909
9.050000	86.089063
9.060000	14.651114
9.070000	-29.372831
9.080000	-61.831215
9.090000	-80.234163
9.100000	-87.109425
9.110000	-78.859730
9.120000	-70.886500
9.130000	-68.904335
9.140000	-61.394177
9.150000	-44.079057
9.160000	-25.713496
9.170000	-18.705287
9.180000	-20.431964
9.190000	-16.070729
9.200000	-7.300766
9.210000	-0.553189
9.220000	12.768784
9.230000	34.176344
9.240000	61.728015
9.250000	91.801468
9.260000	116.576969
9.270000	141.699201
9.280000	164.305895
9.290000	188.520500
9.300000	214.930528
9.310000	240.906087
9.320000	265.132940
9.330000	287.871200
9.340000	314.592570
9.350000	337.711055
9.360000	366.008793
9.370000	389.411787
9.380000	414.049885
9.390000	430.651608
9.400000	451.733230
9.410000	483.457411
9.420000	507.600716
9.430000	525.569262
9.440000	551.088517
9.450000	575.540567
9.460000	563.090059
9.470000	500.831014
9.480000	427.490578
9.490000	378.035960
9.500000	345.368044
9.510000	330.189142
9.520000	330.164967
9.530000	347.951479
9.540000	366.169962
9.550000	371.990389
9.560000	376.171470
9.570000	391.300356
9.580000	410.720466
9.590000	419.188053
9.600000	411.566173
9.610000	403.736732
9.620000	402.324003
9.630000	402.191620
9.640000	407.379842
9.650000	414.900967
9.660000	427.058261
9.670000	440.202967
9.680000	457.030722
9.690000	478.444272
9.700000	498.596484
9.710000	517.982444
9.720000	535.438074
9.730000	557.489725
9.740000	582.205351
9.750000	604.939400
9.760000	628.276592
9.770000	648.322974
9.780000	669.991298
9.790000	690.639321
9.800000	712.674305
9.810000	733.229854
9.820000	748.310450
9.830000	764.473174
9.840000	790.577614
9.850000	818.963368
9.860000	835.787593
9.870000	857.497430
9.880000	879.568186
9.890000	877.271750
9.900000	823.304983
9.910000	739.478430
9.920000	674.747987
9.930000	634.197109
9.940000	619.481582
9.950000	621.186222
9.960000	635.532333
9.970000	652.794842
9.980000	659.877155
9.990000	659.083245
10.000000	661.551209
10.010000	676.338382
10.020000	689.802842
10.030000	688.234060
10.040000	676.079211
10.050000	665.794061
10.060000	665.319631
10.070000	672.303029
10.080000	680.527464
10.090000	688.804613
10.100000	694.711485
10.110000	705.312605
10.120000	719.186649
10.130000	734.133672
10.140000	750.651863
10.150000	770.608558
10.160000	791.422332
10.170000	811.738365
10.180000	827.504350
10.190000	843.545582
10.200000	862.567636
10.210000	881.324265
10.220000	896.285341
10.230000	905.095422
10.240000	916.356431
10.250000	932.841226
10.260000	950.065610
10.270000	967.924437
10.280000	989.777036
10.290000	1008.305066
10.300000	1022.499877
10.310000	1043.714400
10.320000	1060.488809
10.330000	1034.379022
10.340000	958.561305
10.350000	872.835724
10.360000	819.973289
10.370000	793.489099
10.380000	785.714603
10.390000	793.153802
10.400000	804.769018
10.410000	816.839690
10.420000	813.458320
10.430000	812.286739
10.440000	820.789167
10.450000	836.710569
10.460000	843.752168
10.470000	827.477484
10.480000	812.160033
10.490000	806.540851
10.500000	813.892553
10.510000	826.246910
10.520000	842.317546
10.530000	858.621604
10.540000	873.756796
10.550000	889.347023
10.560000	903.529416
10.570000	919.763867
10.580000	935.964129
10.590000	955.540317
10.600000	972.050133
10.610000	986.014747
10.620000	999.152111
10.630000	1013.503244
10.640000	1031.936693
10.650000	1048.982982
10.660000	1067.425224
10.670000	1082.456959
10.680000	1096.950389
10.690000	1109.602130
10.700000	1120.830058
10.710000	1143.799196
10.720000	1166.992585
10.730000	1183.693855
10.740000	1205.557063
10.750000	1232.909310
10.760000	1236.392317
10.770000	1183.134489
10.780000	1095.064514
10.790000	1019.449405
10.800000	970.666895
10.810000	948.411546
10.820000	957.638305
10.830000	986.682975
10.840000	1020.288464
10.850000	1039.633575
10.860000	1050.361779
10.870000	1063.288005
10.880000	1073.080698
10.890000	1077.975834
10.900000	1070.140191
10.910000	1057.731800
10.920000	1045.548301
10.930000	1032.830641
10.940000	1030.346491
10.950000	1037.590551
10.960000	1055.507633
10.970000	1075.683991
10.980000	1093.705919
10.990000	1109.482381
11.000000	1120.591125
11.010000	1136.674132
11.020000	1158.479025
11.030000	1189.567627
11.040000	1226.709168
11.050000	1258.466356
11.060000	1281.990877
11.070000	1291.384882
11.080000	1295.341019
11.090000	1300.994333
11.100000	1306.027239
11.110000	1310.973821
11.120000	1311.729745
11.130000	1324.705492
11.140000	1337.382105
11.150000	1344.486506
11.160000	1356.774719
11.170000	1377.610224
11.180000	1369.418006
11.190000	1303.120493
11.200000	1204.575478
11.210000	1123.726962
11.220000	1068.648065
11.230000	1032.322169
11.240000	1017.444232
11.250000	1016.586529
11.260000	1023.607599
11.270000	1025.194898
11.280000	1025.516047
11.290000	1029.836711
11.300000	1038.775510
11.310000	1040.808966
11.320000	1023.730226
11.330000	990.854315
11.340000	962.428571
11.350000	944.223679
11.360000	932.130201
11.370000	926.970317
11.380000	922.843733
11.390000	923.774541
11.400000	926.233468
11.410000	929.951287
11.420000	934.319117
11.430000	935.482571
11.440000	940.798946
11.450000	947.683194
11.460000	956.984777
11.470000	963.229601
11.480000	969.891579
11.490000	977.798372
11.500000	990.167810
11.510000	1007.723047
11.520000	1025.457613
11.530000	1036.338010
11.540000	1040.128480
11.550000	1050.018775
11.560000	1070.136582
11.570000	1082.667920
11.580000	1091.566293
11.590000	1110.371727
11.600000	1109.906845
11.610000	1049.405030
11.620000	933.065379
11.630000	819.281477
11.640000	742.184710
11.650000	685.379720
11.660000	651.717270
11.670000	635.481258
11.680000	631.611578
11.690000	622.240683
11.700000	602.233700
11.710000	589.088221
11.720000	588.850090
11.730000	592.252525
11.740000	585.479239
11.750000	559.454864
11.760000	524.519820
11.770000	487.338297
11.780000	459.264221
11.790000	444.559604
11.800000	438.674850
11.810000	435.132454
11.820000	427.442019
11.830000	417.417755
11.840000	405.895876
11.850000	404.421573
11.860000	410.332876
11.870000	421.448601
11.880000	430.778277
11.890000	438.182441
11.900000	446.920727
11.910000	459.936171
11.920000	473.064126
11.930000	485.051411
11.940000	490.883746
11.950000	503.903322
11.960000	523.016337
11.970000	562.817305
11.980000	601.734939
11.990000	631.786978
12.000000	662.519736
12.010000	684.054366
12.020000	667.603347
12.030000	583.001726
12.040000	465.884441
12.050000	360.990518
12.060000	285.439097
12.070000	237.610256
12.080000	216.678008
12.090000	212.552949
12.100000	217.605057
12.110000	222.839597
12.120000	227.568945
12.130000	238.827793
12.140000	255.189580
12.150000	265.468820
12.160000	256.484014
12.170000	233.171869
12.180000	209.481770
12.190000	195.542634
12.200000	187.452170
12.210000	184.934178
12.220000	184.758247
12.230000	191.022612
12.240000	200.052703
12.250000	210.460019
12.260000	225.034296
12.270000	243.230224
12.280000	266.696838
12.290000	286.312063
12.300000	306.069581
12.310000	320.040451
12.320000	331.474292
12.330000	342.104389
12.340000	352.882857
12.350000	359.492805
12.360000	373.005587
12.370000	388.508833
12.380000	406.815165
12.390000	423.180332
12.400000	440.984061
12.410000	440.792446
12.420000	388.114477
12.430000	288.517057
12.440000	173.317690
12.450000	86.277509
12.460000	32.081500
12.470000	8.686997
12.480000	0.140873
12.490000	3.799733
12.500000	12.520838
12.510000	19.579489
12.520000	31.268684
12.530000	45.334153
12.540000	56.339096
12.550000	52.067760
12.560000	33.108491
12.570000	11.830462
12.580000	-8.818328
12.590000	-19.727327
12.600000	-17.097567
12.610000	-5.646751
12.620000	11.288333
12.630000	25.414479
12.640000	39.364764
12.650000	54.465562
12.660000	72.769554
12.670000	93.501497
12.680000	108.813791
12.690000	121.558612
12.700000	131.173361
12.710000	142.621870
12.720000	157.514268
12.730000	177.341599
12.740000	197.494804
12.750000	221.071795
12.760000	243.777245
12.770000	263.128761
12.780000	289.081885
12.790000	320.476143
12.800000	323.617692
12.810000	261.467767
12.820000	152.960231
12.830000	48.531819
12.840000	-24.107511
12.850000	-67.836437
12.860000	-81.847190
12.870000	-77.921766
12.880000	-69.942230
12.890000	-68.681916
12.900000	-70.681972
12.910000	-63.769020
12.920000	-47.806092
12.930000	-34.573941
12.940000	-38.289084
12.950000	-58.691713
12.960000	-80.082711
12.970000	-94.517586
12.980000	-98.910247
12.990000	-95.378747
13.000000	-84.755675
13.010000	-67.260072
13.020000	-49.975566
13.030000	-38.827586
13.040000	-34.203375
13.050000	-26.390914
13.060000	-12.473827
13.070000	3.000854
13.080000	18.906954
13.090000	35.705060
13.100000	56.937186
13.110000	76.022024
13.120000	96.301477
13.130000	114.627542
13.140000	133.654323
13.150000	156.205719
13.160000	171.942781
13.170000	182.454661
13.180000	197.892330
13.190000	212.296498
13.200000	191.735096
13.210000	105.450001
13.220000	-11.271560
13.230000	-105.713215
13.240000	-161.075221
13.250000	-185.309872
13.260000	-193.597962
13.270000	-189.908730
13.280000	-187.178759
13.290000	-191.522710
13.300000	-201.439595
13.310000	-200.129387
13.320000	-187.447990
13.330000	-179.148634
13.340000	-191.493783
13.350000	-215.133959
13.360000	-231.216988
13.370000	-236.198596
13.380000	-233.329880
13.390000	-222.960038
13.400000	-211.497941
13.410000	-205.427295
13.420000	-205.021636
13.430000	-203.581838
13.440000	-197.260013
13.450000	-192.137582
13.460000	-183.844020
13.470000	-174.753263
13.480000	-164.127970
13.490000	-156.425438
13.500000	-146.093728
13.510000	-130.816203
13.520000	-117.795738
13.530000	-109.237082
13.540000	-109.882294
13.550000	-105.650908
13.560000	-97.388222
13.570000	-91.458670
13.580000	-86.585674
13.590000	-77.969663
13.600000	-86.901422
13.610000	-147.563098
13.620000	-258.834308
13.630000	-369.734082
13.640000	-439.844428
13.650000	-470.067168
13.660000	-472.601249
13.670000	-468.473897
13.680000	-459.020430
13.690000	-451.948288
13.700000	-452.817589
13.710000	-449.090557
13.720000	-432.344007
13.730000	-411.665918
13.740000	-407.286393
13.750000	-420.909461
13.760000	-435.897830
13.770000	-446.235295
13.780000	-451.244075
13.790000	-450.950230
13.800000	-441.968469
13.810000	-430.412456
13.820000	-417.066441
13.830000	-403.599004
13.840000	-390.550215
13.850000	-372.157481
13.860000	-351.447706
13.870000	-330.436424
13.880000	-312.071332
13.890000	-295.762888
13.900000	-277.743794
13.910000	-259.829242
13.920000	-241.802221
13.930000	-225.292537
13.940000	-209.913967
13.950000	-195.147975
13.960000	-179.415624
13.970000	-163.402774
13.980000	-159.676702
13.990000	-160.328435
14.000000	-156.997288
14.010000	-168.723748
14.020000	-231.091346
14.030000	-346.422719
14.040000	-472.124025
14.050000	-569.193851
14.060000	-620.947262
14.070000	-633.089378
14.080000	-621.528387
14.090000	-607.730328
14.100000	-605.819796
14.110000	-620.743473
14.120000	-615.393385
14.130000	-580.564553
14.140000	-528.423913
14.150000	-539.304701
14.160000	-632.686079
14.170000	-736.191604
14.180000	-780.021292
14.190000	-739.936539
14.200000	-649.916217
14.210000	-505.955605
14.220000	-292.746212
14.230000	-141.700730
14.240000	-22.822734
14.250000	86.299928
14.260000	180.879635
14.270000	232.500873
14.280000	244.601107
14.290000	226.315515
14.300000	164.191686
14.310000	52.749628
14.320000	-69.165323
14.330000	-157.204047
14.340000	-204.027127
14.350000	-222.951171
14.360000	-226.958301
14.370000	-224.422834
14.380000	-208.585339
14.390000	-176.643029
14.400000	-129.961725
14.410000	-56.898960
14.420000	36.207476
14.430000	109.347365
14.440000	117.290183
14.450000	47.277157
14.460000	-51.195407
14.470000	-138.559838
14.480000	-191.131034
14.490000	-201.514889
14.500000	-175.175520
14.510000	-141.275469
14.520000	-109.574047
14.530000	-90.445298
14.540000	-64.298060
14.550000	-35.422064
14.560000	-12.442218
14.570000	-3.138306
14.580000	-21.679279
14.590000	-49.172655
14.600000	-80.697184
14.610000	-103.929366
14.620000	-127.515601
14.630000	-154.747846
14.640000	-188.075067
14.650000	-217.943612
14.660000	-238.053943
14.670000	-247.565063
14.680000	-251.459726
14.690000	-259.611073
14.700000	-260.551572
14.710000	-265.464186
14.720000	-267.004300
14.730000	-269.762058
14.740000	-266.837659
14.750000	-263.171514
14.760000	-266.424425
14.770000	-263.603716
14.780000	-254.124947
14.790000	-246.139788
14.800000	-244.229069
14.810000	-241.390986
14.820000	-255.147682
14.830000	-315.089325
14.840000	-428.753248
14.850000	-550.389019
14.860000	-645.470878
14.870000	-702.165794
14.880000	-735.009201
14.890000	-752.674920
14.900000	-767.305677
14.910000	-782.910500
14.920000	-806.024717
14.930000	-828.187346
14.940000	-839.154805
14.950000	-844.256390
14.960000	-860.733850
14.970000	-891.034514
14.980000	-920.014427
14.990000	-940.250487
15.000000	-957.080154
15.010000	-969.532689
15.020000	-973.554414
15.030000	-976.262679
15.040000	-977.425695
15.050000	-985.099400
15.060000	-987.326064
15.070000	-986.392718
15.080000	-975.285101
15.090000	-964.150790
15.100000	-959.652249
15.110000	-959.969974
15.120000	-960.095097
15.130000	-957.881526
15.140000	-952.292202
15.150000	-943.213526
15.160000	-935.922052
15.170000	-927.273694
15.180000	-918.983225
15.190000	-915.425824
15.200000	-907.759424
15.210000	-899.697097
15.220000	-909.660672
15.230000	-976.442292
15.240000	-1088.174067
15.250000	-1196.839465
15.260000	-1272.154065
15.270000	-1316.410643
15.280000	-1338.904447
15.290000	-1351.072135
15.300000	-1358.389495
15.310000	-1370.830284
15.320000	-1389.935609
15.330000	-1401.295429
15.340000	-1401.930498
15.350000	-1399.874767
15.360000	-1412.367836
15.370000	-1438.822186
15.380000	-1459.502833
15.390000	-1449.839770
15.400000	-1436.528600
15.410000	-1425.884519
15.420000	-1436.671536
15.430000	-1444.894632
15.440000	-1446.618855
15.450000	-1445.340918
15.460000	-1442.977397
15.470000	-1440.199134
15.480000	-1432.737504
15.490000	-1417.141167
15.500000	-1399.605442
15.510000	-1392.848873
15.520000	-1383.148258
15.530000	-1373.015074
15.540000	-1383.154679
15.550000	-1448.299823
15.560000	-1557.114298
15.570000	-1661.897460
15.580000	-1735.542940
15.590000	-1773.636230
15.600000	-1791.771686
15.610000	-1800.439125
15.620000	-1808.406832
15.630000	-1819.639594
15.640000	-1833.773821
15.650000	-1839.887746
15.660000	-1833.234056
15.670000	-1822.582240
15.680000	-1816.769944
15.690000	-1813.654948
15.700000	-1802.690682
15.710000	-1789.178665
15.720000	-1768.324042
15.730000	-1735.776817
15.740000	-1686.026944
15.750000	-1631.496455
15.760000	-1584.802109
15.770000	-1550.264517
15.780000	-1516.270862
15.790000	-1479.792972
15.800000	-1449.508033
15.810000	-1432.051532
15.820000	-1413.757926
15.830000	-1384.053156
15.840000	-1344.775902
15.850000	-1306.144527
15.860000	-1263.820026
15.870000	-1220.654504
15.880000	-1185.946762
15.890000	-1159.536115
15.900000	-1135.454530
15.910000	-1094.778484
15.920000	-1042.423468
15.930000	-996.452003
15.940000	-960.079340
15.950000	-911.450377
15.960000	-862.554541
15.970000	-851.245482
15.980000	-898.040467
15.990000	-976.302056
16.000000	-1037.857532
16.010000	-1068.842445
16.020000	-1059.073584
16.030000	-1028.520480
16.040000	-1000.352532
16.050000	-975.524214
16.060000	-957.023045
16.070000	-927.858316
16.080000	-885.785218
16.090000	-835.261234
16.100000	-792.295436
16.110000	-771.375527
16.120000	-754.431015
16.130000	-732.896605
16.140000	-697.945776
16.150000	-651.492967
16.160000	-611.549745
16.170000	-583.431997
16.180000	-570.190901
16.190000	-562.713557
16.200000	-561.901366
16.210000	-558.341118
16.220000	-549.337133
16.230000	-548.385857
16.240000	-566.805472
16.250000	-595.412017
16.260000	-620.297745
16.270000	-642.515348
16.280000	-665.498473
16.290000	-674.937692
16.300000	-666.426639
16.310000	-638.066318
16.320000	-599.418162
16.330000	-557.552464
16.340000	-513.757311
16.350000	-475.083751
16.360000	-468.178730
16.370000	-523.653510
16.380000	-594.079187
16.390000	-634.923733
16.400000	-594.317790
16.410000	-487.736341
16.420000	-345.954952
16.430000	-194.222753
16.440000	-65.300840
16.450000	45.372812
16.460000	132.974520
16.470000	201.975156
16.480000	257.567339
16.490000	296.537450
16.500000	309.460361
16.510000	287.419292
16.520000	230.697692
16.530000	142.629439
16.540000	64.693936
16.550000	25.459151
16.560000	38.304374
16.570000	81.515935
16.580000	142.263550
16.590000	242.326331
16.600000	386.181581
16.610000	552.377954
16.620000	676.310809
16.630000	743.548242
16.640000	769.531966
16.650000	768.378697
16.660000	759.766402
16.670000	742.818226
16.680000	729.034549
16.690000	718.894717
16.700000	720.658811
16.710000	756.010327
16.720000	805.506536
16.730000	854.810545
16.740000	897.380413
16.750000	932.298441
16.760000	925.502973
16.770000	849.812425
16.780000	721.085073
16.790000	601.462324
16.800000	517.913494
16.810000	472.387214
16.820000	454.385560
16.830000	450.984053
16.840000	448.869284
16.850000	448.632585
16.860000	448.694655
16.870000	455.986204
16.880000	466.840067
16.890000	464.988461
16.900000	448.375188
16.910000	415.677500
16.920000	388.324991
16.930000	368.332829
16.940000	360.302260
16.950000	357.645204
16.960000	357.979607
16.970000	360.317343
16.980000	361.674818
16.990000	361.018924
17.000000	355.389557
17.010000	353.444638
17.020000	371.484912
17.030000	400.828757
17.040000	412.886670
17.050000	397.625651
17.060000	392.782163
17.070000	426.091664
17.080000	476.908746
17.090000	493.169404
17.100000	470.531803
17.110000	462.104381
17.120000	495.451521
17.130000	532.560102
17.140000	496.298690
17.150000	389.270410
17.160000	284.709472
17.170000	218.916256
17.180000	188.716169
17.190000	178.232238
17.200000	179.784423
17.210000	178.568382
17.220000	159.559152
17.230000	155.075656
17.240000	168.964124
17.250000	190.919858
17.260000	190.022281
17.270000	179.596069
17.280000	167.777350
17.290000	150.617596
17.300000	136.612449
17.310000	133.015569
17.320000	153.512411
17.330000	173.690107
17.340000	191.856653
17.350000	212.764893
17.360000	275.678900
17.370000	400.097299
17.380000	558.352683
17.390000	669.891925
17.400000	717.938360
17.410000	713.755410
17.420000	688.930759
17.430000	636.567706
17.440000	572.373733
17.450000	524.135647
17.460000	488.788410
17.470000	461.422263
17.480000	431.578887
17.490000	396.789156
17.500000	338.383829
17.510000	242.228086
17.520000	130.014044
17.530000	52.808519
17.540000	9.562558
17.550000	-12.915677
17.560000	-25.820770
17.570000	-32.220931
17.580000	-28.455045
17.590000	-36.866424
17.600000	-48.270926
17.610000	-53.780311
17.620000	-49.367124
17.630000	-57.700537
17.640000	-92.036532
17.650000	-141.151978
17.660000	-181.937791
17.670000	-206.241710
17.680000	-230.168934
17.690000	-246.195849
17.700000	-251.675488
17.710000	-240.401606
17.720000	-227.501405
17.730000	-221.516084
17.740000	-214.541669
17.750000	-200.561298
17.760000	-184.871262
17.770000	-159.494346
17.780000	-118.463367
17.790000	-60.028668
17.800000	29.722211
17.810000	159.916743
17.820000	336.887755
17.830000	531.331383
17.840000	700.999351
17.850000	855.656096
17.860000	1008.141650
17.870000	1158.020010
17.880000	1261.581084
17.890000	1315.578329
17.900000	1332.480891
17.910000	1337.923951
17.920000	1329.388435
17.930000	1317.391023
17.940000	1311.379262
17.950000	1295.876424
17.960000	1259.802842
17.970000	1214.845581
17.980000	1195.377163
17.990000	1196.796661
18.000000	1197.995637
18.010000	1180.511685
18.020000	1151.775750
18.030000	1131.351056
18.040000	1120.263135
18.050000	1113.599460
18.060000	1100.493323
18.070000	1087.990025
18.080000	1070.114516
18.090000	1048.829620
18.100000	1024.158061
18.110000	997.434279
18.120000	977.651211
18.130000	960.765471
18.140000	960.288676
18.150000	974.484638
18.160000	995.673420
18.170000	1024.992035
18.180000	1072.513792
18.190000	1138.236575
18.200000	1219.111003
18.210000	1331.967976
18.220000	1479.940284
18.230000	1605.968937
18.240000	1636.145448
18.250000	1570.943122
18.260000	1490.841474
18.270000	1455.628202
18.280000	1470.488913
18.290000	1509.997567
18.300000	1554.587781
18.310000	1598.841420
18.320000	1630.102683
18.330000	1656.846165
18.340000	1692.734957
18.350000	1721.204598
18.360000	1729.481265
18.370000	1705.669301
18.380000	1679.780089
18.390000	1660.513097
18.400000	1645.486308
18.410000	1631.793477
18.420000	1618.302271
18.430000	1609.861997
18.440000	1598.855867
18.450000	1594.415207
18.460000	1596.155492
18.470000	1607.417611
18.480000	1620.196373
18.490000	1628.197244
18.500000	1636.708363
18.510000	1639.384313
18.520000	1640.355262
18.530000	1649.025408
18.540000	1661.739226
18.550000	1667.084852
18.560000	1668.603953
18.570000	1667.243559
18.580000	1630.148917
18.590000	1534.536344
18.600000	1406.267238
18.610000	1309.707959
18.620000	1256.346711
18.630000	1231.580936
18.640000	1216.854977
18.650000	1206.261592
18.660000	1203.830088
18.670000	1197.337100
18.680000	1193.630336
18.690000	1190.493728
18.700000	1185.870284
18.710000	1169.734309
18.720000	1139.569932
18.730000	1104.779928
18.740000	1075.042527
18.750000	1053.245632
18.760000	1042.955593
18.770000	1046.145435
18.780000	1058.957648
18.790000	1080.491547
18.800000	1109.730753
18.810000	1145.274478
18.820000	1178.254388
18.830000	1207.850382
18.840000	1228.201532
18.850000	1241.552380
18.860000	1250.586853
18.870000	1251.673799
18.880000	1248.762882
18.890000	1243.558722
18.900000	1239.379454
18.910000	1233.529669
18.920000	1243.487065
18.930000	1267.215738
18.940000	1264.257606
18.950000	1192.331660
18.960000	1073.639841
18.970000	971.327677
18.980000	912.690964
18.990000	884.646513
19.000000	868.827664
19.010000	848.736932
19.020000	828.787935
19.030000	811.588209
19.040000	802.855578
19.050000	797.174074
19.060000	763.952243
19.070000	706.952123
19.080000	632.820984
19.090000	575.903382
19.100000	531.011265
19.110000	491.614051
19.120000	455.308952
19.130000	424.767696
19.140000	408.718615
19.150000	405.989119
19.160000	413.216863
19.170000	413.601190
19.180000	405.183055
19.190000	388.981576
19.200000	378.276006
19.210000	377.764427
19.220000	382.768852
19.230000	388.639279
19.240000	385.672686
19.250000	376.639530
19.260000	360.657228
19.270000	353.776632
19.280000	358.360784
19.290000	354.943315
19.300000	359.918632
19.310000	374.490333
19.320000	360.122313
19.330000	280.798841
19.340000	154.896204
19.350000	61.695029
19.360000	16.581255
19.370000	4.928351
19.380000	10.681528
19.390000	24.599110
19.400000	38.202200
19.410000	34.999078
19.420000	29.893230
19.430000	32.133892
19.440000	42.310430
19.450000	37.620658
19.460000	9.181639
19.470000	-24.401721
19.480000	-48.543255
19.490000	-64.386122
19.500000	-73.856208
19.510000	-86.979100
19.520000	-96.040522
19.530000	-112.879621
19.540000	-129.758658
19.550000	-151.068132
19.560000	-172.040070
19.570000	-192.859094
19.580000	-214.914055
19.590000	-233.556488
19.600000	-246.050054
19.610000	-248.507898
19.620000	-245.801028
19.630000	-238.706060
19.640000	-233.157911
19.650000	-226.138447
19.660000	-221.459439
19.670000	-212.134133
19.680000	-196.702843
19.690000	-183.082669
19.700000	-188.566160
19.710000	-201.880646
19.720000	-219.712967
19.730000	-262.004516
19.740000	-363.161922
19.750000	-499.899410
19.760000	-616.117291
19.770000	-679.456438
19.780000	-697.780449
19.790000	-687.969262
19.800000	-667.710570
19.810000	-644.051311
19.820000	-629.253838
19.830000	-618.017645
19.840000	-597.709851
19.850000	-571.961894
19.860000	-556.131669
19.870000	-565.172312
19.880000	-581.398138
19.890000	-589.991914
19.900000	-587.296907
19.910000	-581.445880
19.920000	-567.094307
19.930000	-553.876966
19.940000	-542.135822
19.950000	-537.258536
19.960000	-535.088066
19.970000	-528.235155
19.980000	-508.642714
19.990000	-482.856429
20.000000	-451.786736
20.010000	-427.446686
20.020000	-406.494039
20.030000	-389.988114
20.040000	-370.784854
20.050000	-346.816488
20.060000	-324.371911
20.070000	-303.233901
20.080000	-279.890448
20.090000	-246.914706
20.100000	-225.094234
20.110000	-209.800406
20.120000	-182.200654
20.130000	-144.686321
20.140000	-150.388632
20.150000	-226.109056
20.160000	-336.013986
20.170000	-416.732503
20.180000	-445.026182
20.190000	-431.057905
20.200000	-392.001448
20.210000	-349.673470
20.220000	-315.893594
20.230000	-297.219175
20.240000	-282.348204
20.250000	-253.024216
20.260000	-226.512398
20.270000	-219.774026
20.280000	-235.583478
20.290000	-249.060646
20.300000	-254.988240
20.310000	-261.330056
20.320000	-259.628061
20.330000	-246.226392
20.340000	-222.228262
20.350000	-201.104241
20.360000	-182.738930
20.370000	-164.255857
20.380000	-143.533253
20.390000	-127.046232
20.400000	-111.583017
20.410000	-91.111137
20.420000	-66.601187
20.430000	-47.482007
20.440000	-33.876760
20.450000	-22.459928
20.460000	-15.785232
20.470000	-8.700329
20.480000	9.704905
20.490000	39.411823
20.500000	59.185780
20.510000	71.303999
20.520000	86.739091
20.530000	99.531330
20.540000	63.229287
20.550000	-34.432910
20.560000	-149.745802
20.570000	-229.991662
20.580000	-261.447476
20.590000	-261.254898
20.600000	-244.429917
20.610000	-219.119430
20.620000	-191.694534
20.630000	-174.621312
20.640000	-161.193990
20.650000	-146.081352
20.660000	-135.346009
20.670000	-141.848214
20.680000	-165.417273
20.690000	-187.185642
20.700000	-200.811739
20.710000	-209.170731
20.720000	-211.485399
20.730000	-203.435526
20.740000	-192.146810
20.750000	-183.988097
20.760000	-179.081126
20.770000	-172.483696
20.780000	-153.958038
20.790000	-135.664826
20.800000	-116.422520
20.810000	-98.145543
20.820000	-72.149175
20.830000	-45.962277
20.840000	-25.830658
20.850000	-7.375046
20.860000	7.511881
20.870000	15.917099
20.880000	19.574703
20.890000	32.283032
20.900000	52.970470
20.910000	65.648249
20.920000	73.458838
20.930000	93.090525
20.940000	95.527999
20.950000	32.185171
20.960000	-100.431216
20.970000	-230.476319
20.980000	-312.369870
20.990000	-349.903539
21.000000	-367.852521
21.010000	-373.578010
21.020000	-374.296718
21.030000	-380.891353
21.040000	-397.350974
21.050000	-409.116267
21.060000	-404.375478
21.070000	-399.381147
21.080000	-408.357479
21.090000	-442.266981
21.100000	-472.193371
21.110000	-495.187733
21.120000	-510.666193
21.130000	-521.749260
21.140000	-522.077076
21.150000	-512.962790
21.160000	-509.155950
21.170000	-508.761847
21.180000	-504.518142
21.190000	-486.184267
21.200000	-467.578101
21.210000	-451.875957
21.220000	-437.924807
21.230000	-420.521966
21.240000	-404.598254
21.250000	-394.131063
21.260000	-383.210379
21.270000	-372.056291
21.280000	-362.793821
21.290000	-358.283077
21.300000	-352.318688
21.310000	-336.804444
21.320000	-318.517629
21.330000	-315.657182
21.340000	-316.601443
21.350000	-306.802101
21.360000	-314.436264
21.370000	-391.980857
21.380000	-541.251685
21.390000	-684.925921
21.400000	-775.445086
21.410000	-819.002476
21.420000	-839.139594
21.430000	-850.020940
21.440000	-854.437273
21.450000	-857.346508
21.460000	-874.398875
21.470000	-889.887237
21.480000	-895.348384
21.490000	-890.752527
21.500000	-901.669651
21.510000	-935.201915
21.520000	-969.546387
21.530000	-990.975039
21.540000	-1001.768674
21.550000	-1014.076870
21.560000	-1018.566907
21.570000	-1018.180701
21.580000	-1010.986709
21.590000	-1006.952163
21.600000	-993.980849
21.610000	-970.052885
21.620000	-935.950915
21.630000	-894.460640
21.640000	-862.260632
21.650000	-844.137183
21.660000	-846.877247
21.670000	-862.407593
21.680000	-887.475057
21.690000	-910.623366
21.700000	-925.053482
21.710000	-933.499737
21.720000	-938.265055
21.730000	-926.635778
21.740000	-903.492440
21.750000	-887.777831
21.760000	-874.955958
21.770000	-849.523605
21.780000	-837.500583
21.790000	-889.303326
21.800000	-1006.544645
21.810000	-1135.898837
21.820000	-1228.567689
21.830000	-1279.246877
21.840000	-1295.592582
21.850000	-1295.589378
21.860000	-1291.902125
21.870000	-1288.206277
21.880000	-1288.511491
21.890000	-1285.423904
21.900000	-1275.095782
21.910000	-1261.962593
21.920000	-1263.012648
21.930000	-1287.444430
21.940000	-1315.480911
21.950000	-1336.916631
21.960000	-1342.248264
21.970000	-1343.077039
21.980000	-1339.280062
21.990000	-1333.875784
22.000000	-1322.587922
22.010000	-1305.649390
22.020000	-1289.876043
22.030000	-1270.352652
22.040000	-1245.133886
22.050000	-1214.021959
22.060000	-1184.707645
22.070000	-1160.640198
22.080000	-1141.564802
22.090000	-1121.201776
22.100000	-1101.069574
22.110000	-1085.396629
22.120000	-1072.182697
22.130000	-1045.177423
22.140000	-1013.657294
22.150000	-992.598174
22.160000	-978.371362
22.170000	-952.267671
22.180000	-930.805273
22.190000	-961.311123
22.200000	-1046.405306
22.210000	-1138.170922
22.220000	-1181.273013
22.230000	-1162.768092
22.240000	-1099.175466
22.250000	-1013.335992
22.260000	-922.014134
22.270000	-819.795411
22.280000	-678.579016
22.290000	-467.697800
22.300000	-111.604611
22.310000	244.616808
22.320000	495.598602
22.330000	681.626601
22.340000	852.326412
22.350000	1018.115229
22.360000	1171.666330
22.370000	1298.735091
22.380000	1407.459045
22.390000	1499.910459
22.400000	1580.311499
22.410000	1641.776271
22.420000	1686.242916
22.430000	1716.031623
22.440000	1733.897774
22.450000	1735.322986
22.460000	1727.641575
22.470000	1718.672458
22.480000	1706.749816
22.490000	1694.424369
22.500000	1681.575267
22.510000	1677.593967
22.520000	1674.411324
22.530000	1661.148069
22.540000	1640.009188
22.550000	1596.716405
22.560000	1520.676977
22.570000	1420.731536
22.580000	1325.459338
22.590000	1229.714663
22.600000	1094.624334
22.610000	877.951120
22.620000	648.681016
22.630000	486.714924
22.640000	335.992013
22.650000	171.236734
22.660000	-35.204242
22.670000	-275.836567
22.680000	-478.602323
22.690000	-640.721983
22.700000	-760.586439
22.710000	-820.737331
22.720000	-849.058664
22.730000	-869.010032
22.740000	-880.067618
22.750000	-888.236357
22.760000	-908.035404
22.770000	-946.711237
22.780000	-926.036701
22.790000	-824.944451
22.800000	-657.754054
22.810000	-464.332610
22.820000	-233.176323
22.830000	-56.406265
22.840000	71.886140
22.850000	156.530464
22.860000	229.209112
22.870000	297.468482
22.880000	373.947271
22.890000	454.094106
22.900000	530.412444
22.910000	589.104474
22.920000	629.315496
22.930000	654.529363
22.940000	678.650044
22.950000	709.674506
22.960000	722.630782
22.970000	725.647564
22.980000	731.026906
22.990000	758.712450
23.000000	818.800402
23.010000	909.816885
23.020000	1022.290163
23.030000	1119.919429
23.040000	1187.576764
23.050000	1231.820442
23.060000	1252.250040
23.070000	1257.819807
23.080000	1257.663330
23.090000	1230.809533
23.100000	1153.475459
23.110000	1055.687118
23.120000	989.087195
23.130000	953.830349
23.140000	923.366131
23.150000	886.422906
23.160000	855.116806
23.170000	827.384155
23.180000	791.916524
23.190000	752.461314
23.200000	719.141764
23.210000	692.252937
23.220000	678.125146
23.230000	667.409835
23.240000	657.535582
23.250000	657.005685
23.260000	658.644916
23.270000	663.365798
23.280000	660.798729
23.290000	653.169384
23.300000	647.374325
23.310000	651.384948
23.320000	662.997736
23.330000	670.650631
23.340000	666.707812
23.350000	668.059615
23.360000	663.750731
23.370000	622.488778
23.380000	521.894207
23.390000	391.135639
23.400000	284.516203
23.410000	227.111742
23.420000	208.450111
23.430000	204.460069
23.440000	198.480639
23.450000	193.939863
23.460000	189.574597
23.470000	190.513550
23.480000	198.402012
23.490000	206.473844
23.500000	209.643772
23.510000	199.501419
23.520000	184.006923
23.530000	164.921744
23.540000	151.801271
23.550000	147.399859
23.560000	154.338398
23.570000	161.249377
23.580000	163.637567
23.590000	162.189635
23.600000	165.367940
23.610000	175.522960
23.620000	186.150520
23.630000	197.952609
23.640000	205.994151
23.650000	216.155164
23.660000	222.214415
23.670000	232.474145
23.680000	246.487181
23.690000	265.541088
23.700000	284.819709
23.710000	298.013782
23.720000	312.934197
23.730000	323.190640
23.740000	306.414623
23.750000	233.425264
23.760000	117.421243
23.770000	9.172859
23.780000	-54.868373
23.790000	-67.082328
23.800000	-58.186900
23.810000	-41.881069
23.820000	-31.427881
23.830000	-21.552565
23.840000	-7.928487
23.850000	5.161921
23.860000	21.001294
23.870000	20.892296
23.880000	14.084072
23.890000	-4.340015
23.900000	-14.355109
23.910000	-19.561027
23.920000	-12.688269
23.930000	-1.079357
23.940000	10.729076
23.950000	26.166974
23.960000	37.525254
23.970000	53.200284
23.980000	65.018648
23.990000	84.363347
24.000000	102.198648
24.010000	120.633021
24.020000	136.774230
24.030000	151.321856
24.040000	163.421484
24.050000	175.094508
24.060000	189.481040
24.070000	201.921610
24.080000	213.966833
24.090000	228.160594
24.100000	248.198249
24.110000	268.449730
24.120000	284.508760
24.130000	302.844438
24.140000	301.483487
24.150000	249.289613
24.160000	141.606541
24.170000	17.931618
24.180000	-66.150703
24.190000	-101.478404
24.200000	-98.218933
24.210000	-82.857848
24.220000	-69.511169
24.230000	-64.473831
24.240000	-66.373738
24.250000	-62.650513
24.260000	-50.855548
24.270000	-43.793932
24.280000	-50.585447
24.290000	-71.170386
24.300000	-88.192792
24.310000	-94.834104
24.320000	-95.422445
24.330000	-88.406736
24.340000	-80.934418
24.350000	-69.876272
24.360000	-60.060077
24.370000	-48.248856
24.380000	-35.790226
24.390000	-22.208363
24.400000	-7.781074
24.410000	10.916973
24.420000	28.946409
24.430000	45.127241
24.440000	58.749758
24.450000	73.423915
24.460000	90.621745
24.470000	104.441480
24.480000	118.260327
24.490000	127.511637
24.500000	143.349797
24.510000	158.271554
24.520000	178.217160
24.530000	193.730117
24.540000	209.531023
24.550000	225.583135
24.560000	219.190132
24.570000	162.161837
24.580000	51.659601
24.590000	-71.064342
24.600000	-159.449041
24.610000	-204.987777
24.620000	-218.536981
24.630000	-214.513818
24.640000	-204.209203
24.650000	-193.283973
24.660000	-190.482846
24.670000	-180.581284
24.680000	-167.736082
24.690000	-156.806924
24.700000	-162.275513
24.710000	-179.573375
24.720000	-196.386839
24.730000	-209.959276
24.740000	-214.416167
24.750000	-207.281106
24.760000	-195.397717
24.770000	-183.189606
24.780000	-178.649079
24.790000	-170.304685
24.800000	-159.863364
24.810000	-145.670613
24.820000	-129.680999
24.830000	-111.289638
24.840000	-87.752905
24.850000	-72.212456
24.860000	-57.027914
24.870000	-46.093823
24.880000	-27.519786
24.890000	-8.287257
24.900000	12.416164
24.910000	32.250383
24.920000	48.758174
24.930000	67.215628
24.940000	92.839705
24.950000	118.219188
24.960000	139.336872
24.970000	161.655081
24.980000	174.195160
24.990000	140.427053
25.000000	37.831501
25.010000	-97.233047
25.020000	-208.404356
25.030000	-273.581076
25.040000	-302.655269
25.050000	-309.199752
25.060000	-305.162275
25.070000	-299.069605
25.080000	-297.591436
25.090000	-290.486948
25.100000	-283.993135
25.110000	-286.504173
25.120000	-319.023432
25.130000	-370.026028
25.140000	-422.298747
25.150000	-456.803515
25.160000	-470.545437
25.170000	-464.853520
25.180000	-440.049997
25.190000	-408.196395
25.200000	-374.462913
25.210000	-343.465016
25.220000	-311.446756
25.230000	-278.671912
25.240000	-248.365947
25.250000	-218.458118
25.260000	-188.215980
25.270000	-164.191472
25.280000	-143.634243
25.290000	-128.197337
25.300000	-100.594207
25.310000	-71.206217
25.320000	-38.782548
25.330000	-13.172546
25.340000	-0.220150
25.350000	15.994006
25.360000	31.360376
25.370000	51.259793
25.380000	78.339931
25.390000	114.597027
25.400000	128.968622
25.410000	66.943156
25.420000	-59.814263
25.430000	-202.201196
25.440000	-307.179615
25.450000	-369.068864
25.460000	-403.864380
25.470000	-422.850103
25.480000	-439.481587
25.490000	-456.862682
25.500000	-455.964400
25.510000	-397.078149
25.520000	-263.519317
25.530000	-99.071893
25.540000	-19.995843
25.550000	-64.129002
25.560000	-184.581651
25.570000	-290.992761
25.580000	-344.902668
25.590000	-353.574703
25.600000	-334.176765
25.610000	-296.395247
25.620000	-253.720399
25.630000	-222.148366
25.640000	-198.135994
25.650000	-182.839952
25.660000	-173.466228
25.670000	-165.786353
25.680000	-152.713963
25.690000	-128.327898
25.700000	-103.934218
25.710000	-90.794451
25.720000	-80.358447
25.730000	-60.509522
25.740000	-30.070961
25.750000	4.496270
25.760000	40.970085
25.770000	76.241620
25.780000	110.428730
25.790000	146.737599
25.800000	183.616531
25.810000	184.880756
25.820000	117.889774
25.830000	-1.767841
25.840000	-116.311913
25.850000	-183.048614
25.860000	-210.244233
25.870000	-212.604334
25.880000	-210.449161
25.890000	-205.031463
25.900000	-214.624541
25.910000	-235.655548
25.920000	-246.340114
25.930000	-239.242508
25.940000	-240.738603
25.950000	-287.447570
25.960000	-353.889749
25.970000	-400.871427
25.980000	-419.714415
25.990000	-429.293912
26.000000	-434.089066
26.010000	-423.932263
26.020000	-403.092699
26.030000	-392.873295
26.040000	-385.940138
26.050000	-368.719543
26.060000	-346.428098
26.070000	-329.168011
26.080000	-322.492251
26.090000	-309.142399
26.100000	-291.197974
26.110000	-279.729818
26.120000	-268.109967
26.130000	-261.270413
26.140000	-250.906906
26.150000	-247.784558
26.160000	-243.572443
26.170000	-230.554643
26.180000	-212.189457
26.190000	-184.558452
26.200000	-161.442267
26.210000	-156.148011
26.220000	-199.329635
26.230000	-291.575100
26.240000	-405.058934
26.250000	-487.187324
26.260000	-520.471004
26.270000	-508.109248
26.280000	-475.195939
26.290000	-437.925974
26.300000	-393.454337
26.310000	-358.047461
26.320000	-318.884955
26.330000	-279.131465
26.340000	-247.248573
26.350000	-237.482977
26.360000	-253.835499
26.370000	-273.345050
26.380000	-272.003994
26.390000	-252.197217
26.400000	-219.766080
26.410000	-191.329573
26.420000	-163.055740
26.430000	-134.387824
26.440000	-104.260723
26.450000	-68.687922
26.460000	-29.397758
26.470000	13.767653
26.480000	54.531542
26.490000	94.328600
26.500000	129.865563
26.510000	156.971693
26.520000	185.322353
26.530000	216.343714
26.540000	248.188584
26.550000	292.838998
26.560000	347.767086
26.570000	393.038772
26.580000	380.019231
26.590000	305.449152
26.600000	220.172791
26.610000	167.592074
26.620000	159.325537
26.630000	174.398788
26.640000	205.937151
26.650000	242.279327
26.660000	276.315063
26.670000	300.913768
26.680000	335.520082
26.690000	398.298966
26.700000	459.013254
26.710000	502.145840
26.720000	519.949161
26.730000	539.844182
26.740000	563.235297
26.750000	587.620288
26.760000	620.303666
26.770000	655.114815
26.780000	676.434980
26.790000	699.449635
26.800000	734.976774
26.810000	752.760905
26.820000	715.588832
26.830000	622.929074
26.840000	532.784582
26.850000	478.118157
26.860000	460.985227
26.870000	476.377718
26.880000	503.231741
26.890000	535.435065
26.900000	565.230543
26.910000	588.927133
26.920000	616.022531
26.930000	641.135372
26.940000	659.907771
26.950000	662.753089
26.960000	651.916076
26.970000	639.488480
26.980000	628.991523
26.990000	627.658129
27.000000	639.816437
27.010000	659.891400
27.020000	677.385355
27.030000	685.224968
27.040000	684.066425
27.050000	670.638698
27.060000	654.874732
27.070000	639.122583
27.080000	633.796193
27.090000	634.322984
27.100000	637.144790
27.110000	649.644453
27.120000	657.190603
27.130000	652.075946
27.140000	637.691228
27.150000	616.261887
27.160000	553.515906
27.170000	431.981815
27.180000	288.247343
27.190000	186.406301
27.200000	144.610817
27.210000	147.894212
27.220000	182.401459
27.230000	223.443110
27.240000	259.986985
27.250000	277.740389
27.260000	286.061433
27.270000	297.136020
27.280000	311.527835
27.290000	319.259865
27.300000	318.774478
27.310000	320.507050
27.320000	330.432554
27.330000	340.138349
27.340000	343.854797
27.350000	351.904029
27.360000	367.681474
27.370000	390.749245
27.380000	408.564905
27.390000	424.060230
27.400000	438.199465
27.410000	459.147452
27.420000	487.569815
27.430000	518.308324
27.440000	547.032003
27.450000	572.233100
27.460000	595.926597
27.470000	626.598291
27.480000	653.524313
27.490000	672.737827
27.500000	699.931713
27.510000	732.248663
27.520000	739.018196
27.530000	673.470642
27.540000	557.381521
27.550000	449.549431
27.560000	386.772752
27.570000	358.586609
27.580000	355.922554
27.590000	366.034956
27.600000	385.184892
27.610000	394.195227
27.620000	392.586100
27.630000	394.482985
27.640000	398.030644
27.650000	393.502871
27.660000	372.565940
27.670000	348.000857
27.680000	330.849744
27.690000	325.567209
27.700000	328.865248
27.710000	341.564315
27.720000	352.600750
27.730000	368.361823
27.740000	379.712587
27.750000	385.600327
27.760000	387.583555
27.770000	394.945162
27.780000	410.521754
27.790000	425.676575
27.800000	442.908446
27.810000	460.814994
27.820000	479.383152
27.830000	498.035873
27.840000	515.940973
27.850000	532.674825
27.860000	553.598098
27.870000	575.038848
27.880000	592.669764
27.890000	614.519607
27.900000	638.797043
27.910000	625.310597
27.920000	542.028879
27.930000	415.343971
27.940000	309.780475
27.950000	256.701058
27.960000	247.169278
27.970000	265.453804
27.980000	293.632816
27.990000	325.987244
28.000000	353.835152
28.010000	377.960040
28.020000	409.478983
28.030000	442.298431
28.040000	466.524992
28.050000	469.374578
28.060000	462.717491
28.070000	461.537792
28.080000	467.284401
28.090000	484.454034
28.100000	502.888784
28.110000	523.478070
28.120000	534.535807
28.130000	529.259090
28.140000	497.918082
28.150000	446.827185
28.160000	399.089191
28.170000	352.401268
28.180000	310.351956
28.190000	288.750766
28.200000	344.134801
28.210000	484.744287
28.220000	686.601036
28.230000	853.727008
28.240000	957.287581
28.250000	963.538783
28.260000	893.620545
28.270000	812.878035
28.280000	783.015914
28.290000	822.169691
28.300000	889.654796
28.310000	890.383315
28.320000	783.933242
28.330000	579.333276
28.340000	402.167011
28.350000	254.398721
28.360000	108.045588
28.370000	-27.252171
28.380000	-167.744748
28.390000	-310.114159
28.400000	-456.816155
28.410000	-593.863234
28.420000	-672.391056
28.430000	-697.025540
28.440000	-688.944763
28.450000	-729.620485
28.460000	-826.562719
28.470000	-958.403855
28.480000	-1097.431332
28.490000	-1216.791340
28.500000	-1316.308644
28.510000	-1399.792184
28.520000	-1492.180056
28.530000	-1606.362984
28.540000	-1710.197794
28.550000	-1769.197655
28.560000	-1805.976286
28.570000	-1843.637869
28.580000	-1895.666145
28.590000	-1909.167144
28.600000	-1856.697517
28.610000	-1747.736334
28.620000	-1628.100748
28.630000	-1544.914705
28.640000	-1506.001822
28.650000	-1476.247776
28.660000	-1429.533742
28.670000	-1380.298545
28.680000	-1340.331509
28.690000	-1294.214522
28.700000	-1247.794421
28.710000	-1251.860806
28.720000	-1320.764238
28.730000	-1414.297678
28.740000	-1452.565587
28.750000	-1433.221511
28.760000	-1377.372072
28.770000	-1311.768314
28.780000	-1241.727224
28.790000	-1153.871369
28.800000	-1069.117551
28.810000	-991.870100
28.820000	-931.462485
28.830000	-891.795009
28.840000	-869.060708
28.850000	-857.656127
28.860000	-843.577016
28.870000	-815.131429
28.880000	-772.065909
28.890000	-719.897079
28.900000	-663.828435
28.910000	-610.942371
28.920000	-553.157108
28.930000	-497.971566
28.940000	-443.066568
28.950000	-388.949582
28.960000	-329.231446
28.970000	-259.206549
28.980000	-182.025526
28.990000	-104.414253
29.000000	-33.428055
29.010000	30.455270
29.020000	92.577938
29.030000	152.702045
29.040000	210.643365
29.050000	267.678829
29.060000	327.441298
29.070000	381.348136
29.080000	412.609467
29.090000	438.503827
29.100000	446.087474
29.110000	405.338822
29.120000	298.659172
29.130000	177.422852
29.140000	108.666840
29.150000	97.730398
29.160000	121.990701
29.170000	154.418853
29.180000	193.444181
29.190000	141.235354
