Time(s)	RED_denoised_wiener
0.000000	452.936274
0.010000	578.268602
0.020000	522.514059
0.030000	426.252615
0.040000	292.250525
0.050000	131.313070
0.060000	0.166758
0.070000	-67.971461
0.080000	-88.999715
0.090000	-103.605946
0.100000	-99.636980
0.110000	-36.779736
0.120000	70.624939
0.130000	163.304972
0.140000	226.389990
0.150000	260.145040
0.160000	234.451323
0.170000	146.438956
0.180000	3.586023
0.190000	-135.415581
0.200000	-256.357967
0.210000	-334.866101
0.220000	-374.001951
0.230000	-368.920266
0.240000	-312.933631
0.250000	-228.347540
0.260000	-144.846442
0.270000	-85.050329
0.280000	-50.329860
0.290000	-34.361671
0.300000	-35.790657
0.310000	-56.312509
0.320000	-83.845446
0.330000	-96.535722
0.340000	-74.539016
0.350000	-30.147843
0.360000	21.792379
0.370000	66.605096
0.380000	99.849104
0.390000	119.394220
0.400000	130.287999
0.410000	151.917805
0.420000	186.707999
0.430000	228.444643
0.440000	269.483666
0.450000	308.681545
0.460000	359.658039
0.470000	417.892727
0.480000	467.825470
0.490000	480.422893
0.500000	448.407918
0.510000	361.298785
0.520000	238.091791
0.530000	110.562839
0.540000	22.160046
0.550000	0.133987
0.560000	31.134296
0.570000	86.346095
0.580000	116.735706
0.590000	110.676229
0.600000	75.069217
0.610000	25.042760
0.620000	-25.253567
0.630000	-69.600175
0.640000	-92.539407
0.650000	-89.261527
0.660000	-59.494292
0.670000	-11.603929
0.680000	37.870310
0.690000	74.400385
0.700000	89.926461
0.710000	90.783944
0.720000	88.335385
0.730000	92.836019
0.740000	99.039212
0.750000	101.892028
0.760000	94.741302
0.770000	79.306279
0.780000	66.135475
0.790000	70.734566
0.800000	98.501561
0.810000	138.115860
0.820000	186.221033
0.830000	220.776601
0.840000	241.664064
0.850000	244.421343
0.860000	239.810755
0.870000	227.697246
0.880000	182.882277
0.890000	110.382385
0.900000	22.298749
0.910000	-50.222101
0.920000	-104.706225
0.930000	-142.848156
0.940000	-177.084916
0.950000	-209.791546
0.960000	-243.810619
0.970000	-273.391151
0.980000	-298.231863
0.990000	-315.999836
1.000000	-330.017386
1.010000	-351.312515
1.020000	-379.789266
1.030000	-421.660177
1.040000	-460.517419
1.050000	-489.386223
1.060000	-511.627174
1.070000	-529.463095
1.080000	-557.458843
1.090000	-586.831254
1.100000	-608.980489
1.110000	-622.576241
1.120000	-630.872309
1.130000	-638.015313
1.140000	-644.780545
1.150000	-641.786205
1.160000	-639.436881
1.170000	-624.520019
1.180000	-597.826831
1.190000	-569.642418
1.200000	-560.942674
1.210000	-563.381497
1.220000	-543.019453
1.230000	-501.249526
1.240000	-481.243561
1.250000	-561.581391
1.260000	-785.821101
1.270000	-1180.459097
1.280000	-1614.503826
1.290000	-1927.768578
1.300000	-2099.440000
1.310000	-2097.025271
1.320000	-1976.929540
1.330000	-1770.250873
1.340000	-1504.413342
1.350000	-1217.930905
1.360000	-962.273521
1.370000	-828.143809
1.380000	-842.632301
1.390000	-1044.992857
1.400000	-1304.517783
1.410000	-1460.110808
1.420000	-1397.526538
1.430000	-1156.991065
1.440000	-756.261100
1.450000	-410.508017
1.460000	-124.572650
1.470000	68.077767
1.480000	125.229151
1.490000	-3.181767
1.500000	-243.677287
1.510000	-438.257205
1.520000	-507.849054
1.530000	-461.289801
1.540000	-409.350323
1.550000	-338.363977
1.560000	-261.642868
1.570000	-189.815108
1.580000	-192.147947
1.590000	-251.079715
1.600000	-305.251838
1.610000	-332.504901
1.620000	-319.767413
1.630000	-275.376083
1.640000	-216.695455
1.650000	-170.327445
1.660000	-117.554301
1.670000	-42.007672
1.680000	40.776348
1.690000	117.260916
1.700000	195.108078
1.710000	276.122473
1.720000	340.656144
1.730000	380.289661
1.740000	416.895063
1.750000	440.643629
1.760000	448.760062
1.770000	445.623479
1.780000	453.279336
1.790000	483.513755
1.800000	519.658578
1.810000	541.999964
1.820000	539.331661
1.830000	522.817596
1.840000	508.621293
1.850000	504.547920
1.860000	502.468975
1.870000	503.571804
1.880000	507.245848
1.890000	524.895638
1.900000	550.909083
1.910000	588.843905
1.920000	632.143262
1.930000	694.111586
1.940000	769.256816
1.950000	837.269036
1.960000	887.660610
1.970000	923.058558
1.980000	957.357521
1.990000	993.746961
2.000000	1037.989222
2.010000	1097.366696
2.020000	1162.836002
2.030000	1219.228950
2.040000	1258.293868
2.050000	1275.693451
2.060000	1279.042124
2.070000	1273.073663
2.080000	1267.727685
2.090000	1265.689668
2.100000	1258.972351
2.110000	1243.905309
2.120000	1203.099804
2.130000	1125.056936
2.140000	999.817299
2.150000	837.181313
2.160000	648.456736
2.170000	432.522004
2.180000	202.718994
2.190000	-9.839425
2.200000	-179.786152
2.210000	-331.422925
2.220000	-472.331725
2.230000	-599.731673
2.240000	-684.559513
2.250000	-740.579810
2.260000	-798.924114
2.270000	-874.138856
2.280000	-970.350569
2.290000	-1067.054730
2.300000	-1160.915992
2.310000	-1236.028552
2.320000	-1295.961366
2.330000	-1346.769645
2.340000	-1412.149608
2.350000	-1487.528140
2.360000	-1557.403503
2.370000	-1603.040706
2.380000	-1622.801243
2.390000	-1623.340202
2.400000	-1616.645033
2.410000	-1617.746703
2.420000	-1615.850436
2.430000	-1609.612262
2.440000	-1614.201505
2.450000	-1652.934377
2.460000	-1695.840926
2.470000	-1709.348484
2.480000	-1691.335789
2.490000	-1683.652915
2.500000	-1694.508288
2.510000	-1715.682735
2.520000	-1725.080313
2.530000	-1699.146640
2.540000	-1658.545652
2.550000	-1620.707292
2.560000	-1616.487248
2.570000	-1620.553411
2.580000	-1610.209609
2.590000	-1575.876138
2.600000	-1523.415343
2.610000	-1468.333348
2.620000	-1417.706280
2.630000	-1372.883536
2.640000	-1326.081179
2.650000	-1292.940777
2.660000	-1270.180473
2.670000	-1256.112414
2.680000	-1235.352476
2.690000	-1207.101401
2.700000	-1163.950574
2.710000	-1107.559829
2.720000	-1054.701658
2.730000	-1024.135460
2.740000	-1021.194539
2.750000	-1054.499048
2.760000	-1126.449517
2.770000	-1199.198179
2.780000	-1229.469244
2.790000	-1200.082202
2.800000	-1143.739417
2.810000	-1092.745453
2.820000	-1058.399091
2.830000	-1030.463616
2.840000	-1008.199102
2.850000	-991.297403
2.860000	-983.123821
2.870000	-977.218998
2.880000	-981.202167
2.890000	-996.906488
2.900000	-1017.371635
2.910000	-1032.367085
2.920000	-1037.673177
2.930000	-1025.934772
2.940000	-994.436627
2.950000	-945.966862
2.960000	-900.362976
2.970000	-872.768908
2.980000	-861.693254
2.990000	-854.991414
3.000000	-837.464957
3.010000	-814.720964
3.020000	-779.985974
3.030000	-733.252493
3.040000	-671.281583
3.050000	-606.945141
3.060000	-552.692965
3.070000	-514.403398
3.080000	-489.865844
3.090000	-469.291273
3.100000	-448.504624
3.110000	-424.633252
3.120000	-394.593393
3.130000	-362.445463
3.140000	-335.475000
3.150000	-316.696624
3.160000	-286.745856
3.170000	-228.738676
3.180000	-142.847664
3.190000	-47.949567
3.200000	48.965683
3.210000	134.370737
3.220000	205.023071
3.230000	260.247192
3.240000	303.641272
3.250000	344.354610
3.260000	372.756915
3.270000	390.040744
3.280000	393.744814
3.290000	397.653757
3.300000	420.963129
3.310000	470.448171
3.320000	519.973191
3.330000	553.819960
3.340000	572.576755
3.350000	605.820030
3.360000	633.258630
3.370000	643.058547
3.380000	614.130241
3.390000	578.324227
3.400000	558.859835
3.410000	557.078099
3.420000	579.150904
3.430000	595.281306
3.440000	620.780575
3.450000	625.908732
3.460000	630.761656
3.470000	638.370391
3.480000	649.617840
3.490000	650.672537
3.500000	635.375892
3.510000	621.922254
3.520000	624.002144
3.530000	639.341908
3.540000	658.154755
3.550000	681.337774
3.560000	698.823989
3.570000	712.914212
3.580000	721.026275
3.590000	721.706736
3.600000	712.438480
3.610000	684.695444
3.620000	655.132376
3.630000	628.864829
3.640000	608.364549
3.650000	570.509286
3.660000	525.566959
3.670000	503.085048
3.680000	522.285848
3.690000	570.116819
3.700000	600.792634
3.710000	576.381101
3.720000	500.624632
3.730000	420.641738
3.740000	326.844565
3.750000	249.221219
3.760000	183.513711
3.770000	153.086299
3.780000	158.329279
3.790000	183.449572
3.800000	229.734189
3.810000	267.603617
3.820000	302.109550
3.830000	370.053317
3.840000	481.954293
3.850000	626.317231
3.860000	788.665304
3.870000	951.781183
3.880000	1120.644616
3.890000	1280.063499
3.900000	1417.504757
3.910000	1510.190957
3.920000	1537.577387
3.930000	1515.959023
3.940000	1463.193462
3.950000	1402.948585
3.960000	1360.352124
3.970000	1339.752685
3.980000	1360.088826
3.990000	1419.704537
4.000000	1507.670715
4.010000	1600.157943
4.020000	1644.042118
4.030000	1610.213595
4.040000	1504.712655
4.050000	1360.211277
4.060000	1211.925346
4.070000	1072.347991
4.080000	956.011344
4.090000	858.633663
4.100000	781.980836
4.110000	723.440438
4.120000	683.491520
4.130000	673.141733
4.140000	679.802562
4.150000	690.707265
4.160000	699.996857
4.170000	710.159554
4.180000	729.737825
4.190000	734.384428
4.200000	729.088492
4.210000	720.810040
4.220000	723.987885
4.230000	735.381469
4.240000	754.421844
4.250000	778.139716
4.260000	791.014250
4.270000	794.804516
4.280000	791.131536
4.290000	792.691156
4.300000	776.007054
4.310000	728.464696
4.320000	653.115479
4.330000	592.870402
4.340000	567.348760
4.350000	572.399117
4.360000	589.396717
4.370000	614.488959
4.380000	621.235980
4.390000	570.062187
4.400000	465.047393
4.410000	337.896314
4.420000	238.760605
4.430000	189.837569
4.440000	178.895935
4.450000	191.622553
4.460000	203.853089
4.470000	223.343523
4.480000	255.651952
4.490000	288.195176
4.500000	318.658958
4.510000	318.487453
4.520000	287.255351
4.530000	247.019695
4.540000	227.049189
4.550000	238.011238
4.560000	254.587332
4.570000	267.890471
4.580000	268.298764
4.590000	254.968537
4.600000	231.864205
4.610000	198.207122
4.620000	162.294193
4.630000	127.939088
4.640000	96.890278
4.650000	62.151545
4.660000	7.297712
4.670000	-69.091469
4.680000	-156.091561
4.690000	-243.835263
4.700000	-331.337033
4.710000	-444.819518
4.720000	-602.727467
4.730000	-797.566111
4.740000	-984.516226
4.750000	-1129.844575
4.760000	-1225.878562
4.770000	-1296.712864
4.780000	-1364.070860
4.790000	-1421.340360
4.800000	-1455.081989
4.810000	-1470.189668
4.820000	-1482.963105
4.830000	-1519.571936
4.840000	-1560.892852
4.850000	-1601.832944
4.860000	-1650.700108
4.870000	-1714.932752
4.880000	-1793.659538
4.890000	-1846.432659
4.900000	-1862.877488
4.910000	-1870.212183
4.920000	-1897.276691
4.930000	-1940.747254
4.940000	-1979.136971
4.950000	-2013.522326
4.960000	-2054.869495
4.970000	-2100.438540
4.980000	-2137.085927
4.990000	-2166.575196
5.000000	-2188.141915
5.010000	-2205.236916
5.020000	-2228.732082
5.030000	-2272.086500
5.040000	-2350.173839
5.050000	-2453.717726
5.060000	-2566.778854
5.070000	-2651.136217
5.080000	-2698.982755
5.090000	-2718.781622
5.100000	-2745.441708
5.110000	-2780.183755
5.120000	-2802.022417
5.130000	-2779.740672
5.140000	-2714.207594
5.150000	-2656.284677
5.160000	-2650.558738
5.170000	-2698.894615
5.180000	-2761.980112
5.190000	-2811.384470
5.200000	-2855.686520
5.210000	-2902.722339
5.220000	-2947.206930
5.230000	-2975.554082
5.240000	-2980.260671
5.250000	-2965.267145
5.260000	-2933.160498
5.270000	-2884.156726
5.280000	-2831.946908
5.290000	-2779.533046
5.300000	-2739.943461
5.310000	-2723.751718
5.320000	-2728.419566
5.330000	-2752.154459
5.340000	-2797.088241
5.350000	-2878.775610
5.360000	-2978.176513
5.370000	-3045.493284
5.380000	-3056.515764
5.390000	-3033.184763
5.400000	-3001.379211
5.410000	-2968.672323
5.420000	-2932.728092
5.430000	-2904.709216
5.440000	-2881.549739
5.450000	-2860.257728
5.460000	-2842.561987
5.470000	-2837.336368
5.480000	-2841.384436
5.490000	-2834.544596
5.500000	-2815.099877
5.510000	-2782.598094
5.520000	-2750.361058
5.530000	-2731.491660
5.540000	-2735.452319
5.550000	-2762.867091
5.560000	-2782.294360
5.570000	-2777.455712
5.580000	-2736.987451
5.590000	-2687.986845
5.600000	-2640.804062
5.610000	-2610.366023
5.620000	-2584.046411
5.630000	-2558.939238
5.640000	-2549.837285
5.650000	-2566.664886
5.660000	-2599.405069
5.670000	-2609.142036
5.680000	-2598.583894
5.690000	-2581.478719
5.700000	-2570.588367
5.710000	-2562.932984
5.720000	-2558.093135
5.730000	-2555.545991
5.740000	-2545.396935
5.750000	-2531.353529
5.760000	-2515.184965
5.770000	-2508.342912
5.780000	-2505.080024
5.790000	-2491.128830
5.800000	-2465.162882
5.810000	-2423.058289
5.820000	-2385.798211
5.830000	-2352.744147
5.840000	-2343.303306
5.850000	-2349.167501
5.860000	-2351.592248
5.870000	-2342.431356
5.880000	-2321.379650
5.890000	-2302.543901
5.900000	-2290.615802
5.910000	-2296.145968
5.920000	-2310.270869
5.930000	-2344.942905
5.940000	-2404.040234
5.950000	-2489.870768
5.960000	-2561.825714
5.970000	-2586.952380
5.980000	-2574.525280
5.990000	-2538.510354
6.000000	-2501.711282
6.010000	-2466.472970
6.020000	-2436.694375
6.030000	-2406.199375
6.040000	-2370.472112
6.050000	-2328.390461
6.060000	-2294.413265
6.070000	-2268.995618
6.080000	-2253.808856
6.090000	-2239.687325
6.100000	-2208.294107
6.110000	-2161.548039
6.120000	-2114.259981
6.130000	-2095.558451
6.140000	-2100.574668
6.150000	-2111.306782
6.160000	-2121.694597
6.170000	-2128.166165
6.180000	-2138.615331
6.190000	-2157.116119
6.200000	-2181.952959
6.210000	-2202.138457
6.220000	-2217.416287
6.230000	-2256.000245
6.240000	-2327.922613
6.250000	-2409.193188
6.260000	-2467.495657
6.270000	-2500.890790
6.280000	-2519.855651
6.290000	-2535.675066
6.300000	-2536.568343
6.310000	-2522.907011
6.320000	-2491.350024
6.330000	-2457.267746
6.340000	-2433.533775
6.350000	-2423.676588
6.360000	-2430.454016
6.370000	-2462.839258
6.380000	-2521.753701
6.390000	-2573.640242
6.400000	-2588.460832
6.410000	-2558.231001
6.420000	-2525.032751
6.430000	-2523.192458
6.440000	-2563.596999
6.450000	-2584.342054
6.460000	-2564.660307
6.470000	-2528.665654
6.480000	-2505.786923
6.490000	-2496.289158
6.500000	-2493.940312
6.510000	-2485.602909
6.520000	-2465.821929
6.530000	-2422.603728
6.540000	-2405.241451
6.550000	-2431.217954
6.560000	-2475.242121
6.570000	-2511.527287
6.580000	-2533.656948
6.590000	-2567.283461
6.600000	-2607.343967
6.610000	-2630.343340
6.620000	-2624.080762
6.630000	-2614.858802
6.640000	-2620.140838
6.650000	-2620.284286
6.660000	-2578.831025
6.670000	-2493.477552
6.680000	-2381.580179
6.690000	-2284.071521
6.700000	-2204.560400
6.710000	-2168.389712
6.720000	-2138.364317
6.730000	-2087.395377
6.740000	-1998.854253
6.750000	-1896.500153
6.760000	-1831.404937
6.770000	-1803.781843
6.780000	-1819.618938
6.790000	-1863.650123
6.800000	-1914.458514
6.810000	-1961.521617
6.820000	-2006.301774
6.830000	-2050.027366
6.840000	-2077.732907
6.850000	-2058.786545
6.860000	-2004.907582
6.870000	-1946.220912
6.880000	-1910.029877
6.890000	-1901.547365
6.900000	-1887.329469
6.910000	-1856.884361
6.920000	-1810.938063
6.930000	-1771.889751
6.940000	-1725.385240
6.950000	-1667.527376
6.960000	-1592.427772
6.970000	-1524.513052
6.980000	-1462.327958
6.990000	-1413.449554
7.000000	-1378.131317
7.010000	-1359.313982
7.020000	-1354.838462
7.030000	-1358.749686
7.040000	-1387.185222
7.050000	-1422.000724
7.060000	-1455.801546
7.070000	-1457.423725
7.080000	-1432.419827
7.090000	-1389.420147
7.100000	-1349.969058
7.110000	-1322.941087
7.120000	-1311.726373
7.130000	-1306.646435
7.140000	-1298.703002
7.150000	-1277.896951
7.160000	-1252.942743
7.170000	-1234.695514
7.180000	-1231.381210
7.190000	-1225.626821
7.200000	-1212.387020
7.210000	-1180.070724
7.220000	-1139.983374
7.230000	-1095.350499
7.240000	-1062.470767
7.250000	-1039.766703
7.260000	-1026.142061
7.270000	-1025.375923
7.280000	-1041.992067
7.290000	-1079.489363
7.300000	-1109.257947
7.310000	-1138.201426
7.320000	-1157.311553
7.330000	-1180.805718
7.340000	-1203.136312
7.350000	-1229.261296
7.360000	-1269.461774
7.370000	-1307.794574
7.380000	-1335.286412
7.390000	-1345.812671
7.400000	-1346.955979
7.410000	-1343.627659
7.420000	-1335.746333
7.430000	-1333.602563
7.440000	-1332.624216
7.450000	-1310.654432
7.460000	-1271.696115
7.470000	-1240.214900
7.480000	-1228.182985
7.490000	-1207.444652
7.500000	-1163.149435
7.510000	-1109.861763
7.520000	-1053.863229
7.530000	-982.660917
7.540000	-876.320370
7.550000	-749.315197
7.560000	-598.486534
7.570000	-437.770710
7.580000	-286.418394
7.590000	-168.320216
7.600000	-65.981317
7.610000	53.096610
7.620000	171.914793
7.630000	277.455873
7.640000	352.400443
7.650000	418.192814
7.660000	478.110595
7.670000	528.855944
7.680000	571.446696
7.690000	582.402395
7.700000	572.497330
7.710000	561.597439
7.720000	566.833910
7.730000	591.718364
7.740000	630.778932
7.750000	699.533212
7.760000	807.346484
7.770000	947.947689
7.780000	1117.900877
7.790000	1295.293615
7.800000	1472.479783
7.810000	1652.992034
7.820000	1852.750955
7.830000	2061.279300
7.840000	2263.005919
7.850000	2451.927048
7.860000	2644.326043
7.870000	2835.189978
7.880000	3021.662142
7.890000	3211.495128
7.900000	3411.678906
7.910000	3617.788010
7.920000	3821.707593
7.930000	4036.163141
7.940000	4248.360794
7.950000	4437.213001
7.960000	4574.695331
7.970000	4683.104313
7.980000	4773.037135
7.990000	4843.673129
8.000000	4904.117835
8.010000	4959.946621
8.020000	5021.929883
8.030000	5077.542554
8.040000	5131.845971
8.050000	5187.189392
8.060000	5245.822725
8.070000	5305.554187
8.080000	5360.856326
8.090000	5406.655391
8.100000	5452.333915
8.110000	5509.168501
8.120000	5578.860964
8.130000	5660.753240
8.140000	5731.405871
8.150000	5801.848696
8.160000	5871.336731
8.170000	5958.417648
8.180000	6050.270785
8.190000	6133.075342
8.200000	6211.683049
8.210000	6287.820107
8.220000	6358.513423
8.230000	6412.976417
8.240000	6455.152541
8.250000	6501.604248
8.260000	6560.206529
8.270000	6617.614357
8.280000	6660.369221
8.290000	6694.455297
8.300000	6731.326071
8.310000	6761.686717
8.320000	6770.048333
8.330000	6759.753867
8.340000	6754.278100
8.350000	6765.576418
8.360000	6785.908935
8.370000	6802.508404
8.380000	6822.719622
8.390000	6851.894190
8.400000	6883.959491
8.410000	6914.412757
8.420000	6945.347147
8.430000	6977.725714
8.440000	7006.851198
8.450000	7031.848849
8.460000	7074.551658
8.470000	7137.387044
8.480000	7206.008679
8.490000	7266.062077
8.500000	7317.643101
8.510000	7368.897738
8.520000	7428.083776
8.530000	7488.164721
8.540000	7548.683185
8.550000	7609.574068
8.560000	7672.763260
8.570000	7739.791418
8.580000	7805.634848
8.590000	7863.480497
8.600000	7898.294219
8.610000	7907.347406
8.620000	7890.438185
8.630000	7865.742687
8.640000	7812.620288
8.650000	7712.622213
8.660000	7565.998734
8.670000	7379.665072
8.680000	7172.220962
8.690000	6956.837995
8.700000	6750.598807
8.710000	6564.137940
8.720000	6400.767755
8.730000	6243.526521
8.740000	6076.750988
8.750000	5879.043094
8.760000	5647.595344
8.770000	5381.039966
8.780000	5080.521330
8.790000	4769.711786
8.800000	4462.130898
8.810000	4175.950693
8.820000	3913.536457
8.830000	3698.189681
8.840000	3531.801747
8.850000	3399.521439
8.860000	3291.886607
8.870000	3181.274077
8.880000	3085.900767
8.890000	3007.450651
8.900000	2959.415967
8.910000	2928.688684
8.920000	2910.420931
8.930000	2902.065987
8.940000	2890.194809
8.950000	2874.610940
8.960000	2848.079815
8.970000	2825.345852
8.980000	2799.367023
8.990000	2786.272209
9.000000	2786.070174
9.010000	2800.997299
9.020000	2824.875206
9.030000	2858.198071
9.040000	2904.478226
9.050000	2947.466589
9.060000	2980.896329
9.070000	3013.228849
9.080000	3059.451249
9.090000	3115.055377
9.100000	3161.751698
9.110000	3190.690095
9.120000	3212.887840
9.130000	3232.753296
9.140000	3260.151093
9.150000	3294.899832
9.160000	3348.890548
9.170000	3404.406855
9.180000	3447.748247
9.190000	3475.715323
9.200000	3514.457857
9.210000	3579.765315
9.220000	3632.786029
9.230000	3661.656705
9.240000	3672.596415
9.250000	3692.703247
9.260000	3716.747718
9.270000	3732.826376
9.280000	3744.702156
9.290000	3753.367165
9.300000	3769.105860
9.310000	3792.637210
9.320000	3827.939140
9.330000	3862.948894
9.340000	3891.205213
9.350000	3913.696805
9.360000	3939.574468
9.370000	3975.182749
9.380000	4011.645945
9.390000	4038.406357
9.400000	4060.835023
9.410000	4093.059410
9.420000	4136.392484
9.430000	4180.081061
9.440000	4222.040292
9.450000	4260.501560
9.460000	4302.441515
9.470000	4340.610437
9.480000	4364.225180
9.490000	4367.790652
9.500000	4354.086361
9.510000	4349.087314
9.520000	4357.272495
9.530000	4374.074349
9.540000	4386.816109
9.550000	4402.827257
9.560000	4428.398941
9.570000	4462.934436
9.580000	4495.658095
9.590000	4524.768272
9.600000	4554.633908
9.610000	4583.616324
9.620000	4604.623104
9.630000	4610.155908
9.640000	4601.326183
9.650000	4589.411209
9.660000	4588.388672
9.670000	4591.960316
9.680000	4601.485831
9.690000	4611.167513
9.700000	4617.932305
9.710000	4610.357664
9.720000	4580.725532
9.730000	4551.631650
9.740000	4535.488668
9.750000	4537.213532
9.760000	4548.875580
9.770000	4571.141975
9.780000	4607.256369
9.790000	4633.313145
9.800000	4624.950330
9.810000	4596.234722
9.820000	4581.675705
9.830000	4595.071729
9.840000	4613.603169
9.850000	4628.914780
9.860000	4642.521018
9.870000	4655.717436
9.880000	4656.359058
9.890000	4653.532387
9.900000	4668.848989
9.910000	4701.901164
9.920000	4738.244792
9.930000	4749.506195
9.940000	4733.650844
9.950000	4696.066216
9.960000	4647.335772
9.970000	4595.881543
9.980000	4525.878623
9.990000	4438.999362
10.000000	4354.387112
10.010000	4271.978603
10.020000	4199.160066
10.030000	4135.175956
10.040000	4086.857440
10.050000	4037.207862
10.060000	3979.479351
10.070000	3927.188179
10.080000	3896.330499
10.090000	3857.596131
10.100000	3787.412435
10.110000	3715.361373
10.120000	3662.010485
10.130000	3644.988967
10.140000	3624.316924
10.150000	3595.242775
10.160000	3563.176880
10.170000	3528.337388
10.180000	3495.901627
10.190000	3470.611391
10.200000	3460.812921
10.210000	3458.346076
10.220000	3453.221223
10.230000	3437.584656
10.240000	3417.829325
10.250000	3389.951302
10.260000	3364.630308
10.270000	3344.109906
10.280000	3319.879437
10.290000	3276.389393
10.300000	3217.651689
10.310000	3165.516430
10.320000	3138.542596
10.330000	3118.332108
10.340000	3098.585979
10.350000	3084.628032
10.360000	3091.767504
10.370000	3115.308769
10.380000	3120.635629
10.390000	3078.435184
10.400000	2987.006354
10.410000	2869.385269
10.420000	2648.520183
10.430000	2308.903548
10.440000	1719.386237
10.450000	1034.561165
10.460000	201.358449
10.470000	-765.007558
10.480000	-1725.578115
10.490000	-2513.209681
10.500000	-3101.208692
10.510000	-3633.413515
10.520000	-4084.222302
10.530000	-4369.584700
10.540000	-4595.531063
10.550000	-4795.233877
10.560000	-4949.434408
10.570000	-5040.201726
10.580000	-5089.767377
10.590000	-5157.261159
10.600000	-5261.985427
10.610000	-5393.236846
10.620000	-5520.485184
10.630000	-5629.263614
10.640000	-5741.429102
10.650000	-5858.917459
10.660000	-5976.372142
10.670000	-6066.868544
10.680000	-6112.366687
10.690000	-6121.590825
10.700000	-6125.791336
10.710000	-6146.993180
10.720000	-6189.877567
10.730000	-6245.404166
10.740000	-6309.694688
10.750000	-6395.581451
10.760000	-6498.521474
10.770000	-6613.485065
10.780000	-6721.374191
10.790000	-6800.115275
10.800000	-6831.977092
10.810000	-6816.200473
10.820000	-6777.394782
10.830000	-6752.066823
10.840000	-6750.157971
10.850000	-6747.260573
10.860000	-6737.731010
10.870000	-6718.556389
10.880000	-6705.787735
10.890000	-6690.551518
10.900000	-6647.570243
10.910000	-6565.692645
10.920000	-6460.536459
10.930000	-6349.618782
10.940000	-6253.627415
10.950000	-6178.289390
10.960000	-6138.866276
10.970000	-6124.679921
10.980000	-6118.547852
10.990000	-6114.230461
11.000000	-6107.032961
11.010000	-6073.197230
11.020000	-5982.638541
11.030000	-5823.688315
11.040000	-5602.101561
11.050000	-5351.401065
11.060000	-5100.031810
11.070000	-4927.069795
11.080000	-4855.293395
11.090000	-4865.778960
11.100000	-4880.550072
11.110000	-4862.760659
11.120000	-4829.449900
11.130000	-4792.893313
11.140000	-4728.080216
11.150000	-4588.802806
11.160000	-4409.101462
11.170000	-4252.632934
11.180000	-4135.165879
11.190000	-4017.488799
11.200000	-3876.453178
11.210000	-3733.314047
11.220000	-3622.292147
11.230000	-3561.279117
11.240000	-3540.575261
11.250000	-3541.073505
11.260000	-3542.044285
11.270000	-3555.483329
11.280000	-3578.666932
11.290000	-3585.023515
11.300000	-3555.842151
11.310000	-3495.158924
11.320000	-3434.627715
11.330000	-3391.457537
11.340000	-3359.553849
11.350000	-3318.589980
11.360000	-3264.733197
11.370000	-3202.621903
11.380000	-3155.842413
11.390000	-3126.139926
11.400000	-3112.825942
11.410000	-3102.505602
11.420000	-3102.416894
11.430000	-3111.734734
11.440000	-3130.898416
11.450000	-3153.500303
11.460000	-3165.248317
11.470000	-3157.506210
11.480000	-3127.507229
11.490000	-3108.171088
11.500000	-3109.264885
11.510000	-3128.031930
11.520000	-3140.529385
11.530000	-3154.546279
11.540000	-3181.371152
11.550000	-3215.583675
11.560000	-3248.440660
11.570000	-3264.507466
11.580000	-3270.476939
11.590000	-3264.314486
11.600000	-3245.759805
11.610000	-3222.051644
11.620000	-3201.623301
11.630000	-3194.037040
11.640000	-3199.039408
11.650000	-3226.296999
11.660000	-3288.044279
11.670000	-3360.373776
11.680000	-3414.285603
11.690000	-3423.710041
11.700000	-3403.558568
11.710000	-3366.292952
11.720000	-3310.380743
11.730000	-3223.768862
11.740000	-3099.472962
11.750000	-2949.219826
11.760000	-2787.163029
11.770000	-2635.952812
11.780000	-2487.695373
11.790000	-2367.035468
11.800000	-2303.836467
11.810000	-2338.074417
11.820000	-2481.161711
11.830000	-2696.244138
11.840000	-2950.094313
11.850000	-3201.322876
11.860000	-3412.636956
11.870000	-3532.963227
11.880000	-3527.156795
11.890000	-3352.851154
11.900000	-3036.842363
11.910000	-2510.536495
11.920000	-1986.002797
11.930000	-1618.473945
11.940000	-1406.660787
11.950000	-1339.298336
11.960000	-1342.398578
11.970000	-1369.449899
11.980000	-1417.862619
11.990000	-1484.539501
12.000000	-1543.537151
12.010000	-1567.231525
12.020000	-1573.945374
12.030000	-1560.806611
12.040000	-1494.879404
12.050000	-1353.351643
12.060000	-1181.275722
12.070000	-1020.831755
12.080000	-894.895722
12.090000	-789.487735
12.100000	-715.194011
12.110000	-695.791141
12.120000	-740.731197
12.130000	-831.295787
12.140000	-914.787369
12.150000	-966.155709
12.160000	-988.533980
12.170000	-992.649873
12.180000	-976.526091
12.190000	-930.069147
12.200000	-864.524546
12.210000	-788.763293
12.220000	-706.122852
12.230000	-631.103466
12.240000	-574.326181
12.250000	-548.064160
12.260000	-531.387938
12.270000	-521.023267
12.280000	-512.396342
12.290000	-509.289165
12.300000	-509.004414
12.310000	-500.483181
12.320000	-482.591112
12.330000	-450.619025
12.340000	-407.818263
12.350000	-366.732588
12.360000	-332.310353
12.370000	-313.142223
12.380000	-315.415510
12.390000	-350.519412
12.400000	-443.845988
12.410000	-587.425423
12.420000	-749.164253
12.430000	-894.946845
12.440000	-1000.798252
12.450000	-1051.446966
12.460000	-1042.416937
12.470000	-984.611264
12.480000	-922.082167
12.490000	-867.311238
12.500000	-834.374378
12.510000	-815.239971
12.520000	-807.638766
12.530000	-807.787763
12.540000	-803.169242
12.550000	-792.657109
12.560000	-775.992549
12.570000	-760.504592
12.580000	-743.746477
12.590000	-722.307066
12.600000	-697.471107
12.610000	-673.743013
12.620000	-643.119504
12.630000	-618.528054
12.640000	-599.021544
12.650000	-602.991436
12.660000	-633.841118
12.670000	-686.390077
12.680000	-744.924061
12.690000	-797.424630
12.700000	-846.673536
12.710000	-891.073156
12.720000	-915.344885
12.730000	-913.038820
12.740000	-889.341185
12.750000	-851.636947
12.760000	-809.637055
12.770000	-768.850132
12.780000	-738.570003
12.790000	-718.998436
12.800000	-701.438671
12.810000	-679.446487
12.820000	-654.288808
12.830000	-627.856599
12.840000	-604.439265
12.850000	-577.196591
12.860000	-552.920993
12.870000	-524.458814
12.880000	-498.735295
12.890000	-470.982862
12.900000	-445.200982
12.910000	-423.796536
12.920000	-401.272317
12.930000	-390.621708
12.940000	-398.286390
12.950000	-432.078061
12.960000	-471.851108
12.970000	-496.826784
12.980000	-509.774622
12.990000	-516.210509
13.000000	-525.001468
13.010000	-524.164429
13.020000	-517.565972
13.030000	-500.722868
13.040000	-475.107610
13.050000	-444.916218
13.060000	-416.950486
13.070000	-401.078718
13.080000	-395.388378
13.090000	-395.194287
13.100000	-387.096324
13.110000	-371.976375
13.120000	-345.082725
13.130000	-323.779768
13.140000	-300.293941
13.150000	-281.584111
13.160000	-264.437666
13.170000	-250.361821
13.180000	-241.543617
13.190000	-225.392590
13.200000	-212.005480
13.210000	-194.002241
13.220000	-183.815259
13.230000	-192.234161
13.240000	-225.572806
13.250000	-274.382797
13.260000	-305.892916
13.270000	-318.911398
13.280000	-323.537206
13.290000	-337.420516
13.300000	-356.080426
13.310000	-367.535349
13.320000	-363.927891
13.330000	-338.947278
13.340000	-308.796636
13.350000	-283.969563
13.360000	-275.292257
13.370000	-270.220211
13.380000	-262.096522
13.390000	-247.104386
13.400000	-227.208977
13.410000	-207.957291
13.420000	-186.925013
13.430000	-169.791173
13.440000	-147.893626
13.450000	-130.633210
13.460000	-114.786016
13.470000	-105.790733
13.480000	-96.602389
13.490000	-82.913953
13.500000	-72.744030
13.510000	-62.964546
13.520000	-63.546209
13.530000	-78.289324
13.540000	-110.972699
13.550000	-152.870697
13.560000	-178.978654
13.570000	-189.478662
13.580000	-194.970537
13.590000	-201.030043
13.600000	-205.230890
13.610000	-198.185985
13.620000	-183.818044
13.630000	-167.302175
13.640000	-152.692153
13.650000	-140.030608
13.660000	-136.542476
13.670000	-132.669324
13.680000	-127.706720
13.690000	-117.254048
13.700000	-105.517317
13.710000	-93.786699
13.720000	-83.283549
13.730000	-73.938181
13.740000	-65.337769
13.750000	-52.365560
13.760000	-42.715877
13.770000	-39.736252
13.780000	-38.693595
13.790000	-31.385771
13.800000	-15.977036
13.810000	-3.358367
13.820000	1.801941
13.830000	-12.305132
13.840000	-45.674407
13.850000	-90.518177
13.860000	-121.724043
13.870000	-141.426814
13.880000	-153.064562
13.890000	-169.314680
13.900000	-180.965362
13.910000	-185.842155
13.920000	-182.822542
13.930000	-171.658735
13.940000	-156.645445
13.950000	-140.089643
13.960000	-130.772459
13.970000	-126.777372
13.980000	-128.191049
13.990000	-120.711528
14.000000	-106.273386
14.010000	-83.254938
14.020000	-65.015760
14.030000	-49.708674
14.040000	-37.381967
14.050000	-24.103305
14.060000	-12.049984
14.070000	-3.449638
14.080000	6.683714
14.090000	17.235978
14.100000	31.812544
14.110000	44.277140
14.120000	54.339867
14.130000	56.352820
14.140000	42.243230
14.150000	5.816491
14.160000	-43.093085
14.170000	-84.308335
14.180000	-106.737795
14.190000	-123.115240
14.200000	-145.998529
14.210000	-169.822076
14.220000	-183.192833
14.230000	-183.836732
14.240000	-186.048615
14.250000	-191.766616
14.260000	-204.190225
14.270000	-215.615444
14.280000	-224.296952
14.290000	-226.741413
14.300000	-221.691619
14.310000	-215.169028
14.320000	-203.340729
14.330000	-189.898672
14.340000	-176.264818
14.350000	-162.238256
14.360000	-152.148931
14.370000	-140.164022
14.380000	-131.009319
14.390000	-123.019355
14.400000	-115.485968
14.410000	-111.832846
14.420000	-103.208892
14.430000	-96.970683
14.440000	-88.846215
14.450000	-102.130415
14.460000	-136.030067
14.470000	-187.897583
14.480000	-233.433486
14.490000	-261.981096
14.500000	-283.505588
14.510000	-301.659149
14.520000	-320.189668
14.530000	-334.927003
14.540000	-340.816029
14.550000	-341.830863
14.560000	-334.700190
14.570000	-328.379164
14.580000	-328.185042
14.590000	-333.521725
14.600000	-340.604791
14.610000	-339.925368
14.620000	-336.340616
14.630000	-330.928394
14.640000	-324.685792
14.650000	-309.181574
14.660000	-289.009263
14.670000	-268.376017
14.680000	-256.288043
14.690000	-247.807423
14.700000	-245.194988
14.710000	-239.148593
14.720000	-234.749423
14.730000	-229.075562
14.740000	-217.573615
14.750000	-207.976973
14.760000	-197.308876
14.770000	-208.890889
14.780000	-242.586435
14.790000	-294.400720
14.800000	-342.086827
14.810000	-366.525220
14.820000	-378.608844
14.830000	-394.603449
14.840000	-418.703120
14.850000	-436.235048
14.860000	-441.092552
14.870000	-437.834003
14.880000	-429.415413
14.890000	-420.709148
14.900000	-409.990842
14.910000	-407.554415
14.920000	-406.455795
14.930000	-405.351686
14.940000	-400.182994
14.950000	-390.093875
14.960000	-381.867037
14.970000	-371.742717
14.980000	-364.175658
14.990000	-354.301049
15.000000	-351.123864
15.010000	-341.399494
15.020000	-331.059024
15.030000	-319.413774
15.040000	-317.627148
15.050000	-315.636558
15.060000	-313.489565
15.070000	-307.114274
15.080000	-309.999514
15.090000	-332.181523
15.100000	-368.399512
15.110000	-407.163440
15.120000	-427.371265
15.130000	-434.148591
15.140000	-437.286737
15.150000	-445.394434
15.160000	-456.770867
15.170000	-463.553360
15.180000	-461.193802
15.190000	-453.665083
15.200000	-439.865216
15.210000	-426.059143
15.220000	-420.136213
15.230000	-424.365905
15.240000	-427.297340
15.250000	-421.611505
15.260000	-410.414264
15.270000	-407.145657
15.280000	-410.751214
15.290000	-410.579619
15.300000	-401.027861
15.310000	-389.307602
15.320000	-383.231307
15.330000	-382.270815
15.340000	-377.001443
15.350000	-367.517615
15.360000	-355.700241
15.370000	-343.688526
15.380000	-339.337786
15.390000	-342.760859
15.400000	-365.930229
15.410000	-409.390435
15.420000	-462.747561
15.430000	-511.931142
15.440000	-539.810682
15.450000	-559.809589
15.460000	-581.115614
15.470000	-605.253387
15.480000	-624.648235
15.490000	-630.947342
15.500000	-630.138816
15.510000	-624.883670
15.520000	-623.897139
15.530000	-628.049161
15.540000	-638.907682
15.550000	-649.440926
15.560000	-654.506229
15.570000	-655.098612
15.580000	-650.014043
15.590000	-646.694928
15.600000	-644.413871
15.610000	-639.864847
15.620000	-630.061490
15.630000	-616.961483
15.640000	-605.296086
15.650000	-600.305092
15.660000	-594.407257
15.670000	-590.254805
15.680000	-579.064555
15.690000	-567.156404
15.700000	-557.288675
15.710000	-557.649046
15.720000	-582.438297
15.730000	-628.669657
15.740000	-684.137291
15.750000	-724.564653
15.760000	-745.798604
15.770000	-763.754656
15.780000	-785.675484
15.790000	-805.480283
15.800000	-820.466685
15.810000	-826.105420
15.820000	-825.850489
15.830000	-812.605064
15.840000	-798.189207
15.850000	-793.337484
15.860000	-798.401292
15.870000	-806.284122
15.880000	-808.510381
15.890000	-804.485979
15.900000	-796.192891
15.910000	-792.271906
15.920000	-787.736519
15.930000	-786.313070
15.940000	-782.151238
15.950000	-778.943922
15.960000	-777.119879
15.970000	-774.797389
15.980000	-773.325758
15.990000	-765.856098
16.000000	-756.121184
16.010000	-743.128367
16.020000	-737.173537
16.030000	-733.584826
16.040000	-746.836481
16.050000	-778.563393
16.060000	-821.698930
16.070000	-863.749819
16.080000	-887.771270
16.090000	-907.575521
16.100000	-924.028862
16.110000	-942.634105
16.120000	-954.800560
16.130000	-951.911426
16.140000	-939.830157
16.150000	-917.721123
16.160000	-897.110459
16.170000	-881.056953
16.180000	-875.614340
16.190000	-884.935542
16.200000	-899.628284
16.210000	-916.711619
16.220000	-932.519501
16.230000	-953.059357
16.240000	-969.581208
16.250000	-987.656711
16.260000	-996.139865
16.270000	-989.478206
16.280000	-960.234698
16.290000	-923.903270
16.300000	-892.192281
16.310000	-868.511243
16.320000	-857.023521
16.330000	-857.310762
16.340000	-869.058381
16.350000	-874.932738
16.360000	-891.722021
16.370000	-922.050062
16.380000	-970.257143
16.390000	-1017.970950
16.400000	-1049.665200
16.410000	-1067.471287
16.420000	-1089.647662
16.430000	-1113.108931
16.440000	-1132.151342
16.450000	-1133.586902
16.460000	-1126.576420
16.470000	-1115.243513
16.480000	-1106.199926
16.490000	-1103.751161
16.500000	-1112.346971
16.510000	-1131.433976
16.520000	-1153.329100
16.530000	-1172.643509
16.540000	-1171.797238
16.550000	-1163.120422
16.560000	-1146.749511
16.570000	-1138.156135
16.580000	-1135.169056
16.590000	-1135.038362
16.600000	-1136.773903
16.610000	-1138.765048
16.620000	-1140.560452
16.630000	-1145.011667
16.640000	-1142.489254
16.650000	-1140.815084
16.660000	-1141.241202
16.670000	-1143.454376
16.680000	-1142.486182
16.690000	-1149.643156
16.700000	-1177.571926
16.710000	-1220.951959
16.720000	-1256.443165
16.730000	-1278.142584
16.740000	-1296.525583
16.750000	-1318.822749
16.760000	-1344.417151
16.770000	-1358.292981
16.780000	-1364.857248
16.790000	-1353.549511
16.800000	-1339.861858
16.810000	-1320.245579
16.820000	-1312.415573
16.830000	-1312.037315
16.840000	-1311.114309
16.850000	-1305.660655
16.860000	-1299.654342
16.870000	-1296.768072
16.880000	-1295.664348
16.890000	-1289.676732
16.900000	-1275.164010
16.910000	-1257.423415
16.920000	-1238.801160
16.930000	-1228.667095
16.940000	-1222.877670
16.950000	-1223.737054
16.960000	-1221.060537
16.970000	-1217.314500
16.980000	-1219.393713
16.990000	-1244.055913
17.000000	-1295.160398
17.010000	-1363.562595
17.020000	-1426.355644
17.030000	-1464.545084
17.040000	-1479.069390
17.050000	-1488.037168
17.060000	-1498.547342
17.070000	-1509.967794
17.080000	-1510.118675
17.090000	-1503.066788
17.100000	-1481.113409
17.110000	-1459.349385
17.120000	-1446.877992
17.130000	-1440.048523
17.140000	-1435.092422
17.150000	-1414.157741
17.160000	-1379.141772
17.170000	-1325.361469
17.180000	-1260.001532
17.190000	-1200.035119
17.200000	-1138.904915
17.210000	-1065.135386
17.220000	-962.233173
17.230000	-838.073097
17.240000	-717.042486
17.250000	-600.381446
17.260000	-483.602120
17.270000	-343.068427
17.280000	-195.034373
17.290000	-48.497031
17.300000	74.069644
17.310000	158.672451
17.320000	194.759412
17.330000	202.838380
17.340000	219.739991
17.350000	252.503302
17.360000	283.568662
17.370000	302.438109
17.380000	318.704505
17.390000	342.628241
17.400000	369.387244
17.410000	393.740371
17.420000	417.681163
17.430000	431.747169
17.440000	429.912141
17.450000	409.358554
17.460000	386.125501
17.470000	375.232543
17.480000	379.238184
17.490000	395.025970
17.500000	412.267557
17.510000	430.785244
17.520000	453.244174
17.530000	484.157162
17.540000	522.146978
17.550000	563.800648
17.560000	600.982093
17.570000	627.061673
17.580000	623.399072
17.590000	600.017725
17.600000	561.752877
17.610000	515.933139
17.620000	461.704825
17.630000	408.498850
17.640000	382.660039
17.650000	380.607269
17.660000	388.546863
17.670000	379.306691
17.680000	341.439374
17.690000	276.672880
17.700000	222.729407
17.710000	197.618332
17.720000	206.285042
17.730000	213.757038
17.740000	216.230581
17.750000	211.205027
17.760000	209.185618
17.770000	206.255248
17.780000	204.801215
17.790000	206.949398
17.800000	218.406026
17.810000	248.968895
17.820000	294.287483
17.830000	345.960836
17.840000	377.103132
17.850000	389.350802
17.860000	392.261614
17.870000	403.084355
17.880000	412.671445
17.890000	419.497407
17.900000	404.359334
17.910000	364.283021
17.920000	302.727588
17.930000	244.123635
17.940000	193.708566
17.950000	143.595009
17.960000	90.370006
17.970000	41.766534
17.980000	8.376870
17.990000	-13.428734
18.000000	-23.933443
18.010000	-26.958725
18.020000	-28.239318
18.030000	-36.485833
18.040000	-56.187846
18.050000	-87.320091
18.060000	-111.069624
18.070000	-124.849066
18.080000	-127.938653
18.090000	-126.043108
18.100000	-119.104576
18.110000	-103.204567
18.120000	-88.285221
18.130000	-72.976908
18.140000	-61.455009
18.150000	-47.359524
18.160000	-28.273468
18.170000	-6.725525
18.180000	17.614161
18.190000	20.874946
18.200000	-8.764136
18.210000	-62.766320
18.220000	-107.035177
18.230000	-125.752695
18.240000	-130.341237
18.250000	-142.392496
18.260000	-160.541702
18.270000	-175.299397
18.280000	-179.703815
18.290000	-175.182671
18.300000	-166.827945
18.310000	-161.020059
18.320000	-156.212834
18.330000	-162.169659
18.340000	-178.516314
18.350000	-203.594117
18.360000	-220.722203
18.370000	-218.976670
18.380000	-200.905994
18.390000	-174.313168
18.400000	-143.351217
18.410000	-106.571012
18.420000	-77.439417
18.430000	-61.741710
18.440000	-48.079648
18.450000	-7.127669
18.460000	63.944243
18.470000	140.816756
18.480000	193.692767
18.490000	216.233351
18.500000	221.570568
18.510000	212.699291
18.520000	198.208979
18.530000	179.893198
18.540000	162.938062
18.550000	143.144067
18.560000	122.434752
18.570000	115.849801
18.580000	129.326667
18.590000	163.963850
18.600000	202.257141
18.610000	240.206022
18.620000	260.577016
18.630000	273.951715
18.640000	283.304499
18.650000	299.482239
18.660000	318.088029
18.670000	328.762340
18.680000	320.971738
18.690000	289.492382
18.700000	238.651737
18.710000	186.364496
18.720000	148.097796
18.730000	131.322124
18.740000	126.940521
18.750000	123.717405
18.760000	118.249643
18.770000	110.234108
18.780000	101.345127
18.790000	74.147279
18.800000	23.925857
18.810000	-47.804113
18.820000	-112.633197
18.830000	-162.690881
18.840000	-198.426046
18.850000	-232.487414
18.860000	-257.037530
18.870000	-271.845049
18.880000	-271.841247
18.890000	-258.758859
18.900000	-235.851942
18.910000	-207.209732
18.920000	-182.745372
18.930000	-157.485091
18.940000	-133.187966
18.950000	-102.932578
18.960000	-68.181522
18.970000	-26.562765
18.980000	15.609202
18.990000	47.270181
19.000000	64.898191
19.010000	73.940012
19.020000	71.644955
19.030000	70.132346
19.040000	72.182433
19.050000	75.795954
19.060000	81.880332
19.070000	80.918069
19.080000	65.405603
19.090000	20.509928
19.100000	-45.848722
19.110000	-99.667298
19.120000	-131.008502
19.130000	-138.706603
19.140000	-143.398118
19.150000	-146.528451
19.160000	-148.953330
19.170000	-144.162581
19.180000	-133.360872
19.190000	-129.993432
19.200000	-135.898263
19.210000	-155.658846
19.220000	-177.884093
19.230000	-198.836218
19.240000	-210.013065
19.250000	-214.533693
19.260000	-215.629150
19.270000	-211.369083
19.280000	-200.063272
19.290000	-178.349208
19.300000	-150.666766
19.310000	-124.484207
19.320000	-106.747329
19.330000	-95.739198
19.340000	-80.611876
19.350000	-62.835694
19.360000	-46.623572
19.370000	-46.097635
19.380000	-68.085404
19.390000	-121.500752
19.400000	-188.273845
19.410000	-247.027449
19.420000	-295.312211
19.430000	-335.697809
19.440000	-371.146805
19.450000	-391.124850
19.460000	-396.471658
19.470000	-392.354730
19.480000	-387.930348
19.490000	-389.364538
19.500000	-402.842492
19.510000	-422.459798
19.520000	-441.870665
19.530000	-453.333719
19.540000	-457.369272
19.550000	-457.328401
19.560000	-454.306580
19.570000	-448.764810
19.580000	-442.690119
19.590000	-439.646157
19.600000	-436.160170
19.610000	-437.990590
19.620000	-435.357168
19.630000	-429.466717
19.640000	-420.651835
19.650000	-404.027132
19.660000	-392.091417
19.670000	-377.294862
19.680000	-373.684575
19.690000	-395.656349
19.700000	-441.992852
19.710000	-504.421664
19.720000	-544.974641
19.730000	-563.711695
19.740000	-569.399139
19.750000	-576.100263
19.760000	-581.193654
19.770000	-576.888993
19.780000	-567.099853
19.790000	-548.736536
19.800000	-531.450937
19.810000	-517.304959
19.820000	-518.904538
19.830000	-535.575627
19.840000	-550.718278
19.850000	-561.954394
19.860000	-567.601451
19.870000	-575.090864
19.880000	-577.509711
19.890000	-570.965257
19.900000	-559.501202
19.910000	-546.564579
19.920000	-536.553672
19.930000	-520.183147
19.940000	-502.367095
19.950000	-481.504227
19.960000	-466.595163
19.970000	-457.517558
19.980000	-455.542813
19.990000	-475.281723
20.000000	-517.164149
20.010000	-574.069557
20.020000	-620.778616
20.030000	-644.599736
20.040000	-659.840267
20.050000	-674.818251
20.060000	-691.587920
20.070000	-694.021783
20.080000	-684.419550
20.090000	-669.268588
20.100000	-652.942214
20.110000	-636.869211
20.120000	-627.505652
20.130000	-624.476426
20.140000	-621.409693
20.150000	-610.100731
20.160000	-587.347978
20.170000	-567.792919
20.180000	-549.591562
20.190000	-541.529915
20.200000	-526.444517
20.210000	-510.008635
20.220000	-488.281758
20.230000	-466.187412
20.240000	-447.456451
20.250000	-427.682916
20.260000	-407.649480
20.270000	-381.830185
20.280000	-363.561748
20.290000	-351.603183
20.300000	-360.849102
20.310000	-395.676393
20.320000	-454.781615
20.330000	-511.338590
20.340000	-545.056156
20.350000	-567.410438
20.360000	-590.653547
20.370000	-616.773127
20.380000	-636.871718
20.390000	-644.458076
20.400000	-642.429630
20.410000	-626.769623
20.420000	-603.659437
20.430000	-583.401331
20.440000	-573.522085
20.450000	-570.307580
20.460000	-562.668171
20.470000	-543.192571
20.480000	-515.478072
20.490000	-489.393303
20.500000	-467.230614
20.510000	-448.882489
20.520000	-427.925782
20.530000	-404.347511
20.540000	-369.553867
20.550000	-327.134065
20.560000	-278.796439
20.570000	-236.232606
20.580000	-194.944022
20.590000	-156.963475
20.600000	-123.034027
20.610000	-96.980345
20.620000	-92.426725
20.630000	-117.589714
20.640000	-176.079026
20.650000	-239.715597
20.660000	-286.349950
20.670000	-317.172551
20.680000	-337.898499
20.690000	-363.919513
20.700000	-379.957808
20.710000	-388.642213
20.720000	-377.567273
20.730000	-353.674392
20.740000	-323.095744
20.750000	-286.277065
20.760000	-238.527771
20.770000	-163.095823
20.780000	-57.914224
20.790000	87.529645
20.800000	274.095629
20.810000	506.590560
20.820000	748.418161
20.830000	1004.527098
20.840000	1267.135694
20.850000	1539.926868
20.860000	1796.537553
20.870000	2033.157195
20.880000	2259.747608
20.890000	2476.131788
20.900000	2675.713877
20.910000	2849.876389
20.920000	2989.121657
20.930000	3096.434221
20.940000	3190.352774
20.950000	3284.093030
20.960000	3396.717176
20.970000	3521.800675
20.980000	3653.202783
20.990000	3776.607862
21.000000	3895.527562
21.010000	4016.214308
21.020000	4132.277513
21.030000	4226.251708
21.040000	4295.531101
21.050000	4335.748519
21.060000	4367.318401
21.070000	4394.668440
21.080000	4429.260049
21.090000	4472.029133
21.100000	4516.318482
21.110000	4560.208407
21.120000	4596.168306
21.130000	4633.241211
21.140000	4667.458247
21.150000	4697.759008
21.160000	4724.563713
21.170000	4745.749035
21.180000	4765.834370
21.190000	4783.537774
21.200000	4802.601141
21.210000	4827.144174
21.220000	4854.500172
21.230000	4883.907620
21.240000	4910.206486
21.250000	4931.500247
21.260000	4950.078672
21.270000	4956.883539
21.280000	4943.441727
21.290000	4914.459689
21.300000	4880.979544
21.310000	4853.860031
21.320000	4823.954414
21.330000	4787.100005
21.340000	4728.392971
21.350000	4642.860993
21.360000	4546.048800
21.370000	4460.803446
21.380000	4402.178426
21.390000	4347.471167
21.400000	4286.505161
21.410000	4223.675324
21.420000	4171.350561
21.430000	4134.690099
21.440000	4107.996859
21.450000	4092.220783
21.460000	4080.787053
21.470000	4062.904669
21.480000	4041.780669
21.490000	4021.422562
21.500000	4008.613860
21.510000	4000.078226
21.520000	3997.292266
21.530000	4002.234163
21.540000	4012.123204
21.550000	4028.233523
21.560000	4042.092985
21.570000	4054.757965
21.580000	4058.537595
21.590000	4066.170624
21.600000	4080.119309
21.610000	4106.090723
21.620000	4138.167465
21.630000	4176.191492
21.640000	4220.715547
21.650000	4267.443347
21.660000	4309.420471
21.670000	4346.544543
21.680000	4378.956269
21.690000	4411.488490
21.700000	4437.623719
21.710000	4434.884366
21.720000	4392.485292
21.730000	4325.847108
21.740000	4271.900355
21.750000	4239.894393
21.760000	4216.747455
21.770000	4191.105903
21.780000	4168.466394
21.790000	4155.478860
21.800000	4154.330718
21.810000	4157.983454
21.820000	4167.038979
21.830000	4176.962843
21.840000	4187.580709
21.850000	4194.083560
21.860000	4201.302178
21.870000	4212.686259
21.880000	4229.836831
21.890000	4249.426143
21.900000	4276.210177
21.910000	4303.951397
21.920000	4338.096894
21.930000	4366.575502
21.940000	4393.841627
21.950000	4422.339011
21.960000	4450.385562
21.970000	4483.598683
21.980000	4513.365410
21.990000	4548.713997
22.000000	4576.757753
22.010000	4604.020776
22.020000	4627.594446
22.030000	4667.526277
22.040000	4711.810823
22.050000	4763.873899
22.060000	4802.090124
22.070000	4814.043841
22.080000	4814.573236
22.090000	4795.277480
22.100000	4769.575676
22.110000	4724.229141
22.120000	4623.305503
22.130000	4450.021564
22.140000	4237.626002
22.150000	4029.292894
22.160000	3826.281388
22.170000	3574.861539
22.180000	3312.634281
22.190000	3081.888008
22.200000	2902.368474
22.210000	2761.266524
22.220000	2642.533458
22.230000	2556.154440
22.240000	2503.778298
22.250000	2484.803770
22.260000	2474.723230
22.270000	2447.212004
22.280000	2386.124809
22.290000	2302.454908
22.300000	2207.953364
22.310000	2126.821652
22.320000	2062.813469
22.330000	2013.925014
22.340000	1975.750783
22.350000	1950.127352
22.360000	1935.090837
22.370000	1931.080806
22.380000	1935.498385
22.390000	1939.758301
22.400000	1950.352458
22.410000	1957.126478
22.420000	1961.305463
22.430000	1949.520177
22.440000	1909.993031
22.450000	1837.326161
22.460000	1735.766410
22.470000	1634.257180
22.480000	1547.555900
22.490000	1468.848550
22.500000	1366.661776
22.510000	1226.869519
22.520000	1060.549995
22.530000	916.705590
22.540000	844.814942
22.550000	844.778718
22.560000	867.984341
22.570000	853.854477
22.580000	803.021806
22.590000	757.408041
22.600000	741.707470
22.610000	727.843288
22.620000	686.079637
22.630000	595.992937
22.640000	456.190662
22.650000	277.192984
22.660000	102.741697
22.670000	-37.632820
22.680000	-113.694398
22.690000	-133.889521
22.700000	-156.260282
22.710000	-236.468842
22.720000	-417.121713
22.730000	-628.740635
22.740000	-817.027407
22.750000	-949.075996
22.760000	-1063.469839
22.770000	-1184.381065
22.780000	-1285.785923
22.790000	-1322.313405
22.800000	-1280.539043
22.810000	-1176.344402
22.820000	-1020.632188
22.830000	-852.809582
22.840000	-671.972694
22.850000	-508.387296
22.860000	-407.049423
22.870000	-404.640107
22.880000	-451.255106
22.890000	-460.160694
22.900000	-403.660699
22.910000	-328.592575
22.920000	-278.432463
22.930000	-270.998208
22.940000	-308.875433
22.950000	-344.982616
22.960000	-354.095772
22.970000	-321.715963
22.980000	-242.061680
22.990000	-150.619756
23.000000	-63.700823
23.010000	9.100187
23.020000	92.691286
23.030000	234.817205
23.040000	405.134468
23.050000	565.442720
23.060000	701.237337
23.070000	856.153719
23.080000	1088.637872
23.090000	1380.453327
23.100000	1681.535657
23.110000	1951.276683
23.120000	2195.808821
23.130000	2434.593871
23.140000	2644.876676
23.150000	2801.479509
23.160000	2930.324428
23.170000	3082.337798
23.180000	3241.490002
23.190000	3348.643804
23.200000	3383.994093
23.210000	3372.300386
23.220000	3332.708607
23.230000	3296.212997
23.240000	3273.588701
23.250000	3270.329820
23.260000	3256.588025
23.270000	3212.354198
23.280000	3131.837807
23.290000	3026.635258
23.300000	2920.995437
23.310000	2823.076036
23.320000	2730.659282
23.330000	2627.677600
23.340000	2514.898953
23.350000	2404.504174
23.360000	2331.057829
23.370000	2293.755377
23.380000	2287.724670
23.390000	2292.480183
23.400000	2293.922874
23.410000	2287.074515
23.420000	2265.291619
23.430000	2231.200047
23.440000	2176.466616
23.450000	2104.524848
23.460000	2011.118026
23.470000	1890.005637
23.480000	1746.292591
23.490000	1609.709935
23.500000	1499.925922
23.510000	1388.432174
23.520000	1270.438503
23.530000	1139.962412
23.540000	1012.819389
23.550000	881.901945
23.560000	765.071588
23.570000	699.694924
23.580000	687.690099
23.590000	690.838466
23.600000	685.138919
23.610000	678.859016
23.620000	691.403823
23.630000	708.235612
23.640000	723.472214
23.650000	746.096518
23.660000	789.994653
23.670000	864.716522
23.680000	960.565660
23.690000	1069.439418
23.700000	1158.831899
23.710000	1217.647114
23.720000	1254.241296
23.730000	1280.952536
23.740000	1305.722457
23.750000	1357.730505
23.760000	1453.914581
23.770000	1584.175827
23.780000	1683.695041
23.790000	1758.217266
23.800000	1804.851087
23.810000	1838.370185
23.820000	1851.673659
23.830000	1863.317146
23.840000	1895.226015
23.850000	1932.547231
23.860000	1957.484695
23.870000	1953.826328
23.880000	1934.865983
23.890000	1938.544919
23.900000	1991.585139
23.910000	2084.195446
23.920000	2198.644904
23.930000	2315.199734
23.940000	2435.452674
23.950000	2552.199444
23.960000	2668.638739
23.970000	2758.130382
23.980000	2811.215284
23.990000	2834.445342
24.000000	2851.509018
24.010000	2861.693463
24.020000	2878.505361
24.030000	2904.571945
24.040000	2940.486364
24.050000	2981.422441
24.060000	3040.500191
24.070000	3106.853876
24.080000	3129.045999
24.090000	3090.688236
24.100000	3032.384894
24.110000	2990.477314
24.120000	2937.177268
24.130000	2843.221791
24.140000	2709.675538
24.150000	2557.306116
24.160000	2376.372194
24.170000	2157.670530
24.180000	1932.120743
24.190000	1735.319217
24.200000	1548.320636
24.210000	1340.199187
24.220000	1108.191768
24.230000	821.524915
24.240000	468.156320
24.250000	121.391909
24.260000	-161.224271
24.270000	-377.024671
24.280000	-564.185531
24.290000	-721.914413
24.300000	-886.684554
24.310000	-1027.056700
24.320000	-1123.659451
24.330000	-1152.967294
24.340000	-1173.643450
24.350000	-1225.613426
24.360000	-1309.309613
24.370000	-1421.711002
24.380000	-1538.381504
24.390000	-1643.299843
24.400000	-1694.186362
24.410000	-1699.503397
24.420000	-1678.499773
24.430000	-1646.512037
24.440000	-1591.557540
24.450000	-1507.693539
24.460000	-1399.470608
24.470000	-1280.730569
24.480000	-1166.219689
24.490000	-1065.590651
24.500000	-1006.859752
24.510000	-1026.651751
24.520000	-1106.529448
24.530000	-1196.477132
24.540000	-1296.524420
24.550000	-1420.197542
24.560000	-1552.301930
24.570000	-1672.769441
24.580000	-1785.680752
24.590000	-1895.881864
24.600000	-1970.832068
24.610000	-2039.040557
24.620000	-2133.544481
24.630000	-2238.617367
24.640000	-2310.401725
24.650000	-2348.873360
24.660000	-2377.552442
24.670000	-2390.614231
24.680000	-2342.830398
24.690000	-2222.686470
24.700000	-2054.448689
24.710000	-1900.441910
24.720000	-1795.239359
24.730000	-1709.273035
24.740000	-1574.512815
24.750000	-1365.813597
24.760000	-1131.583158
24.770000	-923.962489
24.780000	-749.462783
24.790000	-600.009119
24.800000	-501.376365
24.810000	-501.728074
24.820000	-585.395303
24.830000	-694.949518
24.840000	-745.626181
24.850000	-712.291596
24.860000	-741.956551
24.870000	-832.186385
24.880000	-968.553641
24.890000	-1048.475190
24.900000	-1079.759883
24.910000	-1086.451006
24.920000	-1166.481288
24.930000	-1396.694635
24.940000	-2037.864768
24.950000	-2688.758293
24.960000	-3273.392432
24.970000	-3789.251188
24.980000	-4255.812883
24.990000	-4762.574395
25.000000	-5156.868358
25.010000	-5393.323685
25.020000	-5502.720861
25.030000	-5567.590269
25.040000	-5602.576066
25.050000	-5644.268711
25.060000	-5687.002964
25.070000	-5756.724526
25.080000	-5830.321775
25.090000	-5861.479328
25.100000	-5816.707891
25.110000	-5732.460971
25.120000	-5668.194546
25.130000	-5651.729004
25.140000	-5669.276084
25.150000	-5684.312941
25.160000	-5686.142715
25.170000	-5665.283485
25.180000	-5632.450499
25.190000	-5576.916524
25.200000	-5490.823221
25.210000	-5382.988060
25.220000	-5271.616694
25.230000	-5158.745720
25.240000	-5045.473658
25.250000	-4928.559697
25.260000	-4828.131846
25.270000	-4710.632033
25.280000	-4560.580906
25.290000	-4359.439226
25.300000	-4130.556961
25.310000	-3914.373954
25.320000	-3733.232534
25.330000	-3596.357144
25.340000	-3480.572182
25.350000	-3385.825462
25.360000	-3325.371862
25.370000	-3309.043033
25.380000	-3321.863883
25.390000	-3363.396140
25.400000	-3405.711121
25.410000	-3430.207343
25.420000	-3423.339795
25.430000	-3403.876559
25.440000	-3395.753620
25.450000	-3409.615233
25.460000	-3461.623550
25.470000	-3548.743760
25.480000	-3640.863296
25.490000	-3743.749944
25.500000	-3866.225438
25.510000	-4003.500961
25.520000	-4134.994604
25.530000	-4264.103067
25.540000	-4416.946213
25.550000	-4564.007172
25.560000	-4684.043443
25.570000	-4761.049946
25.580000	-4816.703147
25.590000	-4868.207416
25.600000	-4919.454567
25.610000	-4979.842895
25.620000	-5042.960025
25.630000	-5104.950740
25.640000	-5151.570135
25.650000	-5168.526126
25.660000	-5162.372957
25.670000	-5152.272681
25.680000	-5140.266349
25.690000	-5122.474926
25.700000	-5093.628861
25.710000	-5050.155727
25.720000	-4992.142912
25.730000	-4911.623454
25.740000	-4843.919102
25.750000	-4808.190870
25.760000	-4808.799517
25.770000	-4822.160509
25.780000	-4821.484180
25.790000	-4815.040204
25.800000	-4796.944411
25.810000	-4766.081421
25.820000	-4717.209019
25.830000	-4638.922014
25.840000	-4534.998859
25.850000	-4412.589259
25.860000	-4299.998032
25.870000	-4204.350035
25.880000	-4104.404781
25.890000	-3991.965875
25.900000	-3886.039207
25.910000	-3798.381803
25.920000	-3726.120458
25.930000	-3649.572222
25.940000	-3588.129989
25.950000	-3560.916460
25.960000	-3567.908411
25.970000	-3576.994268
25.980000	-3559.852483
25.990000	-3530.677605
26.000000	-3510.637958
26.010000	-3505.808541
26.020000	-3495.505773
26.030000	-3470.794339
26.040000	-3446.929363
26.050000	-3448.294594
26.060000	-3474.440827
26.070000	-3501.553426
26.080000	-3508.448922
26.090000	-3500.374220
26.100000	-3485.955608
26.110000	-3468.335849
26.120000	-3437.582176
26.130000	-3406.849895
26.140000	-3363.961358
26.150000	-3315.236773
26.160000	-3248.444758
26.170000	-3163.812833
26.180000	-3077.794123
26.190000	-3002.865791
26.200000	-2957.647909
26.210000	-2914.946845
26.220000	-2860.691356
26.230000	-2792.546762
26.240000	-2730.950298
26.250000	-2666.885036
26.260000	-2582.336739
26.270000	-2458.038349
26.280000	-2295.264332
26.290000	-2127.430915
26.300000	-1982.995501
26.310000	-1877.605033
26.320000	-1798.130568
26.330000	-1729.589844
26.340000	-1660.757909
26.350000	-1597.436200
26.360000	-1550.546911
26.370000	-1537.113046
26.380000	-1523.342875
26.390000	-1483.290757
26.400000	-1420.699138
26.410000	-1371.033790
26.420000	-1349.811558
26.430000	-1331.808622
26.440000	-1287.722545
26.450000	-1218.141384
26.460000	-1133.469049
26.470000	-1047.290824
26.480000	-968.008631
26.490000	-890.877503
26.500000	-822.385105
26.510000	-742.530157
26.520000	-656.635881
26.530000	-571.323800
26.540000	-499.707917
26.550000	-446.563972
26.560000	-397.863736
26.570000	-349.298931
26.580000	-305.511555
26.590000	-266.153592
26.600000	-225.276719
26.610000	-173.129854
26.620000	-122.902923
26.630000	-85.564028
26.640000	-57.619402
26.650000	-38.134540
26.660000	-39.835357
26.670000	-65.138005
26.680000	-97.793963
26.690000	-120.264488
26.700000	-129.919390
26.710000	-138.555782
26.720000	-147.473815
26.730000	-163.318895
26.740000	-182.456454
26.750000	-206.218072
26.760000	-236.896797
26.770000	-278.242285
26.780000	-357.522074
26.790000	-477.652594
26.800000	-624.552946
26.810000	-774.487964
26.820000	-919.411114
26.830000	-1079.851985
26.840000	-1243.628890
26.850000	-1405.350055
26.860000	-1566.647297
26.870000	-1739.323334
26.880000	-1918.065228
26.890000	-2076.350808
26.900000	-2203.972986
26.910000	-2312.549133
26.920000	-2406.638146
26.930000	-2483.503409
26.940000	-2523.699253
26.950000	-2544.332420
26.960000	-2580.249246
26.970000	-2645.543735
26.980000	-2717.804064
26.990000	-2760.487102
27.000000	-2799.634063
27.010000	-2832.119388
27.020000	-2859.244303
27.030000	-2872.157578
27.040000	-2886.019971
27.050000	-2909.275801
27.060000	-2937.190239
27.070000	-2969.502745
27.080000	-3002.780510
27.090000	-3035.830152
27.100000	-3056.433725
27.110000	-3061.608375
27.120000	-3049.514405
27.130000	-3032.849708
27.140000	-3014.657253
27.150000	-2997.844839
27.160000	-2984.216705
27.170000	-2970.577988
27.180000	-2946.506816
27.190000	-2910.417994
27.200000	-2854.193628
27.210000	-2785.046789
27.220000	-2718.649042
27.230000	-2671.421683
27.240000	-2642.800497
27.250000	-2612.817947
27.260000	-2594.114794
27.270000	-2590.261181
27.280000	-2613.857697
27.290000	-2655.713603
27.300000	-2710.679292
27.310000	-2773.565379
27.320000	-2822.185521
27.330000	-2846.513709
27.340000	-2848.118571
27.350000	-2848.577104
27.360000	-2860.752916
27.370000	-2881.319693
27.380000	-2877.361402
27.390000	-2863.245961
27.400000	-2852.352695
27.410000	-2858.891728
27.420000	-2868.982397
27.430000	-2873.932300
27.440000	-2887.385644
27.450000	-2911.986480
27.460000	-2940.136187
27.470000	-2972.771118
27.480000	-3001.900797
27.490000	-3021.263975
27.500000	-3013.670392
27.510000	-2972.819927
27.520000	-2933.250164
27.530000	-2913.361046
27.540000	-2914.477320
27.550000	-2907.845274
27.560000	-2884.783417
27.570000	-2846.378211
27.580000	-2796.784541
27.590000	-2752.964292
27.600000	-2713.083358
27.610000	-2670.885543
27.620000	-2627.079938
27.630000	-2602.873024
27.640000	-2609.390042
27.650000	-2618.090704
27.660000	-2622.430955
27.670000	-2619.319495
27.680000	-2612.824373
27.690000	-2596.851083
27.700000	-2589.947368
27.710000	-2597.339143
27.720000	-2599.326113
27.730000	-2573.140792
27.740000	-2527.444312
27.750000	-2478.614540
27.760000	-2427.167602
27.770000	-2366.715719
27.780000	-2287.860072
27.790000	-2206.194032
27.800000	-2122.150419
27.810000	-2041.657968
27.820000	-1955.701247
27.830000	-1873.471087
27.840000	-1796.527934
27.850000	-1718.891270
27.860000	-1643.337397
27.870000	-1567.921481
27.880000	-1485.753867
27.890000	-1394.248348
27.900000	-1308.835564
27.910000	-1234.493146
27.920000	-1173.186516
27.930000	-1121.999611
27.940000	-1092.182323
27.950000	-1096.446906
27.960000	-1150.119647
27.970000	-1250.108801
27.980000	-1329.811899
27.990000	-1345.092603
28.000000	-1335.324547
28.010000	-1344.678097
28.020000	-1359.932229
28.030000	-1320.383311
28.040000	-1236.984318
28.050000	-1138.047922
28.060000	-1025.205621
28.070000	-881.234014
28.080000	-708.050196
28.090000	-522.027938
28.100000	-283.974363
28.110000	18.704009
28.120000	414.683355
28.130000	814.223102
28.140000	1165.935671
28.150000	1488.363006
28.160000	1791.715350
28.170000	2061.658622
28.180000	2276.092519
28.190000	2417.945759
28.200000	2488.469657
28.210000	2489.697777
28.220000	2427.656340
28.230000	2324.294604
28.240000	2192.622026
28.250000	2072.437703
28.260000	1981.000950
28.270000	1921.018415
28.280000	1859.428308
28.290000	1773.777353
28.300000	1683.455417
28.310000	1597.996436
28.320000	1512.933665
28.330000	1421.367465
28.340000	1341.307983
28.350000	1289.565202
28.360000	1249.422562
28.370000	1208.944076
28.380000	1170.078943
28.390000	1153.881406
28.400000	1158.848324
28.410000	1167.619105
28.420000	1156.446381
28.430000	1122.930609
28.440000	1074.923377
28.450000	1031.124964
28.460000	1009.587245
28.470000	1023.496869
28.480000	1063.382044
28.490000	1109.034695
28.500000	1147.059871
28.510000	1190.177461
28.520000	1247.596828
28.530000	1299.110422
28.540000	1327.013863
28.550000	1323.947200
28.560000	1309.382192
28.570000	1296.312639
28.580000	1288.941676
28.590000	1278.192406
28.600000	1256.725563
28.610000	1228.993011
28.620000	1221.460513
28.630000	1234.280749
28.640000	1265.751904
28.650000	1313.129281
28.660000	1378.622677
28.670000	1461.203466
28.680000	1543.685720
28.690000	1621.216930
28.700000	1676.956656
28.710000	1712.189734
28.720000	1725.799282
28.730000	1726.436371
28.740000	1716.874810
28.750000	1708.290493
28.760000	1712.204380
28.770000	1736.055173
28.780000	1769.408628
28.790000	1805.087887
28.800000	1842.558854
28.810000	1874.364618
28.820000	1893.976613
28.830000	1896.245397
28.840000	1899.394091
28.850000	1922.399022
28.860000	1957.343724
28.870000	1987.469608
28.880000	2003.256367
28.890000	2002.839557
28.900000	1993.808504
28.910000	1966.444006
28.920000	1939.054829
28.930000	1921.310424
28.940000	1914.900075
28.950000	1903.416440
28.960000	1886.079330
28.970000	1867.496785
28.980000	1866.258277
28.990000	1873.798921
29.000000	1891.429125
29.010000	1911.375947
29.020000	1923.896114
29.030000	1928.615294
29.040000	1923.329691
29.050000	1915.855454
29.060000	1905.046947
29.070000	1895.086863
29.080000	1886.064551
29.090000	1882.309807
29.100000	1885.389408
29.110000	1896.180640
29.120000	1910.685586
29.130000	1919.690110
29.140000	1922.325889
29.150000	1920.530047
29.160000	1910.608368
29.170000	1900.059907
29.180000	1885.521720
29.190000	1873.612734
29.200000	1857.394888
29.210000	1829.161993
29.220000	1776.922972
29.230000	1711.441902
29.240000	1655.152714
29.250000	1621.702057
29.260000	1605.669234
29.270000	1592.611337
29.280000	1578.222246
29.290000	1559.534346
29.300000	1543.814813
29.310000	1537.133560
29.320000	1537.399164
29.330000	1538.403697
29.340000	1534.334851
29.350000	1529.051991
29.360000	1526.289791
29.370000	1531.726543
29.380000	1540.905795
29.390000	1552.098794
29.400000	1557.530028
29.410000	1559.859162
29.420000	1562.851363
29.430000	1568.977976
29.440000	1575.521705
29.450000	1573.109681
29.460000	1556.569326
29.470000	1543.337122
29.480000	1538.283958
29.490000	1547.604263
29.500000	1560.990529
29.510000	1564.232470
29.520000	1551.091962
29.530000	1507.212516
29.540000	1455.337254
29.550000	1403.528687
29.560000	1370.990736
29.570000	1344.133507
29.580000	1323.395926
29.590000	1302.433990
29.600000	1289.556760
29.610000	1282.421715
29.620000	1280.105747
29.630000	1287.811600
29.640000	1297.003409
29.650000	1304.603954
29.660000	1307.623178
29.670000	1314.818156
29.680000	1328.950438
29.690000	1347.409261
29.700000	1367.002117
29.710000	1385.062177
29.720000	1402.792469
29.730000	1425.455286
29.740000	1453.633336
29.750000	1478.219466
29.760000	1499.231256
29.770000	1516.048182
29.780000	1532.241267
29.790000	1546.932870
29.800000	1565.337138
29.810000	1581.189420
29.820000	1581.819722
29.830000	1554.851992
29.840000	1508.097196
29.850000	1463.627399
29.860000	1432.418741
29.870000	1414.782263
29.880000	1397.111669
29.890000	1382.393159
29.900000	1366.529777
29.910000	1354.775206
29.920000	1343.001747
29.930000	1346.624706
29.940000	1360.164244
29.950000	1381.231413
29.960000	1393.036698
29.970000	1399.979943
29.980000	1404.655258
29.990000	1410.482573
30.000000	1414.676028
30.010000	1418.081846
30.020000	1421.784861
30.030000	1422.089462
30.040000	1425.009220
30.050000	1428.163594
30.060000	1425.313256
30.070000	1408.991994
30.080000	1392.766718
30.090000	1390.914678
30.100000	1408.621545
30.110000	1430.541299
30.120000	1453.604402
30.130000	1469.582037
30.140000	1472.021057
30.150000	1448.703152
30.160000	1412.269484
30.170000	1377.260249
30.180000	1353.269020
30.190000	1334.540473
30.200000	1312.359625
30.210000	1295.635538
30.220000	1283.858023
30.230000	1285.522891
30.240000	1289.737935
30.250000	1301.556007
30.260000	1315.023451
30.270000	1328.704556
30.280000	1338.404927
30.290000	1343.968238
30.300000	1352.243517
30.310000	1360.978619
30.320000	1376.544636
30.330000	1395.735345
30.340000	1417.959384
30.350000	1439.256387
30.360000	1463.837257
30.370000	1482.849337
30.380000	1501.862960
30.390000	1517.526417
30.400000	1532.681387
30.410000	1545.633820
30.420000	1555.277935
30.430000	1566.868916
30.440000	1578.632437
30.450000	1593.895647
30.460000	1602.060001
30.470000	1579.331120
30.480000	1513.297482
30.490000	1409.595139
30.500000	1309.077647
30.510000	1245.285334
30.520000	1200.831160
30.530000	1140.707309
30.540000	1064.125785
30.550000	1013.695875
30.560000	1003.122016
30.570000	1012.373037
30.580000	1013.879046
30.590000	1011.585175
30.600000	1008.749512
30.610000	1009.916402
30.620000	1010.711265
30.630000	1008.368050
30.640000	1007.141853
30.650000	1011.269406
30.660000	1011.986692
30.670000	1006.637693
30.680000	1000.971628
30.690000	1002.461240
30.700000	1009.716257
30.710000	1013.046196
30.720000	1018.956406
30.730000	1029.068933
30.740000	1039.298892
30.750000	1040.863592
30.760000	1038.463371
30.770000	1037.110868
30.780000	1045.422970
30.790000	1053.760006
30.800000	1045.482125
30.810000	1004.529627
30.820000	945.076643
30.830000	891.780456
30.840000	855.753127
30.850000	828.764077
30.860000	802.548843
30.870000	781.902963
30.880000	762.773049
30.890000	751.189065
30.900000	749.774140
30.910000	757.919247
30.920000	771.552056
30.930000	776.407813
30.940000	768.477888
30.950000	761.063701
30.960000	758.498894
30.970000	761.496137
30.980000	766.962625
30.990000	769.375086
31.000000	770.566422
31.010000	765.354632
31.020000	751.966110
31.030000	735.472836
31.040000	704.774557
31.050000	666.091774
31.060000	630.382489
31.070000	611.170874
31.080000	611.080232
31.090000	609.973847
31.100000	604.610728
31.110000	590.559857
31.120000	563.928965
31.130000	516.587105
31.140000	462.427186
31.150000	420.748639
31.160000	397.341013
31.170000	377.306003
31.180000	357.071868
31.190000	337.996091
31.200000	326.268444
31.210000	325.130459
31.220000	335.243570
31.230000	352.036014
31.240000	366.993351
31.250000	373.732827
31.260000	369.872775
31.270000	357.894900
31.280000	347.557334
31.290000	343.828879
31.300000	347.348302
31.310000	353.533394
31.320000	364.943665
31.330000	383.019517
31.340000	405.312930
31.350000	424.276113
31.360000	443.831406
31.370000	470.323629
31.380000	505.788872
31.390000	546.472618
31.400000	584.853253
31.410000	613.071155
31.420000	608.326955
31.430000	575.195105
31.440000	518.585009
31.450000	468.170371
31.460000	426.551867
31.470000	398.935815
31.480000	370.245896
31.490000	343.533782
31.500000	303.004079
31.510000	241.604865
31.520000	169.926332
31.530000	123.192401
31.540000	100.865670
31.550000	88.523615
31.560000	83.285030
31.570000	92.999134
31.580000	112.784097
31.590000	110.180087
31.600000	95.849287
31.610000	50.392666
31.620000	-20.569441
31.630000	-121.308053
31.640000	-227.462490
31.650000	-319.575362
31.660000	-389.606850
31.670000	-434.409552
31.680000	-453.311609
31.690000	-454.488466
31.700000	-436.209739
31.710000	-403.139001
31.720000	-364.006579
31.730000	-357.760217
31.740000	-392.606816
31.750000	-453.204723
31.760000	-513.733043
31.770000	-557.562717
31.780000	-594.486881
31.790000	-617.095296
31.800000	-640.858858
31.810000	-658.788269
31.820000	-678.158881
31.830000	-698.348532
31.840000	-722.023696
31.850000	-745.447072
31.860000	-763.106268
31.870000	-772.443122
31.880000	-781.440614
31.890000	-788.301887
31.900000	-794.339826
31.910000	-789.017843
31.920000	-773.828553
31.930000	-760.652208
31.940000	-750.176481
31.950000	-751.198846
31.960000	-752.359096
31.970000	-751.995556
31.980000	-744.755053
31.990000	-729.694566
32.000000	-714.397982
32.010000	-694.584572
32.020000	-675.624362
32.030000	-656.012661
32.040000	-651.120741
32.050000	-673.657097
32.060000	-715.450107
32.070000	-761.840722
32.080000	-787.306643
32.090000	-799.004438
32.100000	-799.039634
32.110000	-795.073728
32.120000	-789.314607
32.130000	-780.356697
32.140000	-774.835241
32.150000	-758.806687
32.160000	-731.281623
32.170000	-697.497238
32.180000	-671.308421
32.190000	-655.380416
32.200000	-635.846448
32.210000	-603.165383
32.220000	-548.275636
32.230000	-485.571214
32.240000	-431.266190
32.250000	-386.826162
32.260000	-335.095145
32.270000	-267.995508
32.280000	-202.214833
32.290000	-150.042067
32.300000	-112.860440
32.310000	-81.281491
32.320000	-40.379866
32.330000	9.882595
32.340000	61.857420
32.350000	99.802366
32.360000	114.557458
32.370000	98.170218
32.380000	61.754718
32.390000	28.683350
32.400000	21.394449
32.410000	33.896857
32.420000	68.502197
32.430000	119.533725
32.440000	177.712107
32.450000	234.952686
32.460000	287.713394
32.470000	351.870634
32.480000	416.419921
32.490000	473.910830
32.500000	507.880928
32.510000	526.130309
32.520000	534.783387
32.530000	542.135209
32.540000	552.120063
32.550000	561.901105
32.560000	568.235279
32.570000	568.448276
32.580000	575.840807
32.590000	587.731373
32.600000	598.217357
32.610000	607.812005
32.620000	627.402354
32.630000	656.307523
32.640000	667.294449
32.650000	649.294158
32.660000	593.305636
32.670000	510.449493
32.680000	405.746855
32.690000	299.092478
32.700000	216.986360
32.710000	174.818433
32.720000	174.970294
32.730000	193.585820
32.740000	206.399937
32.750000	199.495129
32.760000	182.006398
32.770000	176.220730
32.780000	190.020129
32.790000	209.667116
32.800000	220.812341
32.810000	225.939894
32.820000	228.387047
32.830000	233.331202
32.840000	238.722036
32.850000	245.510879
32.860000	252.497895
32.870000	254.793854
32.880000	258.082880
32.890000	267.522117
32.900000	277.083860
32.910000	286.379231
32.920000	287.176642
32.930000	289.065276
32.940000	294.362747
32.950000	296.172616
32.960000	290.336278
32.970000	259.690782
32.980000	203.802267
32.990000	118.979812
33.000000	33.803333
33.010000	-35.652432
33.020000	-88.457495
33.030000	-135.203322
33.040000	-177.246665
33.050000	-212.297940
33.060000	-236.585543
33.070000	-246.948047
33.080000	-246.495493
33.090000	-252.858581
33.100000	-264.573574
33.110000	-281.660462
33.120000	-296.518022
33.130000	-312.713676
33.140000	-326.663511
33.150000	-337.996419
33.160000	-356.056407
33.170000	-378.133464
33.180000	-396.656711
33.190000	-407.500745
33.200000	-413.496906
33.210000	-419.761762
33.220000	-428.550041
33.230000	-437.564414
33.240000	-449.838622
33.250000	-460.900586
33.260000	-484.063518
33.270000	-515.744478
33.280000	-570.893432
33.290000	-645.423520
33.300000	-728.592487
33.310000	-801.634592
33.320000	-854.202038
33.330000	-896.790259
33.340000	-942.038124
33.350000	-987.458323
33.360000	-1029.759233
33.370000	-1055.987031
33.380000	-1068.075022
33.390000	-1072.080797
33.400000	-1075.615405
33.410000	-1082.718337
33.420000	-1090.690783
33.430000	-1100.920514
33.440000	-1101.616616
33.450000	-1096.050610
33.460000	-1087.428708
33.470000	-1084.749604
33.480000	-1081.417500
33.490000	-1069.664782
33.500000	-1055.329594
33.510000	-1040.455326
33.520000	-1029.467202
33.530000	-1019.110257
33.540000	-1010.836390
33.550000	-996.290068
33.560000	-980.460537
33.570000	-965.012205
33.580000	-955.647042
33.590000	-969.984817
33.600000	-1012.682152
33.610000	-1084.831640
33.620000	-1149.162347
33.630000	-1194.968329
33.640000	-1223.558886
33.650000	-1247.351971
33.660000	-1265.802692
33.670000	-1278.284678
33.680000	-1282.256937
33.690000	-1281.784296
33.700000	-1274.909806
33.710000	-1267.186090
33.720000	-1261.770694
33.730000	-1260.130876
33.740000	-1267.856903
33.750000	-1274.578846
33.760000	-1275.839385
33.770000	-1268.242772
33.780000	-1264.077651
33.790000	-1262.750343
33.800000	-1257.511019
33.810000	-1242.471936
33.820000	-1224.858356
33.830000	-1199.035785
33.840000	-1168.106886
33.850000	-1134.474520
33.860000	-1100.565224
33.870000	-1063.106940
33.880000	-1026.921385
33.890000	-999.956456
33.900000	-975.779466
33.910000	-972.079876
33.920000	-992.138519
33.930000	-1040.747551
33.940000	-1080.253981
33.950000	-1101.031400
33.960000	-1109.284994
33.970000	-1115.866276
33.980000	-1125.503644
33.990000	-1126.861002
34.000000	-1121.628220
34.010000	-1103.369730
34.020000	-1079.994675
34.030000	-1052.394486
34.040000	-1030.253400
34.050000	-1017.270398
34.060000	-1006.349539
34.070000	-993.020045
34.080000	-976.321300
34.090000	-955.970317
34.100000	-937.507263
34.110000	-917.760976
34.120000	-900.241989
34.130000	-880.726896
34.140000	-864.866423
34.150000	-851.201960
34.160000	-837.683981
34.170000	-828.220870
34.180000	-822.349747
34.190000	-813.749966
34.200000	-795.873885
34.210000	-773.167634
34.220000	-756.272794
34.230000	-760.120879
34.240000	-788.831836
34.250000	-832.558287
34.260000	-869.880979
34.270000	-896.898378
34.280000	-913.461012
34.290000	-926.778610
34.300000	-934.534143
34.310000	-939.190565
34.320000	-936.105680
34.330000	-918.447078
34.340000	-898.914084
34.350000	-881.863207
34.360000	-873.242024
34.370000	-878.458985
34.380000	-885.703089
34.390000	-889.251189
34.400000	-875.989509
34.410000	-853.277888
34.420000	-834.469922
34.430000	-818.775869
34.440000	-805.125619
34.450000	-790.777901
34.460000	-779.306549
34.470000	-771.613057
34.480000	-767.657932
34.490000	-764.278574
34.500000	-759.851708
34.510000	-751.110298
34.520000	-742.235885
34.530000	-735.104847
34.540000	-746.161773
34.550000	-780.569315
34.560000	-842.585281
34.570000	-901.102617
34.580000	-946.566475
34.590000	-977.823337
34.600000	-1002.067453
34.610000	-1021.693572
34.620000	-1027.698993
34.630000	-1034.121449
34.640000	-1031.760221
34.650000	-1024.745272
34.660000	-1012.634032
34.670000	-1001.878975
34.680000	-998.329592
34.690000	-992.793896
34.700000	-977.851666
34.710000	-952.213079
34.720000	-920.543292
34.730000	-889.122326
34.740000	-857.701709
34.750000	-827.185213
34.760000	-793.663129
34.770000	-759.079477
34.780000	-717.751304
34.790000	-686.849950
34.800000	-654.572399
34.810000	-623.137157
34.820000	-590.860049
34.830000	-560.914027
34.840000	-532.278216
34.850000	-500.489185
34.860000	-492.589696
34.870000	-517.487013
34.880000	-566.992401
34.890000	-610.226393
34.900000	-638.258286
34.910000	-653.131165
34.920000	-671.699121
34.930000	-691.449359
34.940000	-707.265095
34.950000	-707.881966
34.960000	-689.648943
34.970000	-657.133105
34.980000	-615.161792
34.990000	-577.870415
35.000000	-542.755197
35.010000	-515.421903
35.020000	-493.116522
35.030000	-468.082838
35.040000	-428.923334
35.050000	-386.592955
35.060000	-357.531965
35.070000	-342.178167
35.080000	-314.519288
35.090000	-252.558035
35.100000	-155.681260
35.110000	-29.402934
35.120000	104.665401
35.130000	253.718516
35.140000	432.253733
35.150000	641.024882
35.160000	863.685475
35.170000	1071.522036
35.180000	1245.703489
35.190000	1377.941644
35.200000	1452.595835
35.210000	1497.710117
35.220000	1529.351847
35.230000	1572.400357
35.240000	1630.615077
35.250000	1691.612471
35.260000	1746.789210
35.270000	1788.060828
35.280000	1824.579792
35.290000	1871.094605
35.300000	1927.901662
35.310000	1988.347864
35.320000	2042.453876
35.330000	2095.884469
35.340000	2154.247196
35.350000	2225.335880
35.360000	2313.273427
35.370000	2419.356702
35.380000	2542.537889
35.390000	2679.617102
35.400000	2836.406729
35.410000	2960.631704
35.420000	3013.226363
35.430000	3034.780350
35.440000	3077.995262
35.450000	3133.007204
35.460000	3193.357591
35.470000	3255.493458
35.480000	3314.635296
35.490000	3326.791395
35.500000	3308.332122
35.510000	3295.063308
35.520000	3273.815605
35.530000	3266.352896
35.540000	3303.914041
35.550000	3393.498685
35.560000	3505.836128
35.570000	3646.998623
35.580000	3883.757291
35.590000	4224.833014
35.600000	4682.939673
35.610000	5088.455207
35.620000	5416.334672
35.630000	5653.775546
35.640000	5798.142901
35.650000	5872.717443
35.660000	5929.413316
35.670000	5991.842005
35.680000	6081.605434
35.690000	6188.473143
35.700000	6332.474749
35.710000	6530.690308
35.720000	6791.581189
35.730000	7091.660567
35.740000	7410.029727
35.750000	7740.369051
35.760000	8069.041140
35.770000	8369.789855
35.780000	8618.625435
35.790000	8809.460792
35.800000	8935.317088
35.810000	8999.084344
35.820000	9009.282579
35.830000	8963.936920
35.840000	8874.542334
35.850000	8742.351330
35.860000	8564.045474
35.870000	8350.727207
35.880000	8124.499887
35.890000	7885.629978
35.900000	7618.055066
35.910000	7302.921247
35.920000	6968.432677
35.930000	6662.207705
35.940000	6401.782831
35.950000	6167.432010
35.960000	5898.478990
35.970000	5568.822036
35.980000	5197.696830
35.990000	4837.791493
36.000000	4532.018826
36.010000	4255.131660
36.020000	4017.112183
36.030000	3815.822541
36.040000	3664.483150
36.050000	3504.216014
36.060000	3293.467482
36.070000	3008.379814
36.080000	2658.174339
36.090000	2259.082326
36.100000	1853.115525
36.110000	1460.868477
36.120000	1103.076028
36.130000	804.049551
36.140000	580.339471
36.150000	455.026281
36.160000	409.040016
36.170000	418.872299
36.180000	455.605528
36.190000	501.627535
36.200000	542.723544
36.210000	561.916693
36.220000	547.729841
36.230000	466.683592
36.240000	304.993396
36.250000	101.463086
36.260000	-62.426020
36.270000	-144.667711
36.280000	-156.796041
36.290000	-138.681570
36.300000	-101.226746
36.310000	-37.454917
36.320000	51.844280
36.330000	157.603718
36.340000	263.414845
36.350000	355.855244
36.360000	428.521031
36.370000	482.976653
36.380000	521.809673
36.390000	558.973906
36.400000	594.904121
36.410000	632.485802
36.420000	673.501756
36.430000	714.487802
36.440000	763.634213
36.450000	816.288968
36.460000	866.261837
36.470000	910.930943
36.480000	950.058630
36.490000	990.419737
36.500000	1023.973890
36.510000	1044.738269
36.520000	1038.689408
36.530000	997.225615
36.540000	926.597884
36.550000	842.556118
36.560000	760.654454
36.570000	680.656773
36.580000	616.227609
36.590000	566.193295
36.600000	522.590279
36.610000	468.177371
36.620000	410.826495
36.630000	359.634247
36.640000	315.842103
36.650000	286.573104
36.660000	273.306226
36.670000	279.646674
36.680000	296.529277
36.690000	334.900454
36.700000	401.530956
36.710000	497.593804
36.720000	604.932669
36.730000	714.764198
36.740000	812.768652
36.750000	893.072102
36.760000	940.357843
36.770000	956.537964
36.780000	926.341967
36.790000	854.164780
36.800000	742.760002
36.810000	619.629461
36.820000	485.873548
36.830000	329.490975
36.840000	155.464685
36.850000	-16.177122
36.860000	-163.177538
36.870000	-294.171430
36.880000	-408.036206
36.890000	-521.459780
36.900000	-641.114369
36.910000	-784.025446
36.920000	-935.021520
36.930000	-1080.849001
36.940000	-1213.865233
36.950000	-1322.250760
36.960000	-1392.295280
36.970000	-1422.947326
36.980000	-1423.682782
36.990000	-1412.932188
37.000000	-1400.980097
37.010000	-1408.546373
37.020000	-1434.486490
37.030000	-1483.781639
37.040000	-1547.226624
37.050000	-1622.309769
37.060000	-1699.222963
37.070000	-1762.099257
37.080000	-1810.875787
37.090000	-1832.802044
37.100000	-1831.523513
37.110000	-1807.447519
37.120000	-1768.144196
37.130000	-1719.376337
37.140000	-1673.071796
37.150000	-1635.247238
37.160000	-1615.636248
37.170000	-1607.701739
37.180000	-1598.479639
37.190000	-1589.160000
37.200000	-1586.304284
37.210000	-1606.614219
37.220000	-1639.690864
37.230000	-1678.381977
37.240000	-1716.720230
37.250000	-1759.152770
37.260000	-1803.707953
37.270000	-1849.236685
37.280000	-1892.000961
37.290000	-1934.317818
37.300000	-1970.253406
37.310000	-1995.720953
37.320000	-2012.841317
37.330000	-2025.448686
37.340000	-2036.414604
37.350000	-2032.454849
37.360000	-2014.350765
37.370000	-1979.778149
37.380000	-1943.661377
37.390000	-1912.406529
37.400000	-1882.942491
37.410000	-1851.029606
37.420000	-1807.542789
37.430000	-1756.021420
37.440000	-1694.463160
37.450000	-1625.027956
37.460000	-1555.737570
37.470000	-1484.011285
37.480000	-1414.706288
37.490000	-1347.655981
37.500000	-1289.704037
37.510000	-1257.003960
37.520000	-1251.341296
37.530000	-1255.981298
37.540000	-1255.664078
37.550000	-1235.642753
37.560000	-1214.094559
37.570000	-1212.999813
37.580000	-1218.111912
37.590000	-1222.731847
37.600000	-1203.773032
37.610000	-1172.247503
37.620000	-1132.774411
37.630000	-1095.804838
37.640000	-1074.142413
37.650000	-1057.994767
37.660000	-1045.227260
37.670000	-1031.542382
37.680000	-1025.712772
37.690000	-1007.710129
37.700000	-976.283555
37.710000	-922.224171
37.720000	-859.286677
37.730000	-799.771263
37.740000	-745.298616
37.750000	-703.039513
37.760000	-663.638840
37.770000	-631.386670
37.780000	-605.006289
37.790000	-588.458474
37.800000	-594.776662
37.810000	-626.881580
37.820000	-687.593572
37.830000	-764.978708
37.840000	-837.767112
37.850000	-898.162838
37.860000	-943.672932
37.870000	-980.756985
37.880000	-1013.959962
37.890000	-1043.058874
37.900000	-1057.273195
37.910000	-1052.769399
37.920000	-1033.999759
37.930000	-1010.218028
37.940000	-986.774855
37.950000	-951.345026
37.960000	-914.674559
37.970000	-874.832766
37.980000	-839.330065
37.990000	-804.353582
38.000000	-766.384857
38.010000	-729.294133
38.020000	-690.823216
38.030000	-653.649591
38.040000	-614.982187
38.050000	-575.751847
38.060000	-536.878644
38.070000	-498.590653
38.080000	-463.521090
38.090000	-432.163897
38.100000	-411.923755
38.110000	-414.156821
38.120000	-445.389569
38.130000	-494.846221
38.140000	-538.229827
38.150000	-566.991366
38.160000	-583.847761
38.170000	-598.235942
38.180000	-608.517150
38.190000	-619.915473
38.200000	-627.575857
38.210000	-624.674154
38.220000	-602.046918
38.230000	-571.911222
38.240000	-547.608275
38.250000	-538.224688
38.260000	-535.544399
38.270000	-528.620478
38.280000	-516.264682
38.290000	-491.425048
38.300000	-456.770743
38.310000	-411.981340
38.320000	-366.063205
38.330000	-331.308291
38.340000	-303.071631
38.350000	-281.411486
38.360000	-258.154952
38.370000	-236.644653
38.380000	-219.669267
38.390000	-199.615937
38.400000	-180.315869
38.410000	-157.667123
38.420000	-139.765162
38.430000	-133.819229
38.440000	-155.341447
38.450000	-198.016402
38.460000	-240.983628
38.470000	-265.659836
38.480000	-277.131655
38.490000	-291.441689
38.500000	-307.675593
38.510000	-326.671662
38.520000	-335.626188
38.530000	-331.373050
38.540000	-310.020552
38.550000	-284.567404
38.560000	-269.867400
38.570000	-270.515114
38.580000	-274.785097
38.590000	-275.592049
38.600000	-269.831014
38.610000	-269.829460
38.620000	-270.614973
38.630000	-273.871512
38.640000	-275.169298
38.650000	-273.377245
38.660000	-264.504517
38.670000	-248.015343
38.680000	-225.302033
38.690000	-202.791728
38.700000	-183.214640
38.710000	-167.355468
38.720000	-154.583513
38.730000	-133.684410
38.740000	-110.460845
38.750000	-86.129928
38.760000	-75.505473
38.770000	-77.997204
38.780000	-103.376742
38.790000	-159.658615
38.800000	-244.017980
38.810000	-330.055796
38.820000	-397.811532
38.830000	-443.967427
38.840000	-483.792313
38.850000	-513.630700
38.860000	-543.281100
38.870000	-577.418386
38.880000	-619.572660
38.890000	-660.310477
38.900000	-693.681217
38.910000	-719.025283
38.920000	-733.927216
38.930000	-739.225367
38.940000	-756.039332
38.950000	-805.570156
38.960000	-891.916353
38.970000	-998.671229
38.980000	-1095.902883
38.990000	-1167.290390
39.000000	-1191.356663
39.010000	-1177.810652
39.020000	-1141.306833
39.030000	-1094.475516
39.040000	-1045.395343
39.050000	-992.599008
39.060000	-945.666374
39.070000	-907.189480
39.080000	-872.738277
39.090000	-835.260221
39.100000	-794.984962
39.110000	-759.506606
39.120000	-733.713597
39.130000	-728.927333
39.140000	-747.909349
39.150000	-794.174708
39.160000	-841.181070
39.170000	-868.598276
39.180000	-881.014296
39.190000	-889.867655
39.200000	-905.672571
39.210000	-916.236175
39.220000	-915.509810
39.230000	-908.130038
39.240000	-891.824637
39.250000	-875.551875
39.260000	-864.292895
39.270000	-862.136166
39.280000	-866.575159
39.290000	-862.852804
39.300000	-844.713970
39.310000	-815.429333
39.320000	-781.027944
39.330000	-749.178472
39.340000	-720.491153
39.350000	-694.761171
39.360000	-675.801702
39.370000	-658.489464
39.380000	-643.632511
39.390000	-632.389849
39.400000	-619.283373
39.410000	-613.168368
39.420000	-636.811691
39.430000	-725.821882
39.440000	-885.430106
39.450000	-1087.892159
39.460000	-1292.186515
39.470000	-1460.479443
39.480000	-1581.190401
39.490000	-1649.594704
39.500000	-1679.086967
39.510000	-1675.198373
39.520000	-1653.855839
39.530000	-1633.319274
39.540000	-1623.780435
39.550000	-1623.585908
39.560000	-1619.852829
39.570000	-1611.397011
39.580000	-1595.099266
39.590000	-1570.394829
39.600000	-1534.853946
39.610000	-1494.262234
39.620000	-1465.820647
39.630000	-1444.583116
39.640000	-1428.643632
39.650000	-1402.046962
39.660000	-1371.377016
39.670000	-1342.357206
39.680000	-1316.949088
39.690000	-1294.175315
39.700000	-1261.004230
39.710000	-1227.907723
39.720000	-1194.212064
39.730000	-1164.504769
39.740000	-1129.899956
39.750000	-1093.986678
39.760000	-1059.770373
39.770000	-1023.300465
39.780000	-980.825836
39.790000	-936.821517
39.800000	-895.064220
39.810000	-860.530869
39.820000	-831.469282
39.830000	-821.467664
39.840000	-837.708873
39.850000	-877.228851
39.860000	-916.410802
39.870000	-938.528156
39.880000	-949.694781
39.890000	-957.016286
39.900000	-967.498033
39.910000	-974.319429
39.920000	-978.175013
39.930000	-975.129706
39.940000	-963.712031
39.950000	-947.139550
39.960000	-930.106536
39.970000	-912.991040
39.980000	-905.045648
39.990000	-899.318314
40.000000	-891.178146
40.010000	-875.163698
40.020000	-857.529924
40.030000	-845.866552
40.040000	-835.368159
40.050000	-827.440324
40.060000	-822.724842
40.070000	-820.865249
40.080000	-818.594101
40.090000	-813.145461
40.100000	-807.666845
40.110000	-803.608248
40.120000	-799.919949
40.130000	-793.920429
40.140000	-788.375203
40.150000	-784.081034
40.160000	-780.012587
40.170000	-773.089761
40.180000	-766.520966
40.190000	-767.295885
40.200000	-793.246087
40.210000	-855.002474
40.220000	-934.412332
40.230000	-1006.878144
40.240000	-1055.787221
40.250000	-1093.352957
40.260000	-1128.673441
40.270000	-1167.337931
40.280000	-1204.383716
40.290000	-1232.168480
40.300000	-1249.965810
40.310000	-1257.185443
40.320000	-1262.091471
40.330000	-1278.068920
40.340000	-1302.024182
40.350000	-1324.453618
40.360000	-1326.115482
40.370000	-1310.753286
40.380000	-1284.398065
40.390000	-1250.898444
40.400000	-1217.207136
40.410000	-1186.216884
40.420000	-1162.872738
40.430000	-1142.693449
40.440000	-1126.737349
40.450000	-1107.663846
40.460000	-1089.483137
40.470000	-1074.145010
40.480000	-1058.397482
40.490000	-1043.153536
40.500000	-1021.472584
40.510000	-998.711230
40.520000	-968.697807
40.530000	-933.807234
40.540000	-900.782910
40.550000	-867.392842
40.560000	-844.751962
40.570000	-844.827776
40.580000	-877.896377
40.590000	-921.352091
40.600000	-952.887649
40.610000	-966.767634
40.620000	-980.120431
40.630000	-997.660789
40.640000	-1015.841885
40.650000	-1027.388049
40.660000	-1024.071382
40.670000	-1015.340822
40.680000	-998.443958
40.690000	-984.173680
40.700000	-979.314692
40.710000	-983.495663
40.720000	-993.018008
40.730000	-993.964231
40.740000	-980.918920
40.750000	-956.294799
40.760000	-927.339860
40.770000	-906.479242
40.780000	-881.866694
40.790000	-854.537854
40.800000	-827.905070
40.810000	-807.774272
40.820000	-795.769404
40.830000	-775.464769
40.840000	-759.215979
40.850000	-741.274932
40.860000	-725.858840
40.870000	-707.226180
40.880000	-688.694537
40.890000	-675.684005
40.900000	-679.379713
40.910000	-708.300988
40.920000	-765.215071
40.930000	-829.352136
40.940000	-874.199624
40.950000	-895.629219
40.960000	-897.703945
40.970000	-899.444127
40.980000	-899.648942
40.990000	-897.087968
41.000000	-884.739839
41.010000	-859.236435
41.020000	-824.344374
41.030000	-791.566300
41.040000	-767.762412
41.050000	-751.031119
41.060000	-737.333025
41.070000	-721.316872
41.080000	-700.401867
41.090000	-674.098401
41.100000	-643.631527
41.110000	-619.728207
41.120000	-594.297749
41.130000	-569.206335
41.140000	-545.782863
41.150000	-517.816846
41.160000	-484.100859
41.170000	-445.585138
41.180000	-409.921829
41.190000	-378.486802
41.200000	-346.542658
41.210000	-315.889105
41.220000	-289.983425
41.230000	-270.434416
41.240000	-265.590151
41.250000	-287.135702
41.260000	-337.651372
41.270000	-400.596667
41.280000	-455.179133
41.290000	-491.231050
41.300000	-519.240549
41.310000	-546.332468
41.320000	-569.081941
41.330000	-584.242670
41.340000	-595.082189
41.350000	-604.625840
41.360000	-608.200927
41.370000	-602.150763
41.380000	-595.827012
41.390000	-593.465910
41.400000	-596.582548
41.410000	-599.230132
41.420000	-597.479171
41.430000	-588.799718
41.440000	-575.857553
41.450000	-560.834762
41.460000	-542.024669
41.470000	-520.676630
41.480000	-499.326646
41.490000	-482.655000
41.500000	-463.392362
41.510000	-443.454435
41.520000	-425.588808
41.530000	-412.046891
41.540000	-397.892500
41.550000	-381.106947
41.560000	-357.983741
41.570000	-335.320634
41.580000	-305.492741
41.590000	-276.701083
41.600000	-247.765192
41.610000	-223.553283
41.620000	-225.871887
41.630000	-259.813215
41.640000	-312.381790
41.650000	-350.470040
41.660000	-365.075945
41.670000	-365.962360
41.680000	-364.223621
41.690000	-362.213107
41.700000	-360.481350
41.710000	-351.221806
41.720000	-331.198436
41.730000	-297.677921
41.740000	-257.052516
41.750000	-220.926171
41.760000	-195.000763
41.770000	-175.591574
41.780000	-152.038674
41.790000	-123.725938
41.800000	-90.518500
41.810000	-56.645431
41.820000	-23.429370
41.830000	5.323344
41.840000	35.916735
41.850000	75.524498
41.860000	119.461044
41.870000	167.636502
41.880000	207.871157
41.890000	246.699698
41.900000	278.147486
41.910000	299.673680
41.920000	303.311044
41.930000	296.927397
41.940000	291.052265
41.950000	296.753720
41.960000	307.316541
41.970000	318.827072
41.980000	328.156408
41.990000	319.439645
42.000000	284.592611
42.010000	219.973481
42.020000	157.369277
42.030000	113.710425
42.040000	91.684829
42.050000	71.965664
42.060000	47.279668
42.070000	22.501205
42.080000	8.471922
42.090000	2.247326
42.100000	8.601241
42.110000	24.889693
42.120000	46.308666
42.130000	60.429244
42.140000	60.283304
42.150000	58.609221
42.160000	57.816626
42.170000	68.733457
42.180000	83.219742
42.190000	104.478157
42.200000	124.515501
42.210000	147.179523
42.220000	171.055033
42.230000	194.472501
42.240000	219.197057
42.250000	245.689034
42.260000	275.937833
42.270000	301.472134
42.280000	331.991223
42.290000	360.138502
42.300000	401.705712
42.310000	441.317526
42.320000	478.058911
42.330000	506.082731
42.340000	508.649316
42.350000	486.831374
42.360000	437.830996
42.370000	393.611453
42.380000	366.562262
42.390000	353.285566
42.400000	343.546190
42.410000	329.906178
42.420000	311.487661
42.430000	294.152200
42.440000	282.031984
42.450000	286.359361
42.460000	303.477752
42.470000	328.506195
42.480000	344.500787
42.490000	355.321261
42.500000	360.791190
42.510000	370.107884
42.520000	379.993829
42.530000	392.523057
42.540000	408.808363
42.550000	425.875553
42.560000	447.925164
42.570000	470.821726
42.580000	493.668104
42.590000	511.374298
42.600000	529.726166
42.610000	547.526941
42.620000	565.409162
42.630000	581.626952
42.640000	601.399177
42.650000	622.327918
42.660000	646.691225
42.670000	664.618684
42.680000	672.624614
42.690000	651.156429
42.700000	603.913609
42.710000	542.006900
42.720000	489.865510
42.730000	455.104803
42.740000	426.727186
42.750000	395.168154
42.760000	361.914671
42.770000	336.215552
42.780000	322.385272
42.790000	315.869197
42.800000	322.515652
42.810000	339.798313
42.820000	354.248382
42.830000	362.387868
42.840000	354.597838
42.850000	344.341670
42.860000	331.544882
42.870000	325.957815
42.880000	325.094259
42.890000	325.541272
42.900000	329.295600
42.910000	338.763537
42.920000	352.792091
42.930000	364.274952
42.940000	376.623542
42.950000	389.081561
42.960000	410.120882
42.970000	427.806562
42.980000	446.638364
42.990000	463.151920
43.000000	479.146425
43.010000	493.465837
43.020000	503.962322
43.030000	519.788568
43.040000	530.703275
43.050000	543.804455
43.060000	534.001892
43.070000	498.862512
43.080000	433.942125
43.090000	369.329753
43.100000	323.832901
43.110000	292.714381
43.120000	272.041797
43.130000	250.060618
43.140000	231.947473
43.150000	218.378622
43.160000	219.864802
43.170000	234.313833
43.180000	258.096910
43.190000	280.549228
43.200000	301.678349
43.210000	318.430071
43.220000	328.248853
43.230000	335.651873
43.240000	339.793328
43.250000	343.873989
43.260000	349.991137
43.270000	362.091377
43.280000	386.853802
43.290000	416.593823
43.300000	452.398891
43.310000	493.416424
43.320000	540.608263
43.330000	594.230200
43.340000	650.132460
43.350000	707.380204
43.360000	763.313119
43.370000	811.180643
43.380000	847.832464
43.390000	868.639607
43.400000	880.045259
43.410000	894.779325
43.420000	906.536365
43.430000	916.604261
43.440000	914.994628
43.450000	900.451734
43.460000	859.418074
43.470000	792.337046
43.480000	716.220151
43.490000	657.581988
43.500000	626.978991
43.510000	610.761432
43.520000	594.737718
43.530000	578.647566
43.540000	574.198123
43.550000	592.200425
43.560000	621.267118
43.570000	651.427103
43.580000	670.333217
43.590000	685.044408
43.600000	718.781390
43.610000	780.293338
43.620000	869.209569
43.630000	958.808628
43.640000	1031.334782
43.650000	1076.015841
43.660000	1116.561107
43.670000	1162.189986
43.680000	1207.755016
43.690000	1233.330895
43.700000	1247.702101
43.710000	1261.484786
43.720000	1278.304891
43.730000	1290.950760
43.740000	1301.943199
43.750000	1316.767259
43.760000	1339.921436
43.770000	1373.921198
43.780000	1416.563171
43.790000	1471.434396
43.800000	1530.516609
43.810000	1593.980543
43.820000	1652.120246
43.830000	1684.508096
43.840000	1673.074733
43.850000	1602.387437
43.860000	1501.830357
43.870000	1395.597387
43.880000	1304.254356
43.890000	1234.447581
43.900000	1180.656874
43.910000	1148.339979
43.920000	1131.707328
43.930000	1131.261923
43.940000	1142.088593
43.950000	1164.878378
43.960000	1179.090737
43.970000	1193.922444
43.980000	1202.060202
43.990000	1209.014456
44.000000	1199.652414
44.010000	1171.487357
44.020000	1143.315940
44.030000	1117.260683
44.040000	1103.681667
44.050000	1094.329152
44.060000	1089.751157
44.070000	1086.733556
44.080000	1087.849470
44.090000	1099.828957
44.100000	1115.923657
44.110000	1137.626528
44.120000	1164.672518
44.130000	1196.770156
44.140000	1230.759580
44.150000	1250.891899
44.160000	1256.233298
44.170000	1246.360940
44.180000	1225.732905
44.190000	1185.806671
44.200000	1109.889097
44.210000	1020.371957
44.220000	941.395522
44.230000	891.600788
44.240000	867.854002
44.250000	855.476311
44.260000	848.347592
44.270000	831.004301
44.280000	810.915487
44.290000	798.885958
44.300000	799.477252
44.310000	807.418134
44.320000	810.697868
44.330000	805.984672
44.340000	796.279561
44.350000	781.218807
44.360000	770.565724
44.370000	757.416965
44.380000	743.217756
44.390000	725.614095
44.400000	714.913767
44.410000	726.500829
44.420000	738.182018
44.430000	743.439181
44.440000	739.803066
44.450000	746.779339
44.460000	763.041450
44.470000	787.126774
44.480000	806.590415
44.490000	819.844528
44.500000	823.474611
44.510000	813.233321
44.520000	780.352792
44.530000	713.621539
44.540000	638.002863
44.550000	570.994845
44.560000	523.640516
44.570000	484.979411
44.580000	446.289058
44.590000	409.664808
44.600000	372.261523
44.610000	340.044935
44.620000	319.238260
44.630000	306.067534
44.640000	295.213713
44.650000	271.064517
44.660000	243.260876
44.670000	216.382974
44.680000	195.310591
44.690000	171.666438
44.700000	151.735013
44.710000	132.257815
44.720000	110.494667
44.730000	85.521003
44.740000	51.239956
44.750000	21.505176
44.760000	-12.076653
44.770000	-40.463879
44.780000	-60.076364
44.790000	-77.796757
44.800000	-94.394688
44.810000	-110.130625
44.820000	-134.407497
44.830000	-178.806835
44.840000	-257.096318
44.850000	-339.700990
44.860000	-402.804928
44.870000	-448.002554
44.880000	-484.539145
44.890000	-522.310808
44.900000	-555.903185
44.910000	-584.303328
44.920000	-605.938164
44.930000	-616.628127
44.940000	-618.329726
44.950000	-619.978782
44.960000	-629.391851
44.970000	-641.300749
44.980000	-647.453309
44.990000	-645.312883
45.000000	-637.871355
45.010000	-634.350462
45.020000	-628.923332
45.030000	-628.431690
45.040000	-625.278090
45.050000	-620.546117
45.060000	-615.643338
45.070000	-608.327026
45.080000	-603.371271
45.090000	-594.755265
45.100000	-585.802077
45.110000	-580.863766
45.120000	-590.594517
45.130000	-635.343438
45.140000	-702.975828
45.150000	-771.474269
45.160000	-817.364983
45.170000	-850.040749
45.180000	-883.445548
45.190000	-915.575864
45.200000	-947.213052
45.210000	-968.427702
45.220000	-986.039543
45.230000	-985.233270
45.240000	-973.273328
45.250000	-957.051291
45.260000	-948.868935
45.270000	-948.181135
45.280000	-946.122271
45.290000	-940.342927
45.300000	-931.063511
45.310000	-916.847803
45.320000	-904.709042
45.330000	-897.355383
45.340000	-888.344074
45.350000	-874.887737
45.360000	-859.675643
45.370000	-849.780380
45.380000	-843.330980
45.390000	-833.006465
45.400000	-816.013903
45.410000	-799.608698
45.420000	-783.691905
45.430000	-781.262240
45.440000	-798.031948
45.450000	-845.614090
45.460000	-904.301444
45.470000	-956.654347
45.480000	-992.272486
45.490000	-1021.433636
45.500000	-1048.242162
45.510000	-1069.207669
45.520000	-1085.908037
45.530000	-1102.671537
45.540000	-1118.240845
45.550000	-1117.780372
45.560000	-1094.945884
45.570000	-1061.621489
45.580000	-1031.671879
45.590000	-1005.775198
45.600000	-981.404502
45.610000	-949.927515
45.620000	-915.855208
45.630000	-881.087915
45.640000	-854.339811
45.650000	-832.230201
45.660000	-808.832444
45.670000	-782.064648
45.680000	-755.020801
45.690000	-733.922429
45.700000	-711.520133
45.710000	-688.817410
45.720000	-663.023466
45.730000	-634.067500
45.740000	-606.888075
45.750000	-588.336904
45.760000	-578.414462
45.770000	-582.969501
45.780000	-602.941026
45.790000	-653.655134
45.800000	-709.033913
45.810000	-753.048262
45.820000	-778.497460
45.830000	-805.195176
45.840000	-828.907718
45.850000	-832.318751
45.860000	-806.687287
45.870000	-767.186924
45.880000	-727.140506
45.890000	-660.960108
45.900000	-594.413134
45.910000	-521.323720
45.920000	-486.838019
45.930000	-454.474228
45.940000	-419.360612
45.950000	-372.958678
45.960000	-335.639741
45.970000	-329.123750
45.980000	-336.823692
45.990000	-371.378911
46.000000	-412.927971
46.010000	-457.019100
46.020000	-482.328389
46.030000	-494.408691
46.040000	-484.364475
46.050000	-441.134118
46.060000	-384.159221
46.070000	-331.864726
46.080000	-297.948716
46.090000	-284.571130
46.100000	-308.786358
46.110000	-375.250470
46.120000	-465.233172
46.130000	-547.903059
46.140000	-601.043210
46.150000	-636.321351
46.160000	-671.542479
46.170000	-723.742976
46.180000	-787.318070
46.190000	-852.825627
46.200000	-901.405748
46.210000	-920.596857
46.220000	-915.880090
46.230000	-896.047602
46.240000	-874.370189
46.250000	-862.497045
46.260000	-857.489729
46.270000	-856.616244
46.280000	-847.919465
46.290000	-832.773934
46.300000	-811.347429
46.310000	-788.612692
46.320000	-767.437139
46.330000	-750.451313
46.340000	-733.174143
46.350000	-710.955940
46.360000	-684.257959
46.370000	-654.796421
46.380000	-630.691400
46.390000	-603.589986
46.400000	-570.805016
46.410000	-526.372112
46.420000	-478.955988
46.430000	-431.134306
46.440000	-385.436554
46.450000	-342.888365
46.460000	-303.242551
46.470000	-282.348493
46.480000	-290.695281
46.490000	-327.104290
46.500000	-366.409435
46.510000	-390.874057
46.520000	-399.161786
46.530000	-406.682556
46.540000	-409.854294
46.550000	-410.497795
46.560000	-407.196055
46.570000	-398.303462
46.580000	-386.206185
46.590000	-361.065752
46.600000	-330.587601
46.610000	-298.807295
46.620000	-274.637977
46.630000	-251.828981
46.640000	-235.039669
46.650000	-217.473445
46.660000	-202.456296
46.670000	-173.048936
46.680000	-134.921261
46.690000	-95.949614
46.700000	-50.334007
46.710000	-3.867025
46.720000	45.289762
46.730000	84.525216
46.740000	118.310238
46.750000	153.607875
46.760000	193.671214
46.770000	240.036959
46.780000	281.682615
46.790000	315.172247
46.800000	347.073972
46.810000	378.311621
46.820000	406.476205
46.830000	429.138076
46.840000	432.200635
46.850000	402.989779
46.860000	350.339245
46.870000	296.233138
46.880000	267.513829
46.890000	250.722193
46.900000	240.400535
46.910000	227.224529
46.920000	209.666306
46.930000	200.457432
46.940000	197.583396
46.950000	212.085095
46.960000	236.141330
46.970000	268.423654
46.980000	299.704375
46.990000	325.803294
47.000000	344.634131
47.010000	359.225013
47.020000	373.929296
47.030000	393.677154
47.040000	423.253300
47.050000	451.448336
47.060000	481.647420
47.070000	510.564954
47.080000	549.445596
47.090000	582.973154
47.100000	610.983639
47.110000	634.416349
47.120000	661.239997
47.130000	687.860498
47.140000	711.866016
47.150000	740.029989
47.160000	767.493895
47.170000	794.915460
47.180000	821.485592
47.190000	851.516524
47.200000	883.162243
47.210000	905.795675
47.220000	920.239545
47.230000	915.077405
47.240000	880.023133
47.250000	817.430682
47.260000	748.896711
47.270000	706.182652
47.280000	679.694443
47.290000	658.636020
47.300000	630.191616
47.310000	602.184684
47.320000	582.059971
47.330000	577.439666
47.340000	595.633572
47.350000	635.043221
47.360000	684.888596
47.370000	732.348070
47.380000	770.867994
47.390000	802.383648
47.400000	830.559804
47.410000	866.480844
47.420000	911.599973
47.430000	963.275171
47.440000	1016.676073
47.450000	1060.427018
47.460000	1097.166378
47.470000	1127.950445
47.480000	1158.378623
47.490000	1185.827614
47.500000	1207.299689
47.510000	1224.427533
47.520000	1244.613477
47.530000	1262.369090
47.540000	1284.337790
47.550000	1299.639874
47.560000	1312.146785
47.570000	1320.607561
47.580000	1325.003598
47.590000	1327.960396
47.600000	1321.208486
47.610000	1312.401736
47.620000	1295.754662
47.630000	1260.541127
47.640000	1193.672716
47.650000	1109.133312
47.660000	1029.659980
47.670000	974.093353
47.680000	927.934281
47.690000	884.119134
47.700000	841.938054
47.710000	806.205473
47.720000	782.322181
47.730000	763.303225
47.740000	752.780916
47.750000	747.427316
47.760000	742.949128
47.770000	738.272379
47.780000	723.137571
47.790000	704.877878
47.800000	688.364689
47.810000	681.871474
47.820000	677.593043
47.830000	669.582212
47.840000	660.891456
47.850000	657.345870
47.860000	658.217137
47.870000	658.476274
47.880000	657.600371
47.890000	654.316409
47.900000	650.370299
47.910000	647.534962
47.920000	643.507313
47.930000	643.151413
47.940000	646.676349
47.950000	650.803015
47.960000	654.228799
47.970000	656.835773
47.980000	662.503375
47.990000	661.876569
48.000000	648.162615
48.010000	613.291383
48.020000	554.547316
48.030000	480.781947
48.040000	421.031323
48.050000	387.603652
48.060000	373.505953
48.070000	355.424044
48.080000	331.081756
48.090000	302.298951
48.100000	282.398957
48.110000	270.511213
48.120000	271.107038
48.130000	282.415737
48.140000	292.162205
48.150000	300.396581
48.160000	297.566661
48.170000	297.483783
48.180000	303.651518
48.190000	311.256710
48.200000	318.118692
48.210000	321.402779
48.220000	328.655835
48.230000	335.891809
48.240000	345.250954
48.250000	355.412325
48.260000	364.217942
48.270000	373.651557
48.280000	383.887137
48.290000	400.278696
48.300000	415.561852
48.310000	430.634930
48.320000	445.273321
48.330000	459.698718
48.340000	471.349963
48.350000	486.158469
48.360000	502.779073
48.370000	516.982566
48.380000	527.588636
48.390000	524.153105
48.400000	497.439875
48.410000	432.679940
48.420000	352.431593
48.430000	282.252766
48.440000	236.764148
48.450000	198.441304
48.460000	154.480125
48.470000	106.706936
48.480000	65.924118
48.490000	41.003747
48.500000	25.027674
48.510000	23.036117
48.520000	24.791767
48.530000	32.805784
48.540000	37.892465
48.550000	40.637469
48.560000	43.366237
48.570000	52.849441
48.580000	66.181293
48.590000	80.094731
48.600000	89.358378
48.610000	100.740182
48.620000	112.880123
48.630000	120.408051
48.640000	130.135204
48.650000	140.419025
48.660000	160.452815
48.670000	177.736293
48.680000	201.863429
48.690000	220.358375
48.700000	238.688530
48.710000	258.000231
48.720000	278.208329
48.730000	300.008750
48.740000	315.736116
48.750000	336.432704
48.760000	355.245236
48.770000	368.896727
48.780000	371.109454
48.790000	352.381660
48.800000	304.339625
48.810000	238.951741
48.820000	180.967261
48.830000	144.521447
48.840000	120.225480
48.850000	90.430072
48.860000	57.566873
48.870000	28.378304
48.880000	6.594169
48.890000	-3.310830
48.900000	-4.037911
48.910000	9.046927
48.920000	22.974818
48.930000	31.783496
48.940000	29.680658
48.950000	26.254697
48.960000	25.730566
48.970000	33.420763
48.980000	46.115354
48.990000	57.269031
49.000000	64.536117
49.010000	68.817065
49.020000	76.328741
49.030000	90.046531
49.040000	105.791793
49.050000	119.633162
49.060000	132.624764
49.070000	138.890055
49.080000	149.192475
49.090000	160.130153
49.100000	175.802638
49.110000	189.696018
49.120000	202.119528
49.130000	216.959429
49.140000	239.126688
49.150000	260.541012
49.160000	275.493947
49.170000	283.824479
49.180000	274.183518
49.190000	235.461372
49.200000	169.594748
49.210000	105.858900
49.220000	63.664153
49.230000	35.868490
49.240000	4.722467
49.250000	-26.379418
49.260000	-59.550199
49.270000	-81.568008
49.280000	-102.202427
49.290000	-112.020552
49.300000	-110.195267
49.310000	-100.803820
49.320000	-93.186763
49.330000	-91.557485
49.340000	-90.135566
49.350000	-88.978885
49.360000	-82.721448
49.370000	-72.403465
49.380000	-61.633579
49.390000	-53.813613
49.400000	-44.176349
49.410000	-31.553663
49.420000	-16.377137
49.430000	-3.292519
49.440000	11.791903
49.450000	25.627354
49.460000	38.983930
49.470000	48.881938
49.480000	60.877471
49.490000	74.130083
49.500000	91.124335
49.510000	111.714920
49.520000	133.709215
49.530000	155.979380
49.540000	175.298085
49.550000	193.266580
49.560000	211.563034
49.570000	223.539836
49.580000	222.503165
49.590000	189.454323
49.600000	125.506613
49.610000	54.438857
49.620000	-0.818092
49.630000	-29.603085
49.640000	-51.886658
49.650000	-75.271073
49.660000	-105.944977
49.670000	-132.551458
49.680000	-148.343497
49.690000	-154.849062
49.700000	-153.068677
49.710000	-148.487373
49.720000	-138.433459
49.730000	-130.817036
49.740000	-122.764524
49.750000	-122.840963
49.760000	-118.701284
49.770000	-114.573812
49.780000	-105.610127
49.790000	-94.992676
49.800000	-82.172954
49.810000	-64.737591
49.820000	-51.431209
49.830000	-37.443665
49.840000	-24.372391
49.850000	-9.804326
49.860000	0.665224
49.870000	19.217692
49.880000	35.975833
49.890000	55.278730
49.900000	66.578589
49.910000	80.731318
49.920000	98.820327
49.930000	117.838218
49.940000	140.075223
49.950000	153.905228
49.960000	167.047976
49.970000	161.566217
49.980000	131.718396
49.990000	72.225701
50.000000	7.132968
50.010000	-47.807593
50.020000	-85.479795
50.030000	-110.209542
50.040000	-128.435870
50.050000	-144.610487
50.060000	-154.038225
50.070000	-153.353431
50.080000	-146.332151
50.090000	-137.102910
50.100000	-125.954708
50.110000	-112.189127
50.120000	-104.275503
50.130000	-98.582105
50.140000	-94.277592
50.150000	-84.632760
50.160000	-73.984220
50.170000	-56.329433
50.180000	-42.077277
50.190000	-29.668191
50.200000	-20.854656
50.210000	-7.989960
50.220000	10.341756
50.230000	30.999724
50.240000	50.193415
50.250000	63.644833
50.260000	75.391075
50.270000	87.941974
50.280000	105.248651
50.290000	120.531997
50.300000	134.782984
50.310000	156.798605
50.320000	178.258509
50.330000	195.064744
50.340000	200.715090
50.350000	184.974682
50.360000	144.176820
50.370000	77.546060
50.380000	11.700342
50.390000	-31.241981
50.400000	-54.192221
50.410000	-68.066291
50.420000	-85.771485
50.430000	-108.205794
50.440000	-122.327586
50.450000	-134.413758
50.460000	-133.184477
50.470000	-125.019515
50.480000	-110.040412
50.490000	-97.667319
50.500000	-89.892729
50.510000	-78.972101
50.520000	-61.775047
50.530000	-37.634584
50.540000	-12.359693
50.550000	9.354512
50.560000	31.059894
50.570000	50.308441
50.580000	74.487534
50.590000	98.876547
50.600000	123.241325
50.610000	151.101854
50.620000	178.287275
50.630000	208.327988
50.640000	234.618118
50.650000	260.560736
50.660000	285.583557
50.670000	312.113624
50.680000	336.844869
50.690000	365.669781
50.700000	396.060776
50.710000	423.865577
50.720000	444.251962
50.730000	453.374272
50.740000	439.063515
50.750000	396.880461
50.760000	338.896381
50.770000	295.746636
50.780000	271.966254
50.790000	249.525890
50.800000	217.029091
50.810000	179.658448
50.820000	159.445662
50.830000	155.702416
50.840000	160.816714
50.850000	166.718307
50.860000	175.187689
50.870000	187.037423
50.880000	197.515612
50.890000	207.343484
50.900000	215.142693
50.910000	219.621051
50.920000	224.420942
50.930000	233.871126
50.940000	247.990985
50.950000	262.746706
50.960000	278.208609
50.970000	293.589242
50.980000	310.067280
50.990000	326.393758
51.000000	343.232851
51.010000	360.497518
51.020000	377.364034
51.030000	397.581130
51.040000	415.436181
51.050000	432.651769
51.060000	448.802017
51.070000	467.031452
51.080000	485.787168
51.090000	502.038939
51.100000	518.085124
51.110000	532.333546
51.120000	545.353123
51.130000	550.572281
51.140000	543.256199
51.150000	505.069986
51.160000	443.526213
51.170000	379.232554
51.180000	330.752458
51.190000	301.314461
51.200000	274.218366
51.210000	246.060228
51.220000	223.004167
51.230000	208.424884
51.240000	200.401577
51.250000	195.076641
51.260000	197.782916
51.270000	212.014968
51.280000	221.735157
51.290000	224.615092
51.300000	221.319357
51.310000	216.516213
51.320000	211.183011
51.330000	207.376144
51.340000	210.344203
51.350000	215.831664
51.360000	226.478947
51.370000	251.927275
51.380000	278.837687
51.390000	297.987554
51.400000	304.828876
51.410000	313.384694
51.420000	327.410630
51.430000	339.369159
51.440000	349.632023
51.450000	354.626943
51.460000	359.828651
51.470000	365.152747
51.480000	373.984329
51.490000	385.282143
51.500000	397.420377
51.510000	412.035366
51.520000	421.111003
51.530000	429.103487
51.540000	433.729980
51.550000	431.113638
51.560000	406.264385
51.570000	352.759481
51.580000	283.463467
51.590000	224.051749
51.600000	185.232213
51.610000	160.239667
51.620000	138.934866
51.630000	113.042075
51.640000	90.958881
51.650000	68.752380
51.660000	58.969451
51.670000	59.362871
51.680000	66.249757
51.690000	74.910387
51.700000	81.137538
51.710000	80.730180
51.720000	79.324120
51.730000	83.156267
51.740000	88.086369
51.750000	91.189383
51.760000	92.125601
51.770000	102.859030
51.780000	122.732428
51.790000	137.092018
51.800000	152.331701
51.810000	165.901264
51.820000	180.880114
51.830000	185.268957
51.840000	186.414374
51.850000	193.239878
51.860000	202.513660
51.870000	232.534526
51.880000	276.140455
51.890000	325.758329
51.900000	365.340434
51.910000	396.292705
51.920000	427.823986
51.930000	451.373253
51.940000	477.287283
51.950000	513.708393
51.960000	560.989328
51.970000	581.866519
51.980000	566.024513
51.990000	492.587586
52.000000	354.021103
52.010000	194.708825
52.020000	42.228585
52.030000	-74.242349
52.040000	-154.052949
52.050000	-163.179724
52.060000	-108.859527
52.070000	-25.270006
52.080000	47.571753
52.090000	99.307879
52.100000	105.216427
52.110000	65.205735
52.120000	16.214607
52.130000	-20.354476
52.140000	-33.230963
52.150000	-18.685177
52.160000	26.571952
52.170000	81.165549
52.180000	124.960248
52.190000	154.643931
52.200000	175.285820
52.210000	193.373271
52.220000	211.179687
52.230000	233.355144
52.240000	257.299114
52.250000	283.256441
52.260000	314.671739
52.270000	345.040956
52.280000	375.642411
52.290000	395.701834
52.300000	417.251315
52.310000	434.555629
52.320000	452.129541
52.330000	463.954449
52.340000	478.955550
52.350000	493.224203
52.360000	505.026493
52.370000	510.058635
52.380000	487.623584
52.390000	435.514458
52.400000	357.139468
52.410000	283.281601
52.420000	226.507545
52.430000	188.587407
52.440000	159.744980
52.450000	126.115807
52.460000	90.929274
52.470000	59.215148
52.480000	38.686350
52.490000	23.843026
52.500000	17.363465
52.510000	20.697859
52.520000	23.905704
52.530000	23.466148
52.540000	16.010268
52.550000	9.827782
52.560000	4.986320
52.570000	5.092622
52.580000	7.839029
52.590000	11.250692
52.600000	11.912847
52.610000	13.653133
52.620000	18.873310
52.630000	29.276966
52.640000	36.027547
52.650000	42.489782
52.660000	47.056347
52.670000	48.591526
52.680000	57.336776
52.690000	65.864535
52.700000	76.195696
52.710000	77.654625
52.720000	79.661176
52.730000	85.979961
52.740000	91.318636
52.750000	102.220739
52.760000	108.144849
52.770000	104.024976
52.780000	96.551181
52.790000	79.006295
52.800000	45.172197
52.810000	-19.154932
52.820000	-76.519438
52.830000	-107.821707
52.840000	-122.077353
52.850000	-135.631597
52.860000	-156.736615
52.870000	-172.507600
52.880000	-187.902976
52.890000	-203.162657
52.900000	-219.865617
52.910000	-230.920423
52.920000	-236.642377
52.930000	-239.144152
52.940000	-253.917493
52.950000	-272.096506
52.960000	-290.671465
52.970000	-295.481583
52.980000	-290.606128
52.990000	-284.676999
53.000000	-278.317204
53.010000	-277.686604
53.020000	-274.454697
53.030000	-265.176411
53.040000	-252.409362
53.050000	-237.798293
53.060000	-225.171837
53.070000	-207.860382
53.080000	-189.097778
53.090000	-169.050871
53.100000	-139.805574
53.110000	-105.077908
53.120000	-68.652051
53.130000	-41.263085
53.140000	-6.897996
53.150000	19.326084
53.160000	35.752321
53.170000	31.415092
53.180000	6.290879
53.190000	-42.980764
53.200000	-114.632731
53.210000	-182.452952
53.220000	-229.726450
53.230000	-255.446192
53.240000	-272.336344
53.250000	-293.586387
53.260000	-317.384593
53.270000	-346.886997
53.280000	-374.885024
53.290000	-408.708729
53.300000	-427.122061
53.310000	-433.413422
53.320000	-423.822542
53.330000	-417.330581
53.340000	-410.612292
53.350000	-416.443023
53.360000	-418.139385
53.370000	-424.778327
53.380000	-421.085557
53.390000	-327.089080
53.400000	-213.265275
53.410000	-97.409314
53.420000	-69.464503
53.430000	-63.790751
53.440000	-57.938056
53.450000	-50.720131
53.460000	-22.851948
53.470000	16.782565
53.480000	49.716779
53.490000	76.846874
53.500000	114.168236
53.510000	175.078133
53.520000	261.428226
53.530000	355.762766
53.540000	447.546452
53.550000	510.576416
53.560000	539.560312
53.570000	523.545540
53.580000	485.838770
53.590000	408.237302
53.600000	287.995804
53.610000	99.702401
53.620000	-165.496038
53.630000	-501.930548
53.640000	-931.026463
53.650000	-1403.636739
53.660000	-1811.696023
53.670000	-2160.006178
53.680000	-2466.986887
53.690000	-2729.330297
53.700000	-2885.868578
53.710000	-2938.768872
53.720000	-2937.717464
53.730000	-2919.342035
53.740000	-2856.227994
53.750000	-2711.059279
53.760000	-2464.960836
53.770000	-2216.938990
53.780000	-2027.092530
53.790000	-1936.940386
53.800000	-1878.095397
53.810000	-1829.244422
53.820000	-1833.448715
53.830000	-1888.932571
53.840000	-1947.181196
53.850000	-2062.744924
53.860000	-2301.072083
53.870000	-2989.502489
53.880000	-4285.877540
53.890000	-5491.324704
53.900000	-5792.612538
53.910000	-5759.102777
53.920000	-5122.757296
53.930000	-3997.531159
53.940000	-2618.954869
53.950000	-842.951947
53.960000	-478.391731
53.970000	-109.767183
53.980000	999.267441
53.990000	22.786727
54.000000	-1664.701710
54.010000	-3208.645135
54.020000	-3444.016000
54.030000	-3509.163936
54.040000	-3317.765293
54.050000	-2886.018838
54.060000	-2119.729060
54.070000	-1246.985912
54.080000	-793.743268
54.090000	-469.324653
54.100000	-466.067967
54.110000	-823.266504
54.120000	-1503.506402
54.130000	-2039.844776
54.140000	-2362.382207
54.150000	-2360.680648
54.160000	-2052.633988
54.170000	-1863.691778
54.180000	-1684.372262
54.190000	-1205.667277
54.200000	-1051.610934
54.210000	-1103.196327
54.220000	-1325.736798
54.230000	-1746.246313
54.240000	-2060.093135
54.250000	-2294.270023
54.260000	-2466.635703
54.270000	-2539.357774
54.280000	-2483.039087
54.290000	-2277.307623
54.300000	-2043.669106
54.310000	-1820.198247
54.320000	-1634.105496
54.330000	-1462.119368
54.340000	-1340.206665
54.350000	-1408.160652
54.360000	-1638.495166
54.370000	-1997.358286
54.380000	-2397.261403
54.390000	-2723.826337
54.400000	-2882.104040
54.410000	-2833.631000
54.420000	-2634.377421
54.430000	-2351.946213
54.440000	-2050.164742
54.450000	-1771.988921
54.460000	-1547.163898
54.470000	-1403.476904
54.480000	-1267.043344
54.490000	-1155.042875
54.500000	-1134.219524
54.510000	-1292.493662
54.520000	-1601.968255
54.530000	-1920.735333
54.540000	-2198.027267
54.550000	-2326.031646
54.560000	-2323.005113
54.570000	-2211.113400
54.580000	-2081.327370
54.590000	-1911.372181
54.600000	-1719.581846
54.610000	-1553.196980
54.620000	-1439.601001
54.630000	-1356.035864
54.640000	-1275.091756
54.650000	-1174.372123
54.660000	-1054.127542
54.670000	-841.990978
54.680000	-560.049495
54.690000	-249.808217
54.700000	14.746530
54.710000	295.105916
54.720000	474.456038
54.730000	420.206690
54.740000	-33.031235
54.750000	-644.273748
54.760000	-1367.155114
54.770000	-2274.770281
54.780000	-2472.798807
54.790000	-1196.263133
54.800000	-1227.647755
54.810000	-1112.540349
54.820000	-911.142903
54.830000	-822.005440
54.840000	-759.579360
54.850000	-691.563962
54.860000	-597.155211
54.870000	-596.642178
54.880000	-634.379129
54.890000	-650.840132
54.900000	-714.082967
54.910000	-787.211761
54.920000	-882.716817
54.930000	-968.922214
54.940000	-1064.615153
54.950000	-1140.960168
54.960000	-1229.469951
54.970000	-1265.523867
54.980000	-1252.299808
54.990000	-1211.259018
55.000000	-1147.204195
55.010000	-1058.094696
55.020000	-949.581397
55.030000	-851.113121
55.040000	-793.746083
55.050000	-766.798992
55.060000	-780.081473
55.070000	-798.140641
55.080000	-822.965458
55.090000	-843.223788
55.100000	-873.029741
55.110000	-901.347248
55.120000	-927.564355
55.130000	-950.242444
55.140000	-989.932338
55.150000	-1052.201756
55.160000	-1133.379168
55.170000	-1219.235241
55.180000	-1293.255167
55.190000	-1358.423331
55.200000	-1403.859730
55.210000	-1422.387153
55.220000	-1439.986503
55.230000	-1469.077102
