Time(s)	IR_denoised_wiener
0.000000	-91.756602
0.010000	-145.113997
0.020000	-156.600894
0.030000	-159.568701
0.040000	-150.402898
0.050000	-136.734134
0.060000	-122.541308
0.070000	-108.570378
0.080000	-94.356005
0.090000	-78.750955
0.100000	-66.533104
0.110000	-46.901459
0.120000	-25.768744
0.130000	1.297226
0.140000	26.950789
0.150000	50.836046
0.160000	75.332183
0.170000	96.010595
0.180000	114.050153
0.190000	121.481270
0.200000	127.804102
0.210000	133.582142
0.220000	147.902949
0.230000	166.969186
0.240000	185.653112
0.250000	189.318492
0.260000	171.748182
0.270000	140.694689
0.280000	110.850909
0.290000	88.703679
0.300000	70.581133
0.310000	54.038172
0.320000	34.962313
0.330000	18.386721
0.340000	8.663961
0.350000	8.386171
0.360000	16.344305
0.370000	24.021420
0.380000	31.704768
0.390000	37.974650
0.400000	46.735923
0.410000	59.911905
0.420000	76.080759
0.430000	96.847073
0.440000	120.740145
0.450000	149.447311
0.460000	176.366558
0.470000	199.717314
0.480000	214.641102
0.490000	222.661492
0.500000	228.581360
0.510000	238.933854
0.520000	253.158958
0.530000	268.189542
0.540000	286.074206
0.550000	302.752102
0.560000	305.288786
0.570000	286.320381
0.580000	254.537927
0.590000	225.564879
0.600000	205.083655
0.610000	188.438247
0.620000	169.282045
0.630000	150.995677
0.640000	136.135555
0.650000	129.550157
0.660000	130.631536
0.670000	138.093601
0.680000	146.774401
0.690000	154.302270
0.700000	157.907098
0.710000	162.188809
0.720000	165.346541
0.730000	168.407470
0.740000	175.117835
0.750000	182.264763
0.760000	195.571445
0.770000	208.746856
0.780000	224.373918
0.790000	239.538364
0.800000	255.512425
0.810000	274.323168
0.820000	293.964430
0.830000	311.095567
0.840000	326.753067
0.850000	342.861696
0.860000	356.185499
0.870000	356.265967
0.880000	334.948914
0.890000	301.041484
0.900000	270.389659
0.910000	247.443701
0.920000	229.802920
0.930000	211.494103
0.940000	195.565620
0.950000	183.197362
0.960000	172.979189
0.970000	171.246537
0.980000	175.025155
0.990000	185.297871
1.000000	194.371907
1.010000	203.364672
1.020000	213.710785
1.030000	222.410534
1.040000	232.056247
1.050000	239.097399
1.060000	247.413306
1.070000	259.438133
1.080000	273.416675
1.090000	290.444489
1.100000	305.728306
1.110000	321.461111
1.120000	338.026014
1.130000	354.799320
1.140000	372.317897
1.150000	388.120246
1.160000	402.608562
1.170000	416.098480
1.180000	417.859727
1.190000	399.072757
1.200000	366.477710
1.210000	332.386370
1.220000	310.089030
1.230000	291.966483
1.240000	277.042470
1.250000	263.534868
1.260000	256.672257
1.270000	255.075468
1.280000	258.294899
1.290000	263.934292
1.300000	266.900305
1.310000	270.138635
1.320000	269.810447
1.330000	272.695441
1.340000	275.014816
1.350000	280.262041
1.360000	290.538439
1.370000	303.806941
1.380000	316.714702
1.390000	328.348047
1.400000	340.554639
1.410000	353.874901
1.420000	367.379793
1.430000	381.728614
1.440000	397.861456
1.450000	415.568146
1.460000	435.668163
1.470000	453.046830
1.480000	468.145479
1.490000	467.141584
1.500000	448.979668
1.510000	419.242935
1.520000	390.153677
1.530000	368.651246
1.540000	350.618670
1.550000	334.387515
1.560000	314.728327
1.570000	294.801145
1.580000	275.151663
1.590000	265.895122
1.600000	260.516589
1.610000	257.657062
1.620000	250.520250
1.630000	243.436428
1.640000	239.841515
1.650000	239.191453
1.660000	241.818304
1.670000	243.921435
1.680000	250.806268
1.690000	260.283519
1.700000	271.450307
1.710000	279.620940
1.720000	287.433371
1.730000	298.279190
1.740000	313.730043
1.750000	325.562323
1.760000	335.371981
1.770000	343.827712
1.780000	353.670921
1.790000	359.722495
1.800000	351.940823
1.810000	322.607809
1.820000	282.244800
1.830000	241.477217
1.840000	208.860061
1.850000	179.626832
1.860000	150.462592
1.870000	124.443774
1.880000	100.369638
1.890000	81.589295
1.900000	67.247704
1.910000	61.063096
1.920000	56.412907
1.930000	51.532261
1.940000	45.228187
1.950000	42.332966
1.960000	43.346375
1.970000	42.430889
1.980000	39.461358
1.990000	39.524047
2.000000	44.882660
2.010000	58.934204
2.020000	74.588861
2.030000	90.339879
2.040000	105.276696
2.050000	118.391765
2.060000	132.287405
2.070000	147.751438
2.080000	165.276552
2.090000	182.081179
2.100000	197.583947
2.110000	210.387359
2.120000	213.186939
2.130000	197.000559
2.140000	169.480386
2.150000	141.935040
2.160000	120.737986
2.170000	101.149843
2.180000	81.982652
2.190000	64.013822
2.200000	48.538986
2.210000	35.851760
2.220000	29.748116
2.230000	35.002025
2.240000	44.901807
2.250000	56.137539
2.260000	66.032940
2.270000	79.268760
2.280000	96.127291
2.290000	115.036649
2.300000	137.872668
2.310000	165.777208
2.320000	192.572421
2.330000	216.838443
2.340000	236.243739
2.350000	258.567976
2.360000	282.530489
2.370000	305.600850
2.380000	328.800221
2.390000	351.602486
2.400000	377.721059
2.410000	400.548352
2.420000	421.970918
2.430000	427.086909
2.440000	412.223528
2.450000	380.950372
2.460000	348.479565
2.470000	323.433620
2.480000	301.337277
2.490000	281.899105
2.500000	263.160916
2.510000	251.357355
2.520000	248.944197
2.530000	258.452254
2.540000	276.012763
2.550000	295.176011
2.560000	311.723154
2.570000	325.546506
2.580000	339.409958
2.590000	352.207978
2.600000	362.396906
2.610000	370.509574
2.620000	380.026108
2.630000	390.434100
2.640000	397.278110
2.650000	402.342458
2.660000	407.162518
2.670000	412.548307
2.680000	418.343479
2.690000	425.054906
2.700000	431.150821
2.710000	433.187952
2.720000	432.268727
2.730000	426.610864
2.740000	411.342310
2.750000	377.653498
2.760000	332.422553
2.770000	286.670784
2.780000	249.460387
2.790000	216.948627
2.800000	182.787034
2.810000	147.540847
2.820000	115.084516
2.830000	90.430964
2.840000	73.662916
2.850000	66.954306
2.860000	67.855787
2.870000	68.088494
2.880000	64.689804
2.890000	60.865855
2.900000	59.816386
2.910000	60.925004
2.920000	60.894227
2.930000	64.297411
2.940000	69.245642
2.950000	74.629635
2.960000	75.543991
2.970000	73.937728
2.980000	70.796420
2.990000	72.550518
3.000000	78.318189
3.010000	84.110546
3.020000	87.800526
3.030000	92.306233
3.040000	99.902576
3.050000	95.742720
3.060000	71.643769
3.070000	29.159802
3.080000	-16.624345
3.090000	-58.825770
3.100000	-98.962648
3.110000	-138.525370
3.120000	-178.012655
3.130000	-217.271261
3.140000	-253.436952
3.150000	-281.058769
3.160000	-296.582164
3.170000	-301.576374
3.180000	-302.457026
3.190000	-302.468587
3.200000	-304.046628
3.210000	-306.736802
3.220000	-307.680541
3.230000	-306.396096
3.240000	-307.045397
3.250000	-310.431323
3.260000	-316.459913
3.270000	-319.838025
3.280000	-318.602962
3.290000	-314.975898
3.300000	-309.795518
3.310000	-307.510613
3.320000	-305.355475
3.330000	-303.106479
3.340000	-296.291550
3.350000	-288.445740
3.360000	-282.948881
3.370000	-284.510615
3.380000	-301.672308
3.390000	-332.268596
3.400000	-368.770456
3.410000	-398.736142
3.420000	-418.616356
3.430000	-438.631768
3.440000	-455.482311
3.450000	-471.266342
3.460000	-492.417887
3.470000	-516.267215
3.480000	-539.075416
3.490000	-546.631130
3.500000	-544.512685
3.510000	-540.058844
3.520000	-534.659486
3.530000	-527.874305
3.540000	-521.538879
3.550000	-518.753144
3.560000	-517.464251
3.570000	-512.015775
3.580000	-505.139906
3.590000	-497.333058
3.600000	-487.873223
3.610000	-473.036649
3.620000	-460.699827
3.630000	-449.777257
3.640000	-437.249620
3.650000	-422.920985
3.660000	-407.865129
3.670000	-393.127057
3.680000	-375.197409
3.690000	-363.097012
3.700000	-366.260479
3.710000	-395.801415
3.720000	-439.322326
3.730000	-489.249265
3.740000	-530.092807
3.750000	-564.143162
3.760000	-589.582724
3.770000	-610.450697
3.780000	-630.803737
3.790000	-653.820363
3.800000	-671.726033
3.810000	-681.267296
3.820000	-680.049018
3.830000	-679.483965
3.840000	-678.736980
3.850000	-678.436740
3.860000	-677.485752
3.870000	-672.448771
3.880000	-663.978218
3.890000	-645.506893
3.900000	-642.959293
3.910000	-641.853514
3.920000	-641.043246
3.930000	-626.898869
3.940000	-617.614390
3.950000	-611.288912
3.960000	-596.893768
3.970000	-575.111176
3.980000	-551.921170
3.990000	-536.342005
4.000000	-521.638934
4.010000	-512.337460
4.020000	-505.403036
4.030000	-509.432030
4.040000	-522.873164
4.050000	-548.271807
4.060000	-579.052252
4.070000	-610.517476
4.080000	-638.968195
4.090000	-662.167988
4.100000	-684.302645
4.110000	-703.201950
4.120000	-718.375982
4.130000	-727.297952
4.140000	-729.522698
4.150000	-725.463994
4.160000	-716.406169
4.170000	-709.045945
4.180000	-705.010097
4.190000	-701.683964
4.200000	-697.016623
4.210000	-689.390886
4.220000	-685.112611
4.230000	-679.468561
4.240000	-673.960000
4.250000	-664.598801
4.260000	-652.555840
4.270000	-641.470070
4.280000	-627.532102
4.290000	-613.760933
4.300000	-602.574175
4.310000	-599.460980
4.320000	-600.658199
4.330000	-600.222345
4.340000	-593.813875
4.350000	-585.407062
4.360000	-576.362824
4.370000	-574.677050
4.380000	-590.985998
4.390000	-626.320885
4.400000	-667.971577
4.410000	-700.691147
4.420000	-728.075548
4.430000	-754.129076
4.440000	-774.890756
4.450000	-791.313515
4.460000	-804.104863
4.470000	-814.899961
4.480000	-817.697339
4.490000	-811.900475
4.500000	-805.378829
4.510000	-799.949998
4.520000	-798.127726
4.530000	-797.050108
4.540000	-797.284580
4.550000	-796.206504
4.560000	-791.507198
4.570000	-783.434657
4.580000	-774.801429
4.590000	-767.725299
4.600000	-758.477154
4.610000	-748.093067
4.620000	-735.878646
4.630000	-726.205078
4.640000	-718.663810
4.650000	-711.710569
4.660000	-703.511240
4.670000	-693.281797
4.680000	-681.424567
4.690000	-666.911518
4.700000	-648.733480
4.710000	-642.983517
4.720000	-658.751566
4.730000	-690.744187
4.740000	-719.792812
4.750000	-732.581957
4.760000	-737.287198
4.770000	-738.470330
4.780000	-740.508012
4.790000	-740.732698
4.800000	-735.118172
4.810000	-720.055688
4.820000	-699.140652
4.830000	-678.110147
4.840000	-660.214941
4.850000	-641.870850
4.860000	-619.012633
4.870000	-594.374656
4.880000	-569.197014
4.890000	-542.930704
4.900000	-514.770875
4.910000	-486.550535
4.920000	-458.396271
4.930000	-433.902461
4.940000	-409.390609
4.950000	-386.658021
4.960000	-359.751927
4.970000	-328.484016
4.980000	-296.511412
4.990000	-265.358092
5.000000	-241.671907
5.010000	-218.915886
5.020000	-208.935817
5.030000	-216.506846
5.040000	-245.583048
5.050000	-280.094707
5.060000	-304.282686
5.070000	-316.104784
5.080000	-316.708611
5.090000	-314.852941
5.100000	-313.167860
5.110000	-311.309398
5.120000	-302.659322
5.130000	-281.149790
5.140000	-251.228395
5.150000	-223.722738
5.160000	-207.841023
5.170000	-199.640537
5.180000	-192.493548
5.190000	-181.610289
5.200000	-169.211865
5.210000	-153.949735
5.220000	-135.645856
5.230000	-115.003690
5.240000	-95.800003
5.250000	-80.431862
5.260000	-67.655114
5.270000	-55.234569
5.280000	-37.544460
5.290000	-14.763054
5.300000	15.196287
5.310000	43.302174
5.320000	68.918052
5.330000	80.963722
5.340000	72.610207
5.350000	45.273672
5.360000	13.631585
5.370000	-7.121783
5.380000	-21.106535
5.390000	-33.225462
5.400000	-50.890580
5.410000	-67.997341
5.420000	-85.064431
5.430000	-96.791142
5.440000	-100.950922
5.450000	-99.968204
5.460000	-96.207357
5.470000	-93.853331
5.480000	-91.150161
5.490000	-87.778042
5.500000	-84.464434
5.510000	-80.065827
5.520000	-73.145735
5.530000	-66.733329
5.540000	-63.526528
5.550000	-65.097759
5.560000	-62.912533
5.570000	-55.179966
5.580000	-42.336860
5.590000	-31.646074
5.600000	-20.097741
5.610000	-9.155519
5.620000	0.446047
5.630000	-0.719119
5.640000	-21.371456
5.650000	-55.271140
5.660000	-94.546939
5.670000	-123.831314
5.680000	-145.466084
5.690000	-161.752680
5.700000	-177.753729
5.710000	-193.687936
5.720000	-205.055220
5.730000	-210.658681
5.740000	-211.054216
5.750000	-214.342447
5.760000	-218.383659
5.770000	-221.051094
5.780000	-219.736227
5.790000	-214.457673
5.800000	-209.457379
5.810000	-200.530971
5.820000	-190.554160
5.830000	-180.287572
5.840000	-169.336476
5.850000	-159.070657
5.860000	-146.795525
5.870000	-138.231008
5.880000	-133.593205
5.890000	-132.409472
5.900000	-133.408285
5.910000	-139.618931
5.920000	-152.905602
5.930000	-180.193983
5.940000	-221.401615
5.950000	-272.107982
5.960000	-315.547500
5.970000	-343.395193
5.980000	-363.086282
5.990000	-378.354760
6.000000	-393.642440
6.010000	-401.296114
6.020000	-405.579240
6.030000	-400.556940
6.040000	-390.223695
6.050000	-378.497504
6.060000	-367.542844
6.070000	-356.442006
6.080000	-343.872844
6.090000	-335.416986
6.100000	-327.522159
6.110000	-317.070446
6.120000	-302.185053
6.130000	-288.420701
6.140000	-278.181889
6.150000	-271.105491
6.160000	-264.848298
6.170000	-256.797426
6.180000	-249.536402
6.190000	-240.816380
6.200000	-232.910085
6.210000	-227.172171
6.220000	-231.975267
6.230000	-255.198361
6.240000	-291.007401
6.250000	-331.890753
6.260000	-362.688863
6.270000	-383.628596
6.280000	-401.725017
6.290000	-422.364197
6.300000	-442.740420
6.310000	-457.761448
6.320000	-463.092011
6.330000	-461.846109
6.340000	-460.118245
6.350000	-460.921602
6.360000	-465.471669
6.370000	-469.981646
6.380000	-473.163075
6.390000	-477.048089
6.400000	-477.835225
6.410000	-479.131132
6.420000	-483.834499
6.430000	-487.856866
6.440000	-492.509964
6.450000	-488.213517
6.460000	-480.888309
6.470000	-466.870282
6.480000	-450.614857
6.490000	-436.853169
6.500000	-424.984920
6.510000	-418.504917
6.520000	-425.357605
6.530000	-453.479829
6.540000	-496.680786
6.550000	-537.078040
6.560000	-566.686002
6.570000	-590.031577
6.580000	-610.007126
6.590000	-629.638643
6.600000	-646.298645
6.610000	-657.230703
6.620000	-658.906146
6.630000	-654.826258
6.640000	-649.834266
6.650000	-648.403807
6.660000	-646.053538
6.670000	-643.644512
6.680000	-641.251864
6.690000	-637.528581
6.700000	-631.096764
6.710000	-618.720258
6.720000	-607.615800
6.730000	-599.207494
6.740000	-593.441619
6.750000	-583.987702
6.760000	-572.599218
6.770000	-563.082488
6.780000	-557.727617
6.790000	-554.472972
6.800000	-550.494257
6.810000	-553.532158
6.820000	-568.558988
6.830000	-593.878063
6.840000	-622.914693
6.850000	-648.860364
6.860000	-674.600059
6.870000	-697.797353
6.880000	-719.930920
6.890000	-736.686099
6.900000	-745.901343
6.910000	-747.881242
6.920000	-742.837105
6.930000	-736.389470
6.940000	-730.393381
6.950000	-728.867119
6.960000	-727.222118
6.970000	-727.324546
6.980000	-725.664079
6.990000	-725.761881
7.000000	-725.049178
7.010000	-722.830155
7.020000	-718.726870
7.030000	-714.194438
7.040000	-713.368816
7.050000	-713.830184
7.060000	-713.968362
7.070000	-711.752721
7.080000	-706.525522
7.090000	-700.302340
7.100000	-695.369054
7.110000	-698.148166
7.120000	-716.166346
7.130000	-743.908109
7.140000	-772.904669
7.150000	-789.602429
7.160000	-796.969243
7.170000	-800.918237
7.180000	-803.970418
7.190000	-809.180611
7.200000	-809.889188
7.210000	-803.731563
7.220000	-789.420198
7.230000	-775.250612
7.240000	-761.871137
7.250000	-750.377641
7.260000	-736.580122
7.270000	-724.799754
7.280000	-712.206979
7.290000	-699.501537
7.300000	-685.765164
7.310000	-670.806881
7.320000	-657.599387
7.330000	-639.017621
7.340000	-618.728828
7.350000	-591.468512
7.360000	-565.158270
7.370000	-539.493026
7.380000	-514.183068
7.390000	-485.769909
7.400000	-456.483651
7.410000	-430.979364
7.420000	-420.393698
7.430000	-423.746281
7.440000	-432.873835
7.450000	-435.758169
7.460000	-430.636770
7.470000	-427.054813
7.480000	-426.964950
7.490000	-430.264307
7.500000	-431.529406
7.510000	-427.396071
7.520000	-414.008180
7.530000	-393.124645
7.540000	-366.734692
7.550000	-333.757608
7.560000	-296.716299
7.570000	-260.641700
7.580000	-230.607974
7.590000	-205.417553
7.600000	-177.724119
7.610000	-146.116769
7.620000	-110.416408
7.630000	-75.401396
7.640000	-39.996782
7.650000	-3.590487
7.660000	37.529133
7.670000	79.966313
7.680000	124.833811
7.690000	171.953582
7.700000	220.237640
7.710000	265.033679
7.720000	290.046407
7.730000	295.263046
7.740000	292.326032
7.750000	298.948894
7.760000	322.350934
7.770000	353.364793
7.780000	391.509039
7.790000	435.889861
7.800000	487.115857
7.810000	544.523636
7.820000	608.171138
7.830000	676.934926
7.840000	750.343240
7.850000	824.452648
7.860000	897.304360
7.870000	966.754356
7.880000	1033.057485
7.890000	1100.520190
7.900000	1167.247487
7.910000	1237.758456
7.920000	1309.206302
7.930000	1382.129286
7.940000	1454.281620
7.950000	1524.294214
7.960000	1594.158725
7.970000	1664.916612
7.980000	1735.490938
7.990000	1801.993050
8.000000	1861.956312
8.010000	1910.860587
8.020000	1942.213813
8.030000	1958.551253
8.040000	1975.640107
8.050000	2000.016452
8.060000	2029.844049
8.070000	2057.600755
8.080000	2085.877889
8.090000	2114.981621
8.100000	2146.385145
8.110000	2184.508152
8.120000	2231.357361
8.130000	2281.486467
8.140000	2332.811719
8.150000	2381.934716
8.160000	2428.749291
8.170000	2472.856944
8.180000	2510.820560
8.190000	2550.285570
8.200000	2581.654328
8.210000	2608.560944
8.220000	2624.270556
8.230000	2632.676968
8.240000	2636.027555
8.250000	2634.265776
8.260000	2631.274955
8.270000	2626.656187
8.280000	2627.690583
8.290000	2635.510599
8.300000	2643.900653
8.310000	2639.493712
8.320000	2626.307186
8.330000	2609.963636
8.340000	2601.210533
8.350000	2591.864625
8.360000	2580.950375
8.370000	2570.256860
8.380000	2563.178552
8.390000	2558.788074
8.400000	2556.224667
8.410000	2562.157951
8.420000	2582.420004
8.430000	2622.344841
8.440000	2679.746577
8.450000	2749.007688
8.460000	2818.542285
8.470000	2882.505291
8.480000	2936.160135
8.490000	2982.175757
8.500000	3023.598285
8.510000	3063.666071
8.520000	3100.508427
8.530000	3134.314753
8.540000	3166.574849
8.550000	3202.125315
8.560000	3236.769110
8.570000	3268.761872
8.580000	3289.095933
8.590000	3288.884507
8.600000	3268.600758
8.610000	3238.853801
8.620000	3209.923337
8.630000	3182.281303
8.640000	3149.712494
8.650000	3107.196811
8.660000	3053.663648
8.670000	2997.288604
8.680000	2949.440851
8.690000	2914.511543
8.700000	2886.339063
8.710000	2852.867952
8.720000	2808.404052
8.730000	2747.039372
8.740000	2672.310189
8.750000	2584.121313
8.760000	2489.976546
8.770000	2394.385663
8.780000	2299.374095
8.790000	2206.646225
8.800000	2116.961173
8.810000	2036.476472
8.820000	1966.114692
8.830000	1909.383722
8.840000	1864.397161
8.850000	1823.083864
8.860000	1776.820762
8.870000	1712.580647
8.880000	1635.769807
8.890000	1552.887981
8.900000	1472.531548
8.910000	1395.313037
8.920000	1319.759916
8.930000	1247.551799
8.940000	1176.448584
8.950000	1110.611888
8.960000	1050.931346
8.970000	1002.820141
8.980000	965.532253
8.990000	938.496587
9.000000	918.927431
9.010000	905.309511
9.020000	895.787294
9.030000	890.258829
9.040000	886.104438
9.050000	884.682547
9.060000	884.543284
9.070000	885.237700
9.080000	885.106755
9.090000	885.929502
9.100000	888.460537
9.110000	892.076556
9.120000	894.601665
9.130000	896.688894
9.140000	900.871369
9.150000	907.751899
9.160000	910.576051
9.170000	901.265668
9.180000	879.756352
9.190000	847.569936
9.200000	819.759156
9.210000	798.957958
9.220000	787.544974
9.230000	773.422450
9.240000	753.805107
9.250000	730.681294
9.260000	712.530141
9.270000	701.368624
9.280000	697.696400
9.290000	694.814058
9.300000	688.646892
9.310000	681.386204
9.320000	674.370348
9.330000	672.743242
9.340000	671.840435
9.350000	674.226166
9.360000	676.399016
9.370000	681.498265
9.380000	684.371540
9.390000	684.886647
9.400000	684.115637
9.410000	683.042151
9.420000	686.302896
9.430000	690.273854
9.440000	697.605364
9.450000	706.590650
9.460000	715.336792
9.470000	722.671305
9.480000	713.791737
9.490000	684.875467
9.500000	645.041305
9.510000	606.847212
9.520000	578.369085
9.530000	552.199336
9.540000	524.461849
9.550000	498.325134
9.560000	473.632177
9.570000	453.880034
9.580000	441.551148
9.590000	437.848547
9.600000	437.869502
9.610000	437.902172
9.620000	434.268813
9.630000	430.054252
9.640000	424.737114
9.650000	421.293846
9.660000	420.609923
9.670000	420.601209
9.680000	423.903959
9.690000	431.310773
9.700000	440.261717
9.710000	449.428979
9.720000	458.025213
9.730000	466.620826
9.740000	477.529061
9.750000	488.200535
9.760000	499.442329
9.770000	506.831726
9.780000	514.778009
9.790000	511.816448
9.800000	493.194893
9.810000	462.218365
9.820000	433.369842
9.830000	413.659415
9.840000	398.237499
9.850000	384.163279
9.860000	365.820999
9.870000	349.087516
9.880000	338.120867
9.890000	339.070589
9.900000	348.112318
9.910000	356.424521
9.920000	360.167642
9.930000	358.836739
9.940000	354.277484
9.950000	348.295842
9.960000	337.418750
9.970000	320.807031
9.980000	296.600992
9.990000	270.047106
10.000000	248.497306
10.010000	230.637254
10.020000	216.102356
10.030000	206.270567
10.040000	205.753581
10.050000	213.591450
10.060000	226.433359
10.070000	238.940904
10.080000	244.475840
10.090000	235.319239
10.100000	216.584321
10.110000	198.073448
10.120000	190.055984
10.130000	189.485217
10.140000	189.543658
10.150000	190.274432
10.160000	193.727681
10.170000	201.084326
10.180000	209.255271
10.190000	220.262450
10.200000	235.467468
10.210000	253.117331
10.220000	270.695102
10.230000	287.660735
10.240000	304.607832
10.250000	320.881578
10.260000	335.867091
10.270000	349.114846
10.280000	360.137097
10.290000	369.026102
10.300000	377.085702
10.310000	384.274478
10.320000	391.376261
10.330000	403.205815
10.340000	417.317636
10.350000	438.159039
10.360000	461.570524
10.370000	489.128695
10.380000	504.440257
10.390000	518.171060
10.400000	540.639609
10.410000	574.521857
10.420000	605.119509
10.430000	606.502245
10.440000	581.337233
10.450000	529.466320
10.460000	457.898252
10.470000	362.650284
10.480000	214.526916
10.490000	14.861464
10.500000	-267.879664
10.510000	-634.051147
10.520000	-995.641677
10.530000	-1252.007820
10.540000	-1437.151900
10.550000	-1582.886217
10.560000	-1702.423624
10.570000	-1791.444286
10.580000	-1853.375780
10.590000	-1891.694516
10.600000	-1929.609464
10.610000	-1969.247322
10.620000	-2017.885542
10.630000	-2075.476007
10.640000	-2150.548922
10.650000	-2241.252127
10.660000	-2339.327105
10.670000	-2427.975307
10.680000	-2500.257368
10.690000	-2564.997053
10.700000	-2623.980113
10.710000	-2672.037251
10.720000	-2699.395394
10.730000	-2708.149503
10.740000	-2707.871597
10.750000	-2703.289748
10.760000	-2697.719445
10.770000	-2689.459282
10.780000	-2669.925654
10.790000	-2635.019240
10.800000	-2589.200973
10.810000	-2544.981048
10.820000	-2502.489494
10.830000	-2461.656958
10.840000	-2421.156639
10.850000	-2389.743382
10.860000	-2368.185403
10.870000	-2347.186435
10.880000	-2322.279069
10.890000	-2288.012444
10.900000	-2248.451868
10.910000	-2207.558488
10.920000	-2168.677271
10.930000	-2130.145703
10.940000	-2088.620264
10.950000	-2043.128908
10.960000	-1998.970545
10.970000	-1957.491897
10.980000	-1924.724896
10.990000	-1899.226106
11.000000	-1877.532657
11.010000	-1852.676838
11.020000	-1818.068117
11.030000	-1772.536289
11.040000	-1720.680412
11.050000	-1671.469211
11.060000	-1624.662686
11.070000	-1579.462996
11.080000	-1533.704044
11.090000	-1490.200407
11.100000	-1448.466713
11.110000	-1407.333398
11.120000	-1367.298495
11.130000	-1327.861913
11.140000	-1292.874216
11.150000	-1255.426582
11.160000	-1209.518512
11.170000	-1160.087739
11.180000	-1113.901302
11.190000	-1071.131270
11.200000	-1022.659406
11.210000	-970.606837
11.220000	-923.169023
11.230000	-881.464787
11.240000	-843.739552
11.250000	-812.403290
11.260000	-797.065942
11.270000	-801.729445
11.280000	-813.415713
11.290000	-822.468363
11.300000	-821.508999
11.310000	-813.640275
11.320000	-806.017899
11.330000	-802.541328
11.340000	-805.594319
11.350000	-811.831923
11.360000	-815.235594
11.370000	-816.212615
11.380000	-815.617457
11.390000	-814.667236
11.400000	-813.736840
11.410000	-808.181467
11.420000	-801.953459
11.430000	-800.774399
11.440000	-804.227273
11.450000	-811.440348
11.460000	-817.230382
11.470000	-822.865351
11.480000	-824.962247
11.490000	-820.366034
11.500000	-810.782700
11.510000	-800.950461
11.520000	-794.676186
11.530000	-793.604709
11.540000	-809.005362
11.550000	-839.634003
11.560000	-876.723445
11.570000	-906.058050
11.580000	-925.551370
11.590000	-935.899740
11.600000	-940.797661
11.610000	-943.149519
11.620000	-944.116210
11.630000	-942.804150
11.640000	-932.830287
11.650000	-923.913714
11.660000	-916.596630
11.670000	-914.108221
11.680000	-909.412428
11.690000	-901.730979
11.700000	-893.648600
11.710000	-883.419716
11.720000	-872.972799
11.730000	-859.506791
11.740000	-847.060497
11.750000	-832.318425
11.760000	-819.914830
11.770000	-808.525197
11.780000	-795.176169
11.790000	-777.812718
11.800000	-756.855889
11.810000	-742.204533
11.820000	-739.268221
11.830000	-751.335471
11.840000	-768.723207
11.850000	-786.223645
11.860000	-793.910170
11.870000	-794.558299
11.880000	-796.189783
11.890000	-795.941275
11.900000	-782.524448
11.910000	-744.067474
11.920000	-683.310702
11.930000	-604.609522
11.940000	-524.876143
11.950000	-456.884854
11.960000	-413.185564
11.970000	-379.831949
11.980000	-353.267998
11.990000	-331.527825
12.000000	-311.424760
12.010000	-291.639776
12.020000	-268.653019
12.030000	-248.856421
12.040000	-228.597755
12.050000	-207.826947
12.060000	-185.617328
12.070000	-158.200167
12.080000	-131.072769
12.090000	-102.965137
12.100000	-83.635423
12.110000	-85.480864
12.120000	-104.897552
12.130000	-134.061673
12.140000	-155.877471
12.150000	-167.424585
12.160000	-173.956255
12.170000	-179.527203
12.180000	-184.768546
12.190000	-187.698797
12.200000	-177.967245
12.210000	-161.992420
12.220000	-142.899444
12.230000	-129.377110
12.240000	-120.881976
12.250000	-113.494789
12.260000	-107.618545
12.270000	-100.345443
12.280000	-92.106254
12.290000	-77.923114
12.300000	-60.356440
12.310000	-40.571960
12.320000	-21.018390
12.330000	-3.293275
12.340000	11.579864
12.350000	25.251483
12.360000	38.768625
12.370000	50.380822
12.380000	50.528302
12.390000	29.435367
12.400000	-4.068355
12.410000	-40.248271
12.420000	-70.742685
12.430000	-97.032745
12.440000	-121.158919
12.450000	-136.868041
12.460000	-146.672728
12.470000	-148.430616
12.480000	-142.934562
12.490000	-132.403634
12.500000	-121.944080
12.510000	-113.440786
12.520000	-108.024402
12.530000	-100.867677
12.540000	-94.865261
12.550000	-85.680594
12.560000	-77.134302
12.570000	-66.547995
12.580000	-53.481715
12.590000	-39.492997
12.600000	-22.223711
12.610000	-8.869464
12.620000	4.994428
12.630000	19.336828
12.640000	31.801290
12.650000	35.459116
12.660000	19.526228
12.670000	-8.773693
12.680000	-40.147594
12.690000	-66.413888
12.700000	-87.915720
12.710000	-111.141740
12.720000	-134.732958
12.730000	-156.939070
12.740000	-169.268788
12.750000	-171.830347
12.760000	-164.540972
12.770000	-153.475297
12.780000	-143.212360
12.790000	-135.515709
12.800000	-128.610438
12.810000	-120.959731
12.820000	-112.415165
12.830000	-102.806405
12.840000	-90.953042
12.850000	-80.067614
12.860000	-69.215205
12.870000	-60.405798
12.880000	-49.195071
12.890000	-36.828247
12.900000	-22.571347
12.910000	-6.655066
12.920000	6.973910
12.930000	13.113199
12.940000	-1.571176
12.950000	-32.804724
12.960000	-70.167138
12.970000	-98.109523
12.980000	-120.550741
12.990000	-140.813396
13.000000	-159.661232
13.010000	-173.238368
13.020000	-183.187150
13.030000	-187.386534
13.040000	-182.442971
13.050000	-169.614074
13.060000	-159.123217
13.070000	-153.887879
13.080000	-149.850502
13.090000	-145.234007
13.100000	-138.979014
13.110000	-132.653135
13.120000	-123.494613
13.130000	-113.149875
13.140000	-100.735293
13.150000	-88.052545
13.160000	-74.367421
13.170000	-61.360116
13.180000	-47.054299
13.190000	-33.409814
13.200000	-18.127316
13.210000	-4.873592
13.220000	7.415111
13.230000	3.888184
13.240000	-17.738538
13.250000	-52.059365
13.260000	-85.600329
13.270000	-108.747673
13.280000	-129.908291
13.290000	-147.471664
13.300000	-165.962822
13.310000	-181.234740
13.320000	-192.422455
13.330000	-192.042241
13.340000	-181.635999
13.350000	-168.260525
13.360000	-158.243021
13.370000	-150.854759
13.380000	-143.239374
13.390000	-135.853108
13.400000	-128.629150
13.410000	-118.571447
13.420000	-104.418233
13.430000	-89.363074
13.440000	-74.261785
13.450000	-61.887362
13.460000	-49.818305
13.470000	-39.482629
13.480000	-26.084641
13.490000	-12.158108
13.500000	2.596889
13.510000	15.765870
13.520000	23.214102
13.530000	13.610655
13.540000	-14.868505
13.550000	-50.232385
13.560000	-81.679987
13.570000	-104.149965
13.580000	-124.583046
13.590000	-141.101774
13.600000	-156.223125
13.610000	-168.768218
13.620000	-175.916648
13.630000	-175.494222
13.640000	-166.002979
13.650000	-156.974634
13.660000	-150.459372
13.670000	-144.835401
13.680000	-137.971300
13.690000	-129.424233
13.700000	-122.884500
13.710000	-115.050273
13.720000	-106.197094
13.730000	-93.724472
13.740000	-80.246559
13.750000	-67.117581
13.760000	-53.679356
13.770000	-39.901093
13.780000	-24.831458
13.790000	-10.414211
13.800000	8.313937
13.810000	27.995190
13.820000	43.733995
13.830000	42.661758
13.840000	20.791025
13.850000	-13.023641
13.860000	-46.195420
13.870000	-72.112332
13.880000	-96.268484
13.890000	-117.903700
13.900000	-137.397686
13.910000	-152.407082
13.920000	-162.919269
13.930000	-164.283521
13.940000	-156.840172
13.950000	-144.221095
13.960000	-134.491828
13.970000	-125.849956
13.980000	-119.536713
13.990000	-114.858183
14.000000	-109.962911
14.010000	-102.248650
14.020000	-89.106537
14.030000	-73.371324
14.040000	-58.970226
14.050000	-45.866647
14.060000	-34.217792
14.070000	-21.738414
14.080000	-7.518760
14.090000	7.000599
14.100000	23.138612
14.110000	40.352120
14.120000	58.080419
14.130000	72.980676
14.140000	71.278445
14.150000	49.923750
14.160000	15.120475
14.170000	-18.491225
14.180000	-42.769704
14.190000	-62.990554
14.200000	-79.694189
14.210000	-101.225102
14.220000	-120.957816
14.230000	-138.523568
14.240000	-144.242409
14.250000	-142.239629
14.260000	-134.233207
14.270000	-123.673068
14.280000	-115.607485
14.290000	-104.456206
14.300000	-96.726990
14.310000	-88.255194
14.320000	-82.245029
14.330000	-72.740449
14.340000	-61.161220
14.350000	-49.939510
14.360000	-38.112241
14.370000	-26.855066
14.380000	-12.426842
14.390000	-0.506710
14.400000	13.242722
14.410000	26.780987
14.420000	40.877065
14.430000	54.353936
14.440000	65.133065
14.450000	69.212607
14.460000	53.655730
14.470000	20.069297
14.480000	-19.835576
14.490000	-51.775136
14.500000	-76.743500
14.510000	-99.002999
14.520000	-118.680984
14.530000	-134.935583
14.540000	-148.998009
14.550000	-155.891426
14.560000	-153.696873
14.570000	-144.899266
14.580000	-137.450445
14.590000	-133.931842
14.600000	-128.219388
14.610000	-120.688006
14.620000	-109.019795
14.630000	-98.169462
14.640000	-86.172972
14.650000	-74.030621
14.660000	-62.028870
14.670000	-48.591131
14.680000	-34.261514
14.690000	-18.185174
14.700000	-0.868392
14.710000	14.509829
14.720000	31.840752
14.730000	49.820714
14.740000	68.517358
14.750000	85.421766
14.760000	101.835222
14.770000	110.630674
14.780000	97.096806
14.790000	62.849189
14.800000	22.358673
14.810000	-7.293272
14.820000	-29.470216
14.830000	-46.132940
14.840000	-64.347308
14.850000	-79.975807
14.860000	-93.604466
14.870000	-98.498782
14.880000	-95.248409
14.890000	-89.067581
14.900000	-80.913571
14.910000	-77.685397
14.920000	-71.236558
14.930000	-67.373804
14.940000	-61.563196
14.950000	-55.110086
14.960000	-45.243591
14.970000	-31.550914
14.980000	-19.638372
14.990000	-6.666182
15.000000	5.924335
15.010000	17.857884
15.020000	27.787114
15.030000	41.036843
15.040000	56.602625
15.050000	72.516823
15.060000	86.721774
15.070000	100.643806
15.080000	111.132669
15.090000	102.373871
15.100000	72.219181
15.110000	33.449903
15.120000	0.615724
15.130000	-24.202924
15.140000	-44.697985
15.150000	-62.878648
15.160000	-78.700024
15.170000	-90.911486
15.180000	-98.395975
15.190000	-96.628293
15.200000	-89.809008
15.210000	-79.697963
15.220000	-68.917092
15.230000	-60.126873
15.240000	-54.379676
15.250000	-50.575237
15.260000	-47.199606
15.270000	-39.706871
15.280000	-28.056622
15.290000	-14.870308
15.300000	-0.932868
15.310000	10.936614
15.320000	23.515756
15.330000	35.375031
15.340000	48.283101
15.350000	64.123921
15.360000	79.011641
15.370000	93.194759
15.380000	108.722605
15.390000	124.568178
15.400000	131.722893
15.410000	113.565484
15.420000	78.102502
15.430000	37.887171
15.440000	8.469115
15.450000	-13.530810
15.460000	-34.860991
15.470000	-54.949268
15.480000	-73.211434
15.490000	-84.709258
15.500000	-92.938317
15.510000	-92.798702
15.520000	-87.373857
15.530000	-78.236628
15.540000	-71.507635
15.550000	-66.675202
15.560000	-62.992749
15.570000	-59.799107
15.580000	-54.824992
15.590000	-47.612648
15.600000	-36.337923
15.610000	-22.452743
15.620000	-8.537957
15.630000	4.360930
15.640000	16.582247
15.650000	30.831094
15.660000	46.677383
15.670000	62.281149
15.680000	77.761884
15.690000	94.385220
15.700000	113.497694
15.710000	129.454728
15.720000	130.869255
15.730000	112.192011
15.740000	80.928630
15.750000	47.923971
15.760000	23.305087
15.770000	5.275784
15.780000	-10.004589
15.790000	-24.046305
15.800000	-37.659097
15.810000	-46.701337
15.820000	-51.004177
15.830000	-47.026554
15.840000	-36.041713
15.850000	-26.049263
15.860000	-17.069469
15.870000	-11.423546
15.880000	-4.088760
15.890000	1.166536
15.900000	7.900800
15.910000	18.743008
15.920000	31.198780
15.930000	45.984339
15.940000	59.808675
15.950000	75.900046
15.960000	92.728856
15.970000	107.134842
15.980000	120.986631
15.990000	134.689614
16.000000	150.573900
16.010000	165.553932
16.020000	179.493903
16.030000	195.752691
16.040000	203.700537
16.050000	190.938518
16.060000	155.929136
16.070000	118.508722
16.080000	90.795749
16.090000	71.367817
16.100000	51.969880
16.110000	32.576001
16.120000	14.808561
16.130000	-0.892170
16.140000	-14.025499
16.150000	-17.682113
16.160000	-9.544677
16.170000	2.494266
16.180000	11.266032
16.190000	17.687618
16.200000	28.420821
16.210000	40.182158
16.220000	48.567903
16.230000	55.355915
16.240000	64.048829
16.250000	74.515665
16.260000	85.857152
16.270000	96.670406
16.280000	107.333606
16.290000	118.155060
16.300000	129.808032
16.310000	142.301724
16.320000	156.950074
16.330000	171.770227
16.340000	188.433240
16.350000	204.893138
16.360000	213.900257
16.370000	207.345356
16.380000	181.043243
16.390000	146.840321
16.400000	117.521043
16.410000	94.636857
16.420000	77.993324
16.430000	62.419185
16.440000	54.163284
16.450000	50.175806
16.460000	50.007067
16.470000	55.605879
16.480000	67.179783
16.490000	82.028529
16.500000	91.002197
16.510000	95.815282
16.520000	96.821986
16.530000	97.946465
16.540000	100.970697
16.550000	109.751666
16.560000	121.436141
16.570000	134.228447
16.580000	145.568340
16.590000	157.052343
16.600000	168.030242
16.610000	176.207773
16.620000	183.506614
16.630000	191.699190
16.640000	201.984647
16.650000	212.518989
16.660000	220.797776
16.670000	230.359130
16.680000	240.269203
16.690000	243.185749
16.700000	229.405054
16.710000	199.712249
16.720000	163.235053
16.730000	132.586384
16.740000	107.033283
16.750000	85.464524
16.760000	64.831395
16.770000	45.357010
16.780000	31.312807
16.790000	24.247689
16.800000	29.142805
16.810000	38.777501
16.820000	48.318830
16.830000	53.648900
16.840000	58.522922
16.850000	62.515415
16.860000	67.406491
16.870000	71.044704
16.880000	78.984950
16.890000	90.564124
16.900000	106.240519
16.910000	123.750249
16.920000	142.842616
16.930000	160.269290
16.940000	177.799793
16.950000	194.121311
16.960000	212.778573
16.970000	232.969803
16.980000	252.428550
16.990000	268.826822
17.000000	268.389258
17.010000	247.721334
17.020000	212.049432
17.030000	176.318463
17.040000	148.700397
17.050000	129.236122
17.060000	112.345586
17.070000	100.184824
17.080000	87.981675
17.090000	78.497611
17.100000	73.625569
17.110000	76.156517
17.120000	82.930233
17.130000	89.154855
17.140000	92.920187
17.150000	96.508878
17.160000	104.928589
17.170000	118.193610
17.180000	141.295210
17.190000	169.195472
17.200000	200.015309
17.210000	233.212598
17.220000	270.085510
17.230000	311.573910
17.240000	349.475892
17.250000	381.630555
17.260000	407.549727
17.270000	435.389917
17.280000	462.940841
17.290000	490.167782
17.300000	506.983647
17.310000	506.968458
17.320000	485.711477
17.330000	449.812313
17.340000	412.136216
17.350000	384.332619
17.360000	363.534297
17.370000	341.852433
17.380000	319.635052
17.390000	298.388895
17.400000	286.100483
17.410000	275.898171
17.420000	272.611751
17.430000	273.400151
17.440000	275.136078
17.450000	273.913908
17.460000	270.353485
17.470000	268.785241
17.480000	269.239865
17.490000	271.002038
17.500000	277.485161
17.510000	288.890984
17.520000	301.734692
17.530000	314.132077
17.540000	326.003653
17.550000	339.393528
17.560000	354.950024
17.570000	373.002062
17.580000	389.900141
17.590000	404.298307
17.600000	415.199310
17.610000	417.598346
17.620000	399.159849
17.630000	362.287073
17.640000	320.164907
17.650000	285.322267
17.660000	252.803572
17.670000	217.371678
17.680000	179.472861
17.690000	135.759036
17.700000	94.522512
17.710000	59.147993
17.720000	41.276602
17.730000	35.170999
17.740000	32.037431
17.750000	28.891780
17.760000	22.813603
17.770000	20.320336
17.780000	18.579298
17.790000	26.462927
17.800000	45.673871
17.810000	79.291219
17.820000	122.428502
17.830000	165.455101
17.840000	199.533949
17.850000	217.305023
17.860000	224.691209
17.870000	229.174571
17.880000	235.188785
17.890000	237.365897
17.900000	231.705491
17.910000	205.214572
17.920000	163.288088
17.930000	112.749228
17.940000	68.909392
17.950000	32.927074
17.960000	0.196929
17.970000	-28.865892
17.980000	-58.178700
17.990000	-81.615874
18.000000	-97.217034
18.010000	-101.345850
18.020000	-100.601410
18.030000	-100.056227
18.040000	-100.625625
18.050000	-104.086892
18.060000	-108.290305
18.070000	-111.770682
18.080000	-110.599458
18.090000	-106.120186
18.100000	-101.565024
18.110000	-94.104259
18.120000	-87.199080
18.130000	-77.387185
18.140000	-66.498865
18.150000	-54.984170
18.160000	-40.441992
18.170000	-27.919441
18.180000	-15.015815
18.190000	-8.196870
18.200000	-17.249887
18.210000	-42.098324
18.220000	-76.785581
18.230000	-108.298155
18.240000	-133.332358
18.250000	-156.169888
18.260000	-178.188881
18.270000	-198.686946
18.280000	-217.698452
18.290000	-229.171631
18.300000	-231.872247
18.310000	-227.649089
18.320000	-221.037706
18.330000	-217.446542
18.340000	-216.504867
18.350000	-217.895024
18.360000	-221.958028
18.370000	-222.977699
18.380000	-217.067014
18.390000	-204.723189
18.400000	-189.836060
18.410000	-180.464169
18.420000	-174.227108
18.430000	-172.532861
18.440000	-167.242538
18.450000	-155.934488
18.460000	-135.907729
18.470000	-112.007329
18.480000	-88.221013
18.490000	-70.402369
18.500000	-68.529323
18.510000	-83.422579
18.520000	-111.141502
18.530000	-136.395185
18.540000	-157.106833
18.550000	-170.014685
18.560000	-183.754945
18.570000	-194.917821
18.580000	-203.061217
18.590000	-201.787894
18.600000	-190.032041
18.610000	-174.997204
18.620000	-160.643764
18.630000	-149.853305
18.640000	-139.889757
18.650000	-127.357236
18.660000	-114.801655
18.670000	-102.838728
18.680000	-90.024032
18.690000	-77.978050
18.700000	-64.217825
18.710000	-53.787338
18.720000	-42.034218
18.730000	-28.590899
18.740000	-14.169352
18.750000	-0.045055
18.760000	13.716517
18.770000	27.519821
18.780000	40.617026
18.790000	51.767877
18.800000	50.844384
18.810000	30.374550
18.820000	-3.205342
18.830000	-35.311623
18.840000	-56.584578
18.850000	-74.358749
18.860000	-90.597435
18.870000	-105.048102
18.880000	-115.586737
18.890000	-115.706942
18.900000	-103.904571
18.910000	-85.365551
18.920000	-68.211800
18.930000	-53.318859
18.940000	-38.157547
18.950000	-22.927463
18.960000	-7.750817
18.970000	9.154827
18.980000	31.012266
18.990000	56.243059
19.000000	84.464495
19.010000	112.676700
19.020000	135.596449
19.030000	153.478277
19.040000	168.753840
19.050000	187.977366
19.060000	207.903902
19.070000	227.502182
19.080000	241.729320
19.090000	240.700132
19.100000	223.599475
19.110000	196.603833
19.120000	175.181754
19.130000	160.822463
19.140000	149.769669
19.150000	140.066128
19.160000	131.047948
19.170000	127.678777
19.180000	128.328359
19.190000	136.325337
19.200000	142.929292
19.210000	148.684447
19.220000	151.543535
19.230000	154.076713
19.240000	156.505177
19.250000	157.485239
19.260000	161.837684
19.270000	168.899345
19.280000	179.194132
19.290000	188.989144
19.300000	201.256418
19.310000	214.086328
19.320000	227.678659
19.330000	241.870044
19.340000	259.463275
19.350000	277.659299
19.360000	294.939029
19.370000	310.137176
19.380000	317.088726
19.390000	305.290839
19.400000	277.963839
19.410000	245.150986
19.420000	219.199709
19.430000	197.658265
19.440000	179.460513
19.450000	168.533735
19.460000	160.051764
19.470000	155.113313
19.480000	153.995270
19.490000	158.384618
19.500000	165.614682
19.510000	168.665170
19.520000	169.947877
19.530000	171.632942
19.540000	175.300673
19.550000	180.282428
19.560000	186.008302
19.570000	195.295781
19.580000	205.054266
19.590000	214.336248
19.600000	223.792513
19.610000	233.061825
19.620000	244.893856
19.630000	255.457206
19.640000	268.370198
19.650000	285.201486
19.660000	303.189164
19.670000	323.644792
19.680000	338.336410
19.690000	346.797236
19.700000	336.805828
19.710000	309.674622
19.720000	276.322713
19.730000	249.244057
19.740000	234.843906
19.750000	221.117265
19.760000	207.751521
19.770000	194.678754
19.780000	188.364659
19.790000	189.244557
19.800000	195.659553
19.810000	205.162334
19.820000	211.631792
19.830000	214.449288
19.840000	215.966212
19.850000	222.434270
19.860000	229.625790
19.870000	237.785432
19.880000	245.635037
19.890000	257.171553
19.900000	270.983184
19.910000	283.572320
19.920000	296.030927
19.930000	305.315330
19.940000	316.788640
19.950000	330.062701
19.960000	346.237205
19.970000	359.477734
19.980000	368.384594
19.990000	373.584911
20.000000	367.863623
20.010000	344.713809
20.020000	308.057666
20.030000	271.890003
20.040000	243.252166
20.050000	220.394864
20.060000	198.123268
20.070000	177.268926
20.080000	158.011814
20.090000	142.500881
20.100000	136.262035
20.110000	137.398095
20.120000	144.532580
20.130000	146.620894
20.140000	145.858207
20.150000	144.194984
20.160000	142.532825
20.170000	144.795823
20.180000	146.201888
20.190000	153.446449
20.200000	158.849636
20.210000	165.143747
20.220000	168.831586
20.230000	172.876671
20.240000	177.824681
20.250000	185.965405
20.260000	195.490772
20.270000	207.412703
20.280000	219.832920
20.290000	233.885609
20.300000	244.842809
20.310000	239.351896
20.320000	215.902184
20.330000	176.845645
20.340000	141.357843
20.350000	109.971487
20.360000	85.502958
20.370000	61.755645
20.380000	37.678496
20.390000	16.567920
20.400000	1.536255
20.410000	-4.604687
20.420000	-2.599925
20.430000	5.568356
20.440000	14.937974
20.450000	19.420453
20.460000	21.180574
20.470000	23.290293
20.480000	27.100247
20.490000	33.841490
20.500000	45.035621
20.510000	60.736775
20.520000	78.311617
20.530000	94.311039
20.540000	108.611181
20.550000	124.575867
20.560000	141.914908
20.570000	166.204219
20.580000	189.528875
20.590000	211.199591
20.600000	229.152785
20.610000	244.885002
20.620000	259.121381
20.630000	262.221956
20.640000	243.767721
20.650000	204.937186
20.660000	160.130000
20.670000	121.993764
20.680000	91.472828
20.690000	60.036880
20.700000	29.188973
20.710000	2.765360
20.720000	-17.755871
20.730000	-33.167043
20.740000	-44.355761
20.750000	-49.079102
20.760000	-50.291649
20.770000	-53.988035
20.780000	-64.210835
20.790000	-79.537418
20.800000	-98.452028
20.810000	-121.414625
20.820000	-150.353116
20.830000	-181.264872
20.840000	-214.923450
20.850000	-242.745680
20.860000	-258.824189
20.870000	-261.227258
20.880000	-250.053818
20.890000	-235.727298
20.900000	-213.565520
20.910000	-190.248898
20.920000	-163.041833
20.930000	-137.116141
20.940000	-116.505731
20.950000	-101.630954
20.960000	-95.634719
20.970000	-93.113354
20.980000	-103.462196
20.990000	-132.577436
21.000000	-181.935607
21.010000	-235.317767
21.020000	-278.740120
21.030000	-312.087933
21.040000	-337.208542
21.050000	-361.866310
21.060000	-382.638304
21.070000	-404.326115
21.080000	-420.028194
21.090000	-427.123381
21.100000	-427.756979
21.110000	-426.586779
21.120000	-428.813243
21.130000	-430.350750
21.140000	-433.212422
21.150000	-437.769793
21.160000	-442.933919
21.170000	-443.838202
21.180000	-438.991170
21.190000	-434.253361
21.200000	-428.021214
21.210000	-423.341319
21.220000	-415.022056
21.230000	-406.112064
21.240000	-396.674914
21.250000	-387.210946
21.260000	-377.653205
21.270000	-365.630543
21.280000	-355.309880
21.290000	-347.033442
21.300000	-339.288645
21.310000	-330.095618
21.320000	-319.266267
21.330000	-309.158761
21.340000	-303.240946
21.350000	-309.561864
21.360000	-337.212562
21.370000	-377.577107
21.380000	-420.841691
21.390000	-455.916339
21.400000	-486.839890
21.410000	-514.574660
21.420000	-543.842640
21.430000	-568.865047
21.440000	-590.190353
21.450000	-600.795566
21.460000	-604.896535
21.470000	-604.046373
21.480000	-599.596429
21.490000	-597.303540
21.500000	-592.595537
21.510000	-589.578781
21.520000	-586.238721
21.530000	-581.851768
21.540000	-572.868318
21.550000	-560.130965
21.560000	-545.494811
21.570000	-533.411373
21.580000	-519.424214
21.590000	-508.043743
21.600000	-497.664105
21.610000	-482.658976
21.620000	-467.258254
21.630000	-447.913310
21.640000	-433.212814
21.650000	-417.789661
21.660000	-401.174442
21.670000	-382.324654
21.680000	-360.129363
21.690000	-336.528103
21.700000	-310.402555
21.710000	-286.073083
21.720000	-275.021933
21.730000	-289.279336
21.740000	-318.238825
21.750000	-348.470772
21.760000	-366.782552
21.770000	-380.043405
21.780000	-392.979733
21.790000	-408.603913
21.800000	-422.482284
21.810000	-434.167761
21.820000	-438.631208
21.830000	-437.408495
21.840000	-432.105743
21.850000	-427.984580
21.860000	-427.564613
21.870000	-427.536410
21.880000	-429.027309
21.890000	-430.739767
21.900000	-430.813191
21.910000	-426.598904
21.920000	-421.941391
21.930000	-417.774400
21.940000	-418.068824
21.950000	-416.245008
21.960000	-415.547191
21.970000	-413.022409
21.980000	-409.693483
21.990000	-403.113808
22.000000	-394.172316
22.010000	-385.867565
22.020000	-377.296846
22.030000	-367.945311
22.040000	-356.742618
22.050000	-343.013417
22.060000	-326.177764
22.070000	-309.414127
22.080000	-305.962661
22.090000	-320.112200
22.100000	-334.008520
22.110000	-340.160342
22.120000	-328.368373
22.130000	-317.275625
22.140000	-311.343687
22.150000	-310.699902
22.160000	-312.631919
22.170000	-308.762486
22.180000	-309.291520
22.190000	-312.779927
22.200000	-324.623195
22.210000	-336.412564
22.220000	-351.640474
22.230000	-360.996090
22.240000	-366.675212
22.250000	-366.887656
22.260000	-366.045773
22.270000	-366.091019
22.280000	-363.720305
22.290000	-360.292018
22.300000	-352.700531
22.310000	-344.161453
22.320000	-328.305290
22.330000	-309.377349
22.340000	-285.543771
22.350000	-264.268981
22.360000	-244.408582
22.370000	-224.476089
22.380000	-206.599507
22.390000	-190.993900
22.400000	-177.772546
22.410000	-163.149832
22.420000	-145.266138
22.430000	-125.630043
22.440000	-107.746673
22.450000	-102.779177
22.460000	-120.203562
22.470000	-153.531882
22.480000	-184.274664
22.490000	-203.290534
22.500000	-210.684528
22.510000	-218.060558
22.520000	-228.049295
22.530000	-239.466075
22.540000	-245.043080
22.550000	-238.185588
22.560000	-219.702431
22.570000	-190.550489
22.580000	-159.360926
22.590000	-129.879785
22.600000	-101.317856
22.610000	-73.187214
22.620000	-46.923787
22.630000	-26.812596
22.640000	-15.501759
22.650000	-16.082141
22.660000	-27.043118
22.670000	-40.977926
22.680000	-54.905475
22.690000	-67.520232
22.700000	-83.425724
22.710000	-95.337960
22.720000	-101.268330
22.730000	-86.093833
22.740000	-48.121785
22.750000	6.488359
22.760000	67.707358
22.770000	131.781273
22.780000	202.918784
22.790000	273.402105
22.800000	328.806055
22.810000	360.734018
22.820000	381.779089
22.830000	402.087579
22.840000	423.424389
22.850000	438.779242
22.860000	454.802995
22.870000	468.139449
22.880000	475.544848
22.890000	480.213848
22.900000	495.344254
22.910000	528.636796
22.920000	570.459932
22.930000	607.747748
22.940000	639.305876
22.950000	665.226781
22.960000	683.845089
22.970000	694.406626
22.980000	692.405850
22.990000	686.320853
23.000000	677.312101
23.010000	678.968333
23.020000	677.509155
23.030000	649.622462
23.040000	598.144372
23.050000	547.702968
23.060000	529.831922
23.070000	539.382927
23.080000	560.858082
23.090000	591.130732
23.100000	628.923349
23.110000	673.246847
23.120000	711.992413
23.130000	729.387388
23.140000	722.798867
23.150000	693.239382
23.160000	653.338806
23.170000	618.801530
23.180000	602.573004
23.190000	603.025612
23.200000	605.473417
23.210000	590.605856
23.220000	552.111842
23.230000	499.598905
23.240000	447.800201
23.250000	418.647682
23.260000	416.476283
23.270000	437.042382
23.280000	464.824299
23.290000	486.813651
23.300000	502.242354
23.310000	510.622194
23.320000	523.062182
23.330000	534.757025
23.340000	546.266819
23.350000	549.906021
23.360000	549.205811
23.370000	546.421791
23.380000	543.514332
23.390000	542.641838
23.400000	542.182925
23.410000	544.911127
23.420000	551.215523
23.430000	565.562212
23.440000	582.926024
23.450000	603.264326
23.460000	614.975490
23.470000	614.358882
23.480000	593.383831
23.490000	559.867759
23.500000	526.843977
23.510000	499.726536
23.520000	478.660491
23.530000	459.611350
23.540000	446.536476
23.550000	434.509287
23.560000	421.457826
23.570000	407.450624
23.580000	401.775346
23.590000	407.412145
23.600000	418.773498
23.610000	427.403270
23.620000	429.488536
23.630000	430.457225
23.640000	434.571134
23.650000	441.536071
23.660000	452.695607
23.670000	466.310465
23.680000	484.869009
23.690000	508.448853
23.700000	537.413774
23.710000	567.612042
23.720000	594.995984
23.730000	621.495428
23.740000	643.600315
23.750000	663.431285
23.760000	679.899445
23.770000	696.750641
23.780000	715.562773
23.790000	733.427757
23.800000	755.952830
23.810000	771.761487
23.820000	768.042121
23.830000	745.502102
23.840000	715.864662
23.850000	696.628141
23.860000	684.666684
23.870000	675.118765
23.880000	667.850932
23.890000	661.976444
23.900000	662.420145
23.910000	672.532010
23.920000	691.012005
23.930000	713.781898
23.940000	734.633161
23.950000	755.756527
23.960000	776.280768
23.970000	798.106815
23.980000	818.951438
23.990000	841.505158
24.000000	868.322631
24.010000	898.260739
24.020000	925.715458
24.030000	948.058196
24.040000	967.154146
24.050000	986.894545
24.060000	1005.944942
24.070000	1021.426241
24.080000	1038.457086
24.090000	1052.296690
24.100000	1064.017471
24.110000	1071.858067
24.120000	1079.290707
24.130000	1088.113080
24.140000	1092.908781
24.150000	1092.744803
24.160000	1086.891548
24.170000	1073.403718
24.180000	1046.560867
24.190000	1006.776118
24.200000	959.607333
24.210000	922.209757
24.220000	897.309920
24.230000	882.324256
24.240000	873.370737
24.250000	866.466620
24.260000	863.141177
24.270000	859.621909
24.280000	851.938223
24.290000	835.134635
24.300000	807.437136
24.310000	771.351894
24.320000	733.305905
24.330000	694.914662
24.340000	658.535067
24.350000	628.507531
24.360000	607.784695
24.370000	606.477289
24.380000	614.335245
24.390000	622.473922
24.400000	623.913760
24.410000	615.503406
24.420000	603.874416
24.430000	579.175821
24.440000	547.232588
24.450000	513.868951
24.460000	493.300777
24.470000	488.885475
24.480000	499.041531
24.490000	514.232523
24.500000	532.822597
24.510000	536.552094
24.520000	518.652973
24.530000	478.906966
24.540000	427.528875
24.550000	379.959285
24.560000	331.699327
24.570000	296.410348
24.580000	261.813614
24.590000	230.583777
24.600000	196.250290
24.610000	165.473654
24.620000	140.354365
24.630000	111.344335
24.640000	76.491641
24.650000	33.559443
24.660000	-8.996969
24.670000	-45.221362
24.680000	-74.823987
24.690000	-96.322198
24.700000	-105.968555
24.710000	-93.730002
24.720000	-57.125225
24.730000	-4.492678
24.740000	58.733802
24.750000	125.748136
24.760000	202.300780
24.770000	285.638597
24.780000	364.851230
24.790000	425.524849
24.800000	466.777128
24.810000	492.428500
24.820000	499.020378
24.830000	481.665099
24.840000	445.962165
24.850000	412.946681
24.860000	390.870949
24.870000	381.211274
24.880000	386.116049
24.890000	385.749467
24.900000	371.391836
24.910000	350.999792
24.920000	365.423802
24.930000	417.143396
24.940000	460.989731
24.950000	465.990323
24.960000	417.597932
24.970000	329.924217
24.980000	146.184427
24.990000	-90.342665
25.000000	-356.451670
25.010000	-620.008257
25.020000	-813.708934
25.030000	-970.752102
25.040000	-1080.620028
25.050000	-1152.484987
25.060000	-1188.855478
25.070000	-1205.924078
25.080000	-1216.363368
25.090000	-1228.025995
25.100000	-1235.511393
25.110000	-1245.504773
25.120000	-1262.664639
25.130000	-1293.666993
25.140000	-1341.820309
25.150000	-1408.502682
25.160000	-1480.615413
25.170000	-1541.675352
25.180000	-1582.778014
25.190000	-1608.231391
25.200000	-1623.959187
25.210000	-1625.105669
25.220000	-1616.849466
25.230000	-1603.659901
25.240000	-1594.099906
25.250000	-1585.866878
25.260000	-1575.363037
25.270000	-1566.109975
25.280000	-1559.971823
25.290000	-1559.037529
25.300000	-1555.236832
25.310000	-1547.334927
25.320000	-1536.192269
25.330000	-1526.661555
25.340000	-1520.491027
25.350000	-1517.334519
25.360000	-1514.134655
25.370000	-1509.029972
25.380000	-1502.804968
25.390000	-1493.403908
25.400000	-1481.168341
25.410000	-1464.793315
25.420000	-1452.244008
25.430000	-1440.840482
25.440000	-1427.672863
25.450000	-1408.237236
25.460000	-1392.829805
25.470000	-1387.309368
25.480000	-1386.310268
25.490000	-1381.728440
25.500000	-1365.144430
25.510000	-1346.552746
25.520000	-1324.301346
25.530000	-1304.419635
25.540000	-1280.445507
25.550000	-1249.317478
25.560000	-1213.961112
25.570000	-1175.231343
25.580000	-1144.193171
25.590000	-1114.118111
25.600000	-1085.801022
25.610000	-1056.015644
25.620000	-1023.770159
25.630000	-991.277128
25.640000	-955.747369
25.650000	-921.580153
25.660000	-884.054642
25.670000	-841.914447
25.680000	-797.393223
25.690000	-756.280193
25.700000	-715.061232
25.710000	-671.337269
25.720000	-625.759166
25.730000	-586.102071
25.740000	-553.794435
25.750000	-525.207688
25.760000	-505.876173
25.770000	-506.682560
25.780000	-526.613062
25.790000	-555.152416
25.800000	-579.364301
25.810000	-595.334635
25.820000	-609.163876
25.830000	-620.185674
25.840000	-631.661549
25.850000	-635.693275
25.860000	-632.869643
25.870000	-624.890932
25.880000	-617.442242
25.890000	-610.426153
25.900000	-599.021863
25.910000	-585.667853
25.920000	-572.620733
25.930000	-567.276622
25.940000	-561.529846
25.950000	-553.254498
25.960000	-543.466798
25.970000	-533.585880
25.980000	-525.089498
25.990000	-512.249573
26.000000	-496.751174
26.010000	-478.593761
26.020000	-459.769955
26.030000	-439.949706
26.040000	-422.817733
26.050000	-406.307654
26.060000	-397.240884
26.070000	-407.028997
26.080000	-432.307394
26.090000	-462.414061
26.100000	-482.044735
26.110000	-494.867966
26.120000	-507.473309
26.130000	-517.313127
26.140000	-527.934781
26.150000	-532.746401
26.160000	-530.426490
26.170000	-516.854210
26.180000	-496.624155
26.190000	-473.976187
26.200000	-452.835884
26.210000	-434.438820
26.220000	-421.064974
26.230000	-407.561977
26.240000	-392.652085
26.250000	-370.352697
26.260000	-341.605136
26.270000	-307.490490
26.280000	-269.572634
26.290000	-231.313047
26.300000	-189.868796
26.310000	-149.500854
26.320000	-110.499549
26.330000	-73.702085
26.340000	-35.797254
26.350000	-0.266740
26.360000	30.229444
26.370000	40.456459
26.380000	34.966458
26.390000	19.171567
26.400000	8.387130
26.410000	2.166755
26.420000	-3.879413
26.430000	-10.169957
26.440000	-14.815512
26.450000	-13.509012
26.460000	-4.433858
26.470000	13.474706
26.480000	38.264594
26.490000	67.448951
26.500000	95.279661
26.510000	120.762068
26.520000	142.285764
26.530000	165.421212
26.540000	188.598804
26.550000	214.752849
26.560000	239.886503
26.570000	266.095155
26.580000	294.833283
26.590000	321.415006
26.600000	350.801203
26.610000	379.707089
26.620000	412.117534
26.630000	443.972415
26.640000	476.109550
26.650000	505.556399
26.660000	525.085892
26.670000	526.132937
26.680000	510.420267
26.690000	484.385749
26.700000	458.094805
26.710000	435.284918
26.720000	413.081791
26.730000	391.857143
26.740000	374.072186
26.750000	364.099149
26.760000	358.706420
26.770000	359.686535
26.780000	361.318453
26.790000	362.953137
26.800000	353.901712
26.810000	330.571546
26.820000	291.824207
26.830000	247.887177
26.840000	209.414051
26.850000	183.191873
26.860000	169.652964
26.870000	164.483558
26.880000	165.899016
26.890000	170.771915
26.900000	179.822830
26.910000	192.390502
26.920000	206.076061
26.930000	215.669053
26.940000	222.348021
26.950000	224.942493
26.960000	228.304690
26.970000	218.499324
26.980000	190.621308
26.990000	146.075454
27.000000	102.651719
27.010000	65.619471
27.020000	27.984207
27.030000	-10.147764
27.040000	-49.683358
27.050000	-82.219883
27.060000	-110.043919
27.070000	-128.603372
27.080000	-136.743814
27.090000	-140.001753
27.100000	-140.430505
27.110000	-145.076726
27.120000	-150.417555
27.130000	-155.822210
27.140000	-157.725623
27.150000	-154.568790
27.160000	-142.690011
27.170000	-122.321334
27.180000	-101.337167
27.190000	-76.705539
27.200000	-50.325987
27.210000	-13.388288
27.220000	25.309032
27.230000	68.299121
27.240000	111.598683
27.250000	154.668681
27.260000	199.902576
27.270000	247.705798
27.280000	296.540978
27.290000	335.390213
27.300000	352.851820
27.310000	349.781946
27.320000	337.197709
27.330000	322.170130
27.340000	314.892947
27.350000	308.853351
27.360000	309.294876
27.370000	308.843125
27.380000	309.731211
27.390000	317.516857
27.400000	334.500229
27.410000	357.851598
27.420000	379.931270
27.430000	401.885837
27.440000	423.701286
27.450000	444.927835
27.460000	462.473123
27.470000	481.668839
27.480000	503.575886
27.490000	530.088237
27.500000	557.339044
27.510000	587.199723
27.520000	612.086001
27.530000	633.011364
27.540000	647.834264
27.550000	663.859016
27.560000	678.231454
27.570000	687.047366
27.580000	688.979387
27.590000	687.258649
27.600000	688.747782
27.610000	690.119170
27.620000	693.876152
27.630000	687.616105
27.640000	664.697760
27.650000	625.476392
27.660000	587.577652
27.670000	559.322018
27.680000	537.770893
27.690000	515.499632
27.700000	492.328377
27.710000	465.347458
27.720000	432.231870
27.730000	400.566933
27.740000	377.478553
27.750000	361.774699
27.760000	344.381409
27.770000	329.028801
27.780000	317.289519
27.790000	310.961380
27.800000	305.524812
27.810000	299.914651
27.820000	300.124033
27.830000	303.187864
27.840000	311.415619
27.850000	316.108718
27.860000	314.735350
27.870000	310.723811
27.880000	310.073337
27.890000	316.009136
27.900000	324.402298
27.910000	334.982886
27.920000	341.392348
27.930000	348.331474
27.940000	350.699921
27.950000	353.050996
27.960000	346.648723
27.970000	319.773361
27.980000	268.964554
27.990000	203.876058
28.000000	151.338510
28.010000	119.271060
28.020000	100.013891
28.030000	77.319988
28.040000	49.406472
28.050000	26.746682
28.060000	13.124746
28.070000	7.169911
28.080000	2.840847
28.090000	2.292937
28.100000	9.238471
28.110000	25.421097
28.120000	53.315270
28.130000	87.538139
28.140000	125.409918
28.150000	158.650184
28.160000	189.209678
28.170000	219.440303
28.180000	256.365867
28.190000	293.202719
28.200000	321.861982
28.210000	341.328026
28.220000	353.041593
28.230000	365.148450
28.240000	367.514312
28.250000	363.348787
28.260000	356.665781
28.270000	351.559158
28.280000	348.149423
28.290000	326.724749
28.300000	283.686950
28.310000	223.588955
28.320000	159.925193
28.330000	101.115309
28.340000	42.135861
28.350000	-14.996392
28.360000	-61.626035
28.370000	-87.761964
28.380000	-91.400817
28.390000	-80.546040
28.400000	-57.818575
28.410000	-33.341887
28.420000	-13.216522
28.430000	-5.467664
28.440000	-4.902879
28.450000	-4.914339
28.460000	-5.264925
28.470000	-4.014600
28.480000	-3.296492
28.490000	1.244556
28.500000	9.668334
28.510000	17.833626
28.520000	20.304319
28.530000	21.457626
28.540000	26.617475
28.550000	41.757912
28.560000	57.563066
28.570000	76.097144
28.580000	93.165751
28.590000	107.451824
28.600000	108.082998
28.610000	90.832154
28.620000	61.702333
28.630000	33.237700
28.640000	11.979021
28.650000	-4.039686
28.660000	-15.400133
28.670000	-27.657118
28.680000	-36.411745
28.690000	-43.284288
28.700000	-38.050773
28.710000	-24.276019
28.720000	-9.694686
28.730000	-3.933120
28.740000	-3.964093
28.750000	-4.912134
28.760000	-5.236391
28.770000	-3.552051
28.780000	1.831603
28.790000	13.148903
28.800000	24.215777
28.810000	37.212056
28.820000	52.601057
28.830000	66.936884
28.840000	76.658355
28.850000	86.690613
28.860000	102.054768
28.870000	120.429617
28.880000	137.450933
28.890000	150.177816
28.900000	162.203586
28.910000	159.549548
28.920000	137.988070
28.930000	96.936257
28.940000	50.150155
28.950000	13.333117
28.960000	-15.063759
28.970000	-33.590484
28.980000	-50.299221
28.990000	-64.819819
29.000000	-77.532359
29.010000	-83.697460
29.020000	-79.764545
29.030000	-72.599575
29.040000	-67.989715
29.050000	-64.143571
29.060000	-60.882090
29.070000	-56.345808
29.080000	-51.779261
29.090000	-46.539210
29.100000	-36.329496
29.110000	-25.419314
29.120000	-6.845468
29.130000	7.986798
29.140000	19.340530
29.150000	24.387596
29.160000	32.229055
29.170000	43.434648
29.180000	53.439753
29.190000	63.166297
29.200000	69.308286
29.210000	77.592123
29.220000	77.802323
29.230000	61.024064
29.240000	23.646722
29.250000	-21.496452
29.260000	-58.832389
29.270000	-86.719683
29.280000	-109.325318
29.290000	-129.269947
29.300000	-146.809781
29.310000	-160.146007
29.320000	-169.631673
29.330000	-167.665150
29.340000	-162.829695
29.350000	-156.830489
29.360000	-156.707530
29.370000	-155.957197
29.380000	-154.601932
29.390000	-153.083772
29.400000	-148.151643
29.410000	-140.219269
29.420000	-128.697525
29.430000	-119.037016
29.440000	-107.884957
29.450000	-97.536069
29.460000	-88.733990
29.470000	-82.033866
29.480000	-72.901705
29.490000	-59.872817
29.500000	-43.741746
29.510000	-26.715163
29.520000	-10.245964
29.530000	-5.918312
29.540000	-24.748327
29.550000	-63.080934
29.560000	-107.557202
29.570000	-143.573363
29.580000	-172.743909
29.590000	-198.069616
29.600000	-219.254972
29.610000	-236.901801
29.620000	-251.098150
29.630000	-260.730936
29.640000	-264.608082
29.650000	-260.557738
29.660000	-253.136906
29.670000	-248.054832
29.680000	-245.317240
29.690000	-245.219946
29.700000	-243.485615
29.710000	-237.055719
29.720000	-228.336354
29.730000	-219.558408
29.740000	-208.508990
29.750000	-194.733399
29.760000	-177.347959
29.770000	-161.927007
29.780000	-145.497700
29.790000	-125.790160
29.800000	-105.328252
29.810000	-84.314614
29.820000	-66.502932
29.830000	-51.161152
29.840000	-53.388861
29.850000	-78.314766
29.860000	-120.914729
29.870000	-163.100351
29.880000	-195.131406
29.890000	-221.927439
29.900000	-245.006673
29.910000	-268.763718
29.920000	-290.864773
29.930000	-310.605807
29.940000	-320.037661
29.950000	-317.800702
29.960000	-309.230328
29.970000	-302.337683
29.980000	-297.737429
29.990000	-290.861857
30.000000	-283.597024
30.010000	-277.386257
30.020000	-270.449213
30.030000	-260.911850
30.040000	-250.312224
30.050000	-239.436830
30.060000	-227.171465
30.070000	-213.633304
30.080000	-203.711921
30.090000	-195.144904
30.100000	-185.252658
30.110000	-173.998513
30.120000	-159.122029
30.130000	-142.865888
30.140000	-125.320205
30.150000	-115.091357
30.160000	-123.527268
30.170000	-151.957318
30.180000	-193.045189
30.190000	-233.140580
30.200000	-265.249349
30.210000	-292.352511
30.220000	-316.452073
30.230000	-339.231464
30.240000	-358.980014
30.250000	-370.435176
30.260000	-373.857612
30.270000	-366.966363
30.280000	-355.759037
30.290000	-343.491074
30.300000	-336.336163
30.310000	-331.659237
30.320000	-326.914472
30.330000	-319.494794
30.340000	-312.843583
30.350000	-305.317181
30.360000	-294.103571
30.370000	-280.150597
30.380000	-263.361337
30.390000	-248.665077
30.400000	-229.588321
30.410000	-214.220031
30.420000	-198.114629
30.430000	-184.797234
30.440000	-171.624288
30.450000	-156.710081
30.460000	-143.147785
30.470000	-127.939630
30.480000	-127.390998
30.490000	-149.813854
30.500000	-192.269870
30.510000	-236.980475
30.520000	-273.501975
30.530000	-302.510652
30.540000	-328.410592
30.550000	-349.690781
30.560000	-369.999501
30.570000	-386.184941
30.580000	-395.254809
30.590000	-395.013835
30.600000	-387.186674
30.610000	-379.524985
30.620000	-372.430632
30.630000	-368.374002
30.640000	-363.656402
30.650000	-357.897459
30.660000	-350.212679
30.670000	-341.758310
30.680000	-331.093507
30.690000	-318.956723
30.700000	-304.969403
30.710000	-288.820012
30.720000	-271.179241
30.730000	-254.018001
30.740000	-239.052726
30.750000	-225.540129
30.760000	-211.252910
30.770000	-198.405108
30.780000	-182.097419
30.790000	-163.617486
30.800000	-140.261244
30.810000	-124.869378
30.820000	-130.087895
30.830000	-158.423319
30.840000	-199.208129
30.850000	-231.946571
30.860000	-257.382874
30.870000	-275.463672
30.880000	-291.234196
30.890000	-303.292169
30.900000	-313.757492
30.910000	-319.769146
30.920000	-318.609870
30.930000	-312.254221
30.940000	-303.793715
30.950000	-299.409368
30.960000	-294.943936
30.970000	-290.236778
30.980000	-284.085764
30.990000	-277.731878
31.000000	-268.878699
31.010000	-256.557958
31.020000	-241.336357
31.030000	-228.390378
31.040000	-216.770705
31.050000	-206.218043
31.060000	-195.863230
31.070000	-184.705031
31.080000	-173.286178
31.090000	-159.176533
31.100000	-140.703717
31.110000	-119.315608
31.120000	-98.117973
31.130000	-86.463833
31.140000	-95.529051
31.150000	-123.568209
31.160000	-156.898809
31.170000	-181.329142
31.180000	-196.631364
31.190000	-208.430417
31.200000	-219.012168
31.210000	-228.850622
31.220000	-236.043504
31.230000	-237.257104
31.240000	-230.735866
31.250000	-216.658737
31.260000	-205.111755
31.270000	-194.684924
31.280000	-186.483825
31.290000	-177.020909
31.300000	-168.527155
31.310000	-160.337633
31.320000	-148.215840
31.330000	-132.655652
31.340000	-116.565931
31.350000	-102.961871
31.360000	-88.218827
31.370000	-73.602364
31.380000	-56.849340
31.390000	-38.571193
31.400000	-16.124488
31.410000	9.463188
31.420000	33.938334
31.430000	52.509791
31.440000	56.671518
31.450000	43.586064
31.460000	18.441046
31.470000	-6.637437
31.480000	-24.789186
31.490000	-37.201469
31.500000	-47.009663
31.510000	-56.080043
31.520000	-64.543199
31.530000	-71.941293
31.540000	-74.718984
31.550000	-70.456215
31.560000	-60.555621
31.570000	-46.287590
31.580000	-36.396063
31.590000	-29.073059
31.600000	-23.555580
31.610000	-18.172033
31.620000	-11.364540
31.630000	-6.934651
31.640000	-0.132064
31.650000	7.637306
31.660000	16.790441
31.670000	28.229155
31.680000	40.057360
31.690000	52.846753
31.700000	66.341180
31.710000	81.152781
31.720000	96.306891
31.730000	113.151642
31.740000	127.276775
31.750000	123.140119
31.760000	97.968790
31.770000	62.185433
31.780000	32.365165
31.790000	11.882149
31.800000	-8.251220
31.810000	-26.370485
31.820000	-43.185869
31.830000	-54.253841
31.840000	-59.109457
31.850000	-57.114532
31.860000	-48.345953
31.870000	-39.637862
31.880000	-32.545162
31.890000	-25.462856
31.900000	-14.046990
31.910000	-3.624353
31.920000	5.154284
31.930000	13.910852
31.940000	25.382617
31.950000	38.793940
31.960000	51.296322
31.970000	65.717215
31.980000	79.219267
31.990000	93.678437
32.000000	107.825441
32.010000	122.002819
32.020000	133.448688
32.030000	144.700889
32.040000	157.428879
32.050000	169.748724
32.060000	175.089250
32.070000	161.474965
32.080000	131.148784
32.090000	94.249864
32.100000	65.581623
32.110000	45.011091
32.120000	28.364239
32.130000	13.472226
32.140000	0.514561
32.150000	-11.708983
32.160000	-18.958539
32.170000	-17.864089
32.180000	-9.080680
32.190000	-0.343103
32.200000	5.506344
32.210000	9.551249
32.220000	13.791993
32.230000	18.804653
32.240000	24.773050
32.250000	32.422887
32.260000	41.782391
32.270000	52.403534
32.280000	65.493521
32.290000	83.752381
32.300000	104.554311
32.310000	127.805992
32.320000	150.638808
32.330000	178.580849
32.340000	207.394854
32.350000	240.408371
32.360000	271.490326
32.370000	298.278499
32.380000	312.268029
32.390000	308.190131
32.400000	294.115162
32.410000	276.129282
32.420000	264.005565
32.430000	256.070309
32.440000	253.938485
32.450000	256.704734
32.460000	263.572192
32.470000	272.035119
32.480000	284.587114
32.490000	300.390667
32.500000	320.307844
32.510000	338.094665
32.520000	351.741660
32.530000	362.509254
32.540000	369.538084
32.550000	376.972834
32.560000	382.686010
32.570000	392.159522
32.580000	402.513322
32.590000	412.720461
32.600000	424.718073
32.610000	438.980149
32.620000	454.956247
32.630000	469.268439
32.640000	483.912342
32.650000	500.258299
32.660000	517.566050
32.670000	531.274527
32.680000	538.260687
32.690000	529.311121
32.700000	502.345451
32.710000	462.738834
32.720000	419.811798
32.730000	385.210448
32.740000	357.613473
32.750000	336.388326
32.760000	316.106440
32.770000	296.952844
32.780000	283.649845
32.790000	278.214662
32.800000	280.893199
32.810000	288.505298
32.820000	295.835940
32.830000	297.166273
32.840000	296.176295
32.850000	296.532418
32.860000	300.885809
32.870000	304.918107
32.880000	308.645985
32.890000	314.683085
32.900000	324.107500
32.910000	334.811601
32.920000	345.610565
32.930000	354.309751
32.940000	362.162232
32.950000	370.848264
32.960000	379.746822
32.970000	388.092340
32.980000	395.371447
32.990000	396.362876
33.000000	384.699024
33.010000	354.674706
33.020000	318.782765
33.030000	284.010967
33.040000	257.573380
33.050000	234.687232
33.060000	213.077200
33.070000	195.416768
33.080000	178.604867
33.090000	168.878353
33.100000	165.486435
33.110000	170.387163
33.120000	177.385418
33.130000	180.937591
33.140000	182.677297
33.150000	184.528688
33.160000	186.336688
33.170000	189.831536
33.180000	195.031300
33.190000	205.517443
33.200000	216.743540
33.210000	229.257308
33.220000	239.818688
33.230000	248.045008
33.240000	258.948651
33.250000	270.520093
33.260000	283.793650
33.270000	295.690562
33.280000	307.356936
33.290000	319.566692
33.300000	315.578798
33.310000	293.189429
33.320000	256.858973
33.330000	220.210668
33.340000	190.160718
33.350000	164.914631
33.360000	144.173209
33.370000	126.321605
33.380000	110.226967
33.390000	99.113810
33.400000	98.326461
33.410000	105.591657
33.420000	115.122854
33.430000	119.103793
33.440000	121.658553
33.450000	124.983794
33.460000	130.231188
33.470000	135.562034
33.480000	142.185292
33.490000	151.848162
33.500000	162.502023
33.510000	174.848205
33.520000	188.187914
33.530000	201.888075
33.540000	214.243812
33.550000	225.305689
33.560000	236.676870
33.570000	248.759536
33.580000	261.147204
33.590000	273.252350
33.600000	285.325939
33.610000	292.436992
33.620000	280.853188
33.630000	252.036013
33.640000	214.438915
33.650000	186.033739
33.660000	165.009490
33.670000	147.398013
33.680000	130.288727
33.690000	113.141170
33.700000	102.626764
33.710000	97.902631
33.720000	103.685629
33.730000	112.335657
33.740000	121.464370
33.750000	130.479015
33.760000	136.943394
33.770000	146.015187
33.780000	154.437877
33.790000	165.942398
33.800000	180.627505
33.810000	195.232110
33.820000	211.535984
33.830000	225.878492
33.840000	243.507146
33.850000	261.206449
33.860000	279.526740
33.870000	298.236950
33.880000	317.585607
33.890000	340.980682
33.900000	366.333861
33.910000	389.757214
33.920000	409.793123
33.930000	420.893434
33.940000	418.960547
33.950000	398.396294
33.960000	369.542426
33.970000	345.945210
33.980000	331.802462
33.990000	322.507016
34.000000	312.430003
34.010000	303.793935
34.020000	298.426577
34.030000	299.788689
34.040000	306.112036
34.050000	315.151944
34.060000	322.160323
34.070000	326.562924
34.080000	331.588540
34.090000	338.671683
34.100000	349.386400
34.110000	361.472387
34.120000	373.889971
34.130000	387.313369
34.140000	400.757766
34.150000	418.871814
34.160000	437.636951
34.170000	457.143275
34.180000	472.537492
34.190000	488.809903
34.200000	508.800118
34.210000	529.829226
34.220000	553.107801
34.230000	572.863596
34.240000	590.803434
34.250000	597.568161
34.260000	588.545871
34.270000	562.983594
34.280000	533.023830
34.290000	507.757247
34.300000	491.187581
34.310000	477.536956
34.320000	465.396073
34.330000	456.023220
34.340000	446.960068
34.350000	443.228885
34.360000	444.541476
34.370000	449.797458
34.380000	454.812689
34.390000	457.737186
34.400000	461.127214
34.410000	462.360362
34.420000	467.162131
34.430000	474.996928
34.440000	488.569655
34.450000	502.976086
34.460000	517.351546
34.470000	532.656640
34.480000	545.484267
34.490000	557.045810
34.500000	565.303762
34.510000	574.815223
34.520000	586.809341
34.530000	603.281722
34.540000	618.655525
34.550000	630.116965
34.560000	633.191383
34.570000	624.315355
34.580000	599.753818
34.590000	567.572943
34.600000	538.015415
34.610000	514.838964
34.620000	495.953586
34.630000	478.127539
34.640000	460.590591
34.650000	444.112130
34.660000	432.594366
34.670000	431.793020
34.680000	437.929536
34.690000	446.495856
34.700000	454.626201
34.710000	461.226909
34.720000	467.686058
34.730000	473.976810
34.740000	481.438759
34.750000	491.749751
34.760000	501.866955
34.770000	513.557377
34.780000	527.312800
34.790000	542.048164
34.800000	558.784927
34.810000	573.879635
34.820000	590.629277
34.830000	604.709662
34.840000	617.842712
34.850000	631.892211
34.860000	647.738562
34.870000	666.092389
34.880000	678.293076
34.890000	675.977424
34.900000	653.538835
34.910000	621.924563
34.920000	594.139843
34.930000	571.522206
34.940000	550.743537
34.950000	529.136780
34.960000	509.376629
34.970000	490.422147
34.980000	473.697092
34.990000	464.732331
35.000000	465.688097
35.010000	472.371125
35.020000	476.680689
35.030000	478.711000
35.040000	478.350875
35.050000	478.403287
35.060000	474.010675
35.070000	463.447741
35.080000	449.024696
35.090000	429.157541
35.100000	405.723833
35.110000	378.202593
35.120000	351.780048
35.130000	329.248700
35.140000	313.510417
35.150000	303.624328
35.160000	300.919984
35.170000	305.335313
35.180000	312.656877
35.190000	323.397555
35.200000	332.716888
35.210000	345.824765
35.220000	350.398986
35.230000	337.932233
35.240000	306.769218
35.250000	270.751113
35.260000	241.468320
35.270000	220.209614
35.280000	200.145903
35.290000	176.674537
35.300000	154.849843
35.310000	135.460434
35.320000	123.564391
35.330000	117.559778
35.340000	120.289073
35.350000	128.305965
35.360000	134.333537
35.370000	136.062285
35.380000	132.377291
35.390000	126.158438
35.400000	117.408187
35.410000	97.893198
35.420000	60.770313
35.430000	-8.065058
35.440000	-106.749928
35.450000	-256.583810
35.460000	-452.075303
35.470000	-672.228140
35.480000	-894.176474
35.490000	-1100.344383
35.500000	-1296.008479
35.510000	-1427.629278
35.520000	-1508.564076
35.530000	-1562.034720
35.540000	-1610.923539
35.550000	-1655.681445
35.560000	-1697.965465
35.570000	-1735.329804
35.580000	-1773.376138
35.590000	-1810.973376
35.600000	-1833.764577
35.610000	-1834.985604
35.620000	-1813.516682
35.630000	-1779.042690
35.640000	-1731.591121
35.650000	-1676.129198
35.660000	-1617.013387
35.670000	-1551.546145
35.680000	-1477.787848
35.690000	-1391.306647
35.700000	-1293.167134
35.710000	-1177.900788
35.720000	-1052.318851
35.730000	-926.145585
35.740000	-828.241838
35.750000	-753.777338
35.760000	-701.725185
35.770000	-661.624898
35.780000	-630.581936
35.790000	-609.168154
35.800000	-591.774765
35.810000	-574.736679
35.820000	-554.320878
35.830000	-537.354547
35.840000	-522.866108
35.850000	-506.650934
35.860000	-482.760807
35.870000	-449.981437
35.880000	-410.686660
35.890000	-363.991136
35.900000	-315.986671
35.910000	-276.365896
35.920000	-260.658057
35.930000	-270.056801
35.940000	-295.657399
35.950000	-323.088551
35.960000	-347.371898
35.970000	-368.490119
35.980000	-385.105795
35.990000	-392.572451
36.000000	-391.878512
36.010000	-385.348619
36.020000	-367.319613
36.030000	-334.488411
36.040000	-289.801836
36.050000	-246.012573
36.060000	-202.605201
36.070000	-157.222737
36.080000	-112.112414
36.090000	-68.454648
36.100000	-28.982040
36.110000	8.635724
36.120000	45.118816
36.130000	83.039282
36.140000	121.183904
36.150000	161.091555
36.160000	200.546362
36.170000	240.459961
36.180000	274.195490
36.190000	305.497472
36.200000	336.814841
36.210000	371.845383
36.220000	408.391489
36.230000	443.497886
36.240000	472.269329
36.250000	483.105005
36.260000	474.146803
36.270000	451.373028
36.280000	431.025018
36.290000	415.575622
36.300000	408.544995
36.310000	405.729047
36.320000	405.376914
36.330000	406.188740
36.340000	409.520979
36.350000	425.310000
36.360000	450.266536
36.370000	477.726286
36.380000	500.648500
36.390000	517.127258
36.400000	533.356430
36.410000	550.484559
36.420000	569.366875
36.430000	583.457983
36.440000	593.700792
36.450000	600.399011
36.460000	609.018032
36.470000	621.967239
36.480000	637.291988
36.490000	655.176484
36.500000	671.522428
36.510000	687.367848
36.520000	705.391814
36.530000	723.179416
36.540000	736.222733
36.550000	742.631871
36.560000	743.027321
36.570000	741.727664
36.580000	730.095906
36.590000	702.130005
36.600000	663.161324
36.610000	624.179980
36.620000	591.178155
36.630000	560.501647
36.640000	531.835388
36.650000	503.784616
36.660000	475.457971
36.670000	447.034192
36.680000	425.061411
36.690000	413.907500
36.700000	409.938951
36.710000	404.730076
36.720000	399.805935
36.730000	397.516713
36.740000	403.309566
36.750000	412.904451
36.760000	421.439088
36.770000	435.952037
36.780000	451.161603
36.790000	469.647712
36.800000	483.147162
36.810000	493.329823
36.820000	497.412636
36.830000	499.322162
36.840000	498.290000
36.850000	492.268754
36.860000	472.773761
36.870000	430.169238
36.880000	364.240089
36.890000	275.883329
36.900000	173.947408
36.910000	57.655868
36.920000	-81.248358
36.930000	-230.231333
36.940000	-382.472435
36.950000	-535.134073
36.960000	-673.373032
36.970000	-803.186876
36.980000	-928.220565
36.990000	-1037.811489
37.000000	-1128.628352
37.010000	-1200.035823
37.020000	-1257.454484
37.030000	-1305.882874
37.040000	-1344.647426
37.050000	-1372.444237
37.060000	-1388.558341
37.070000	-1397.068759
37.080000	-1395.167293
37.090000	-1377.403263
37.100000	-1347.519013
37.110000	-1313.801370
37.120000	-1282.249163
37.130000	-1250.227397
37.140000	-1216.033754
37.150000	-1180.378833
37.160000	-1146.210165
37.170000	-1109.563850
37.180000	-1073.458531
37.190000	-1041.135797
37.200000	-1014.422862
37.210000	-993.423051
37.220000	-987.131846
37.230000	-1000.085132
37.240000	-1029.207172
37.250000	-1058.766537
37.260000	-1084.367878
37.270000	-1112.532323
37.280000	-1142.229056
37.290000	-1174.023849
37.300000	-1202.461854
37.310000	-1229.590932
37.320000	-1247.722981
37.330000	-1259.575110
37.340000	-1267.705625
37.350000	-1280.296784
37.360000	-1296.051039
37.370000	-1308.727101
37.380000	-1316.464111
37.390000	-1312.533074
37.400000	-1305.307748
37.410000	-1294.036449
37.420000	-1280.547645
37.430000	-1263.587230
37.440000	-1238.835018
37.450000	-1207.542561
37.460000	-1163.825380
37.470000	-1107.235414
37.480000	-1041.215680
37.490000	-972.994568
37.500000	-906.987471
37.510000	-842.462106
37.520000	-776.475680
37.530000	-724.703230
37.540000	-700.011918
37.550000	-695.278475
37.560000	-696.919384
37.570000	-688.234073
37.580000	-675.278204
37.590000	-657.560475
37.600000	-639.037957
37.610000	-617.926413
37.620000	-587.840298
37.630000	-547.026886
37.640000	-496.705860
37.650000	-449.212857
37.660000	-406.932297
37.670000	-375.128179
37.680000	-341.498496
37.690000	-306.466358
37.700000	-268.781233
37.710000	-232.206002
37.720000	-194.434890
37.730000	-150.325331
37.740000	-107.511001
37.750000	-67.147451
37.760000	-35.321125
37.770000	-7.326954
37.780000	15.130906
37.790000	30.106086
37.800000	39.874524
37.810000	44.145515
37.820000	45.907370
37.830000	35.764600
37.840000	7.562901
37.850000	-34.306786
37.860000	-78.481739
37.870000	-112.761745
37.880000	-139.953356
37.890000	-161.933126
37.900000	-182.148146
37.910000	-202.819885
37.920000	-220.713243
37.930000	-230.419182
37.940000	-226.663766
37.950000	-215.100090
37.960000	-204.340561
37.970000	-195.478366
37.980000	-188.398599
37.990000	-181.236270
38.000000	-171.505906
38.010000	-159.385668
38.020000	-142.657345
38.030000	-126.272006
38.040000	-108.507573
38.050000	-89.881479
38.060000	-71.409354
38.070000	-53.539443
38.080000	-34.020300
38.090000	-11.917469
38.100000	10.978294
38.110000	32.654389
38.120000	49.924292
38.130000	63.521113
38.140000	59.781652
38.150000	39.712498
38.160000	6.930688
38.170000	-23.446555
38.180000	-47.332462
38.190000	-66.336343
38.200000	-82.645488
38.210000	-99.610813
38.220000	-113.654166
38.230000	-125.611954
38.240000	-127.018372
38.250000	-118.686187
38.260000	-103.435560
38.270000	-91.829015
38.280000	-86.879202
38.290000	-85.000771
38.300000	-82.369096
38.310000	-77.893470
38.320000	-71.241031
38.330000	-60.494968
38.340000	-46.500225
38.350000	-28.805771
38.360000	-11.484564
38.370000	4.512760
38.380000	19.154522
38.390000	34.457963
38.400000	47.066706
38.410000	60.710630
38.420000	76.259177
38.430000	95.921933
38.440000	116.391595
38.450000	133.753475
38.460000	137.461180
38.470000	119.213373
38.480000	85.527130
38.490000	54.661326
38.500000	30.843820
38.510000	14.722195
38.520000	0.432178
38.530000	-14.250580
38.540000	-26.341994
38.550000	-39.284372
38.560000	-44.793854
38.570000	-44.053921
38.580000	-33.943509
38.590000	-21.226767
38.600000	-12.468623
38.610000	-8.091944
38.620000	-3.355281
38.630000	3.659536
38.640000	14.715519
38.650000	27.357453
38.660000	40.414676
38.670000	54.351496
38.680000	68.736480
38.690000	84.307330
38.700000	98.675081
38.710000	114.569412
38.720000	134.238019
38.730000	152.770965
38.740000	171.109628
38.750000	187.257184
38.760000	204.288035
38.770000	221.358980
38.780000	237.759944
38.790000	254.090973
38.800000	267.850061
38.810000	268.093304
38.820000	246.240320
38.830000	206.758580
38.840000	163.282990
38.850000	130.721372
38.860000	104.566475
38.870000	82.651520
38.880000	61.139753
38.890000	41.223309
38.900000	24.007406
38.910000	14.099449
38.920000	14.164572
38.930000	18.246876
38.940000	20.283192
38.950000	19.370339
38.960000	16.702887
38.970000	15.127101
38.980000	4.716380
38.990000	-19.473456
39.000000	-56.290941
39.010000	-95.085363
39.020000	-123.664685
39.030000	-141.432994
39.040000	-147.073539
39.050000	-140.153357
39.060000	-124.865286
39.070000	-105.911855
39.080000	-85.353055
39.090000	-65.039604
39.100000	-43.534834
39.110000	-23.882576
39.120000	-7.080453
39.130000	8.579212
39.140000	23.334009
39.150000	34.998588
39.160000	33.691699
39.170000	11.721799
39.180000	-23.611492
39.190000	-58.238328
39.200000	-82.294712
39.210000	-101.609913
39.220000	-120.007321
39.230000	-141.349713
39.240000	-161.064746
39.250000	-175.459788
39.260000	-180.823185
39.270000	-176.947094
39.280000	-170.300775
39.290000	-166.465977
39.300000	-163.792387
39.310000	-161.019686
39.320000	-155.981801
39.330000	-148.278402
39.340000	-139.209240
39.350000	-127.897693
39.360000	-115.141027
39.370000	-101.549418
39.380000	-84.764136
39.390000	-68.918311
39.400000	-53.406764
39.410000	-37.318758
39.420000	-22.088083
39.430000	-6.410463
39.440000	7.188106
39.450000	22.149057
39.460000	30.735235
39.470000	30.692086
39.480000	24.597561
39.490000	18.546840
39.500000	14.417173
39.510000	-2.006928
39.520000	-32.092105
39.530000	-68.901932
39.540000	-100.284294
39.550000	-118.506169
39.560000	-132.218436
39.570000	-138.776193
39.580000	-142.535143
39.590000	-141.391672
39.600000	-136.223089
39.610000	-128.705585
39.620000	-110.914093
39.630000	-90.090436
39.640000	-70.960655
39.650000	-56.165214
39.660000	-41.350180
39.670000	-23.271732
39.680000	-9.130265
39.690000	2.617373
39.700000	15.734170
39.710000	29.465977
39.720000	44.909077
39.730000	58.607617
39.740000	76.415240
39.750000	92.690187
39.760000	107.910864
39.770000	121.409074
39.780000	133.716063
39.790000	149.779853
39.800000	163.798309
39.810000	179.149229
39.820000	193.170829
39.830000	209.843855
39.840000	226.498898
39.850000	241.181066
39.860000	245.784167
39.870000	233.496064
39.880000	204.061816
39.890000	170.822910
39.900000	142.635117
39.910000	122.441622
39.920000	104.158527
39.930000	84.710298
39.940000	66.004119
39.950000	47.280274
39.960000	34.844539
39.970000	29.811542
39.980000	32.658886
39.990000	38.637594
40.000000	42.781904
40.010000	46.122842
40.020000	49.547381
40.030000	53.249167
40.040000	55.617675
40.050000	59.363928
40.060000	67.331693
40.070000	76.773483
40.080000	87.028384
40.090000	97.159347
40.100000	110.046084
40.110000	121.168869
40.120000	131.055084
40.130000	141.492748
40.140000	154.709640
40.150000	166.443271
40.160000	178.024147
40.170000	190.036451
40.180000	201.980504
40.190000	214.945606
40.200000	229.914961
40.210000	248.501664
40.220000	262.467647
40.230000	261.697963
40.240000	240.344225
40.250000	205.575633
40.260000	172.555148
40.270000	146.739137
40.280000	127.729257
40.290000	107.862055
40.300000	89.911503
40.310000	73.622894
40.320000	61.748346
40.330000	54.690385
40.340000	50.893017
40.350000	53.082944
40.360000	54.324552
40.370000	56.479835
40.380000	53.380966
40.390000	53.898394
40.400000	58.060223
40.410000	66.632874
40.420000	78.715557
40.430000	90.339680
40.440000	102.699252
40.450000	113.016521
40.460000	124.346673
40.470000	134.660531
40.480000	145.652214
40.490000	155.275587
40.500000	164.280178
40.510000	172.870648
40.520000	183.228497
40.530000	197.112898
40.540000	210.810221
40.550000	222.676021
40.560000	236.722757
40.570000	252.542362
40.580000	270.285603
40.590000	278.358636
40.600000	265.832547
40.610000	235.528357
40.620000	198.384209
40.630000	168.021281
40.640000	144.547998
40.650000	125.155504
40.660000	109.033325
40.670000	93.266735
40.680000	75.837305
40.690000	63.718923
40.700000	57.941285
40.710000	61.827137
40.720000	64.990742
40.730000	65.608730
40.740000	65.366431
40.750000	63.366558
40.760000	63.405071
40.770000	64.762108
40.780000	69.768949
40.790000	77.465540
40.800000	85.780092
40.810000	96.162361
40.820000	107.434465
40.830000	118.175689
40.840000	127.741539
40.850000	137.511877
40.860000	146.693337
40.870000	156.504342
40.880000	166.290804
40.890000	178.489498
40.900000	191.528185
40.910000	206.131947
40.920000	218.069658
40.930000	221.420847
40.940000	205.248495
40.950000	170.059037
40.960000	131.453368
40.970000	94.987599
40.980000	68.983845
40.990000	44.520185
41.000000	28.876922
41.010000	14.998208
41.020000	2.439682
41.030000	-11.210938
41.040000	-19.321102
41.050000	-17.106836
41.060000	-11.462256
41.070000	-6.677165
41.080000	-5.948613
41.090000	-4.573956
41.100000	-2.796671
41.110000	-0.150200
41.120000	5.678988
41.130000	13.917099
41.140000	22.469753
41.150000	31.643103
41.160000	41.578891
41.170000	51.017461
41.180000	59.342044
41.190000	67.381416
41.200000	78.430974
41.210000	90.048660
41.220000	104.518644
41.230000	120.692277
41.240000	138.261131
41.250000	157.322895
41.260000	175.315574
41.270000	189.940202
41.280000	186.655732
41.290000	166.920831
41.300000	132.984141
41.310000	98.920057
41.320000	69.941030
41.330000	45.556474
41.340000	24.214557
41.350000	1.838876
41.360000	-19.508771
41.370000	-36.889995
41.380000	-51.256432
41.390000	-55.944901
41.400000	-55.381466
41.410000	-50.002399
41.420000	-49.211313
41.430000	-51.710654
41.440000	-51.708931
41.450000	-48.780393
41.460000	-45.227422
41.470000	-40.856621
41.480000	-32.417490
41.490000	-22.294933
41.500000	-12.285847
41.510000	-4.079483
41.520000	6.515450
41.530000	16.101998
41.540000	26.317483
41.550000	36.263459
41.560000	46.777934
41.570000	56.071388
41.580000	66.904602
41.590000	80.194675
41.600000	96.016080
41.610000	112.967735
41.620000	128.444778
41.630000	142.735970
41.640000	152.517481
41.650000	149.143546
41.660000	123.910682
41.670000	82.243948
41.680000	37.646788
41.690000	0.656950
41.700000	-28.992676
41.710000	-57.291629
41.720000	-81.620998
41.730000	-105.603159
41.740000	-126.243593
41.750000	-142.599407
41.760000	-150.536477
41.770000	-147.612659
41.780000	-140.867729
41.790000	-135.299262
41.800000	-133.538074
41.810000	-132.315220
41.820000	-128.888724
41.830000	-121.011358
41.840000	-110.596252
41.850000	-100.388530
41.860000	-88.636807
41.870000	-76.786486
41.880000	-58.334162
41.890000	-36.222312
41.900000	-9.699924
41.910000	20.325464
41.920000	46.237418
41.930000	69.553230
41.940000	85.479039
41.950000	97.792860
41.960000	106.699204
41.970000	116.030854
41.980000	126.900336
41.990000	141.593882
42.000000	155.404108
42.010000	169.829172
42.020000	177.873138
42.030000	169.377733
42.040000	143.356013
42.050000	106.603023
42.060000	73.515155
42.070000	43.776659
42.080000	19.335966
42.090000	-3.743724
42.100000	-22.836355
42.110000	-42.628652
42.120000	-58.661321
42.130000	-69.198796
42.140000	-72.497302
42.150000	-71.459376
42.160000	-70.682248
42.170000	-69.717042
42.180000	-70.217216
42.190000	-69.640734
42.200000	-70.443428
42.210000	-68.557325
42.220000	-63.356544
42.230000	-56.490916
42.240000	-49.947969
42.250000	-40.420646
42.260000	-28.226663
42.270000	-14.362853
42.280000	-2.857593
42.290000	6.696585
42.300000	16.840166
42.310000	24.396518
42.320000	36.221714
42.330000	47.387020
42.340000	60.279662
42.350000	71.685143
42.360000	82.672416
42.370000	90.963818
42.380000	83.024028
42.390000	56.262364
42.400000	20.065046
42.410000	-10.099173
42.420000	-33.611481
42.430000	-54.483487
42.440000	-78.636612
42.450000	-100.178681
42.460000	-121.694988
42.470000	-141.538846
42.480000	-155.756922
42.490000	-162.581540
42.500000	-160.496036
42.510000	-157.660599
42.520000	-155.559899
42.530000	-154.412559
42.540000	-153.296968
42.550000	-151.508079
42.560000	-149.714066
42.570000	-144.267961
42.580000	-133.813627
42.590000	-120.714186
42.600000	-105.918719
42.610000	-93.845976
42.620000	-82.014182
42.630000	-67.652916
42.640000	-54.469998
42.650000	-38.782068
42.660000	-25.625561
42.670000	-10.560941
42.680000	7.868317
42.690000	24.633390
42.700000	43.042828
42.710000	57.795190
42.720000	59.530692
42.730000	43.293635
42.740000	11.363024
42.750000	-20.847199
42.760000	-48.174774
42.770000	-70.009125
42.780000	-91.403336
42.790000	-112.499389
42.800000	-134.643652
42.810000	-155.320775
42.820000	-170.889218
42.830000	-178.151676
42.840000	-174.812169
42.850000	-169.687954
42.860000	-164.724379
42.870000	-161.230564
42.880000	-158.305208
42.890000	-157.454417
42.900000	-158.556137
42.910000	-157.675646
42.920000	-154.157193
42.930000	-145.566382
42.940000	-134.446249
42.950000	-122.462307
42.960000	-111.075613
42.970000	-98.690641
42.980000	-87.054897
42.990000	-76.255085
43.000000	-63.366514
43.010000	-49.504495
43.020000	-33.679485
43.030000	-19.774355
43.040000	-3.309821
43.050000	10.589144
43.060000	25.744223
43.070000	39.929240
43.080000	56.473470
43.090000	66.228413
43.100000	56.854033
43.110000	30.561035
43.120000	-4.087738
43.130000	-33.766308
43.140000	-58.071315
43.150000	-79.775285
43.160000	-97.382679
43.170000	-114.470971
43.180000	-131.357798
43.190000	-147.169356
43.200000	-154.988886
43.210000	-150.213260
43.220000	-136.648831
43.230000	-120.603053
43.240000	-108.982702
43.250000	-98.637428
43.260000	-87.993032
43.270000	-76.346251
43.280000	-65.682726
43.290000	-58.060506
43.300000	-49.026360
43.310000	-36.787148
43.320000	-22.382776
43.330000	-4.512283
43.340000	16.250814
43.350000	43.101500
43.360000	73.530718
43.370000	104.375545
43.380000	136.483775
43.390000	167.302465
43.400000	197.106891
43.410000	222.548467
43.420000	239.724263
43.430000	251.809762
43.440000	260.667285
43.450000	269.738055
43.460000	275.587487
43.470000	281.681434
43.480000	283.481906
43.490000	276.287296
43.500000	249.356064
43.510000	209.604712
43.520000	170.912460
43.530000	139.898695
43.540000	118.786680
43.550000	96.151813
43.560000	75.364877
43.570000	54.721053
43.580000	40.294556
43.590000	30.265446
43.600000	26.564758
43.610000	26.460639
43.620000	25.828126
43.630000	24.664197
43.640000	25.094437
43.650000	37.554394
43.660000	55.645043
43.670000	78.122668
43.680000	98.177663
43.690000	116.709468
43.700000	136.379192
43.710000	156.283931
43.720000	178.252391
43.730000	197.170207
43.740000	212.469006
43.750000	228.066447
43.760000	245.008754
43.770000	264.627868
43.780000	282.864802
43.790000	299.531066
43.800000	315.053724
43.810000	329.765225
43.820000	348.252256
43.830000	365.972268
43.840000	382.794224
43.850000	395.502188
43.860000	411.028778
43.870000	423.327862
43.880000	419.241888
43.890000	392.169653
43.900000	347.151767
43.910000	303.716041
43.920000	267.020329
43.930000	241.926444
43.940000	223.192644
43.950000	209.479073
43.960000	197.023152
43.970000	188.380571
43.980000	189.193655
43.990000	195.253198
44.000000	202.362377
44.010000	205.789203
44.020000	202.534037
44.030000	183.974608
44.040000	149.392241
44.050000	108.520217
44.060000	75.594300
44.070000	53.700013
44.080000	40.111868
44.090000	35.888330
44.100000	40.957783
44.110000	60.088043
44.120000	91.116090
44.130000	130.949956
44.140000	172.929335
44.150000	212.148080
44.160000	247.083252
44.170000	280.355617
44.180000	309.554700
44.190000	333.898962
44.200000	350.351268
44.210000	360.118590
44.220000	361.136789
44.230000	341.308574
44.240000	305.299570
44.250000	259.835406
44.260000	223.492726
44.270000	195.974860
44.280000	174.677301
44.290000	158.449362
44.300000	144.856032
44.310000	134.931035
44.320000	126.356496
44.330000	122.091434
44.340000	118.503046
44.350000	116.929635
44.360000	113.633091
44.370000	112.786960
44.380000	110.404742
44.390000	108.992757
44.400000	108.165710
44.410000	105.523567
44.420000	102.267067
44.430000	99.384244
44.440000	101.375139
44.450000	105.221291
44.460000	111.490031
44.470000	116.710835
44.480000	120.944825
44.490000	122.191534
44.500000	124.078508
44.510000	126.324876
44.520000	128.876137
44.530000	130.451452
44.540000	127.998782
44.550000	114.563802
44.560000	87.128673
44.570000	50.026049
44.580000	10.930726
44.590000	-23.184040
44.600000	-48.947584
44.610000	-69.415640
44.620000	-84.153560
44.630000	-100.338793
44.640000	-114.668122
44.650000	-127.275482
44.660000	-132.504266
44.670000	-133.574095
44.680000	-137.354702
44.690000	-143.858194
44.700000	-150.535815
44.710000	-152.807812
44.720000	-154.745169
44.730000	-156.417640
44.740000	-158.293536
44.750000	-156.018858
44.760000	-151.864783
44.770000	-147.957743
44.780000	-145.438100
44.790000	-140.554685
44.800000	-134.697072
44.810000	-129.824771
44.820000	-124.284411
44.830000	-118.438727
44.840000	-110.871906
44.850000	-108.079493
44.860000	-114.124507
44.870000	-135.064231
44.880000	-170.029952
44.890000	-205.352382
44.900000	-235.295795
44.910000	-257.321291
44.920000	-278.927886
44.930000	-299.941168
44.940000	-320.566430
44.950000	-337.222753
44.960000	-347.547120
44.970000	-349.176498
44.980000	-345.549262
44.990000	-343.478385
45.000000	-344.876838
45.010000	-347.440934
45.020000	-347.205443
45.030000	-345.089170
45.040000	-341.538366
45.050000	-339.082084
45.060000	-336.867634
45.070000	-334.749244
45.080000	-329.527487
45.090000	-323.771220
45.100000	-317.185111
45.110000	-307.794218
45.120000	-297.191497
45.130000	-284.816923
45.140000	-277.891533
45.150000	-272.815508
45.160000	-278.966131
45.170000	-301.474669
45.180000	-332.343558
45.190000	-365.812177
45.200000	-392.717155
45.210000	-419.865710
45.220000	-444.737268
45.230000	-468.267510
45.240000	-490.092557
45.250000	-509.339959
45.260000	-522.111545
45.270000	-526.088718
45.280000	-521.810311
45.290000	-517.530553
45.300000	-514.160746
45.310000	-513.647015
45.320000	-512.835571
45.330000	-510.440279
45.340000	-507.521786
45.350000	-498.219414
45.360000	-489.581603
45.370000	-479.310955
45.380000	-473.335347
45.390000	-467.379064
45.400000	-460.435917
45.410000	-452.119973
45.420000	-443.879201
45.430000	-433.856058
45.440000	-421.664023
45.450000	-407.598085
45.460000	-394.793954
45.470000	-388.349376
45.480000	-398.274483
45.490000	-426.749495
45.500000	-459.713966
45.510000	-484.824448
45.520000	-501.522491
45.530000	-519.597714
45.540000	-538.973690
45.550000	-558.370660
45.560000	-573.753516
45.570000	-588.834284
45.580000	-597.508983
45.590000	-597.978866
45.600000	-587.597785
45.610000	-575.825552
45.620000	-564.333904
45.630000	-554.673797
45.640000	-542.388595
45.650000	-533.552549
45.660000	-522.746473
45.670000	-513.791271
45.680000	-500.076794
45.690000	-491.409337
45.700000	-479.692025
45.710000	-470.398582
45.720000	-454.267177
45.730000	-442.109840
45.740000	-427.127317
45.750000	-416.860320
45.760000	-399.935154
45.770000	-388.341089
45.780000	-371.012259
45.790000	-363.560857
45.800000	-345.990421
45.810000	-344.907277
45.820000	-345.519995
45.830000	-371.357187
45.840000	-390.896399
45.850000	-419.266381
45.860000	-429.822340
45.870000	-459.012919
45.880000	-475.559430
45.890000	-482.082355
45.900000	178.278605
45.910000	212.902556
45.920000	239.326718
45.930000	247.487496
45.940000	276.969360
45.950000	290.532519
45.960000	319.137296
45.970000	331.745458
45.980000	352.127524
45.990000	359.842277
46.000000	376.572310
46.010000	387.511285
46.020000	406.434888
46.030000	417.104023
46.040000	423.693242
46.050000	410.983410
46.060000	384.014024
46.070000	342.521885
46.080000	303.389081
46.090000	268.359496
46.100000	241.110356
46.110000	211.500253
46.120000	184.882144
46.130000	155.953222
46.140000	132.030260
46.150000	109.718625
46.160000	98.890185
46.170000	93.114809
46.180000	91.775148
46.190000	85.161945
46.200000	80.382405
46.210000	74.858769
46.220000	70.678946
46.230000	67.893312
46.240000	68.658102
46.250000	73.934919
46.260000	80.302409
46.270000	86.994522
46.280000	95.296566
46.290000	103.724244
46.300000	114.645875
46.310000	126.454462
46.320000	140.347812
46.330000	154.521534
46.340000	168.064143
46.350000	185.281719
46.360000	203.105840
46.370000	218.721728
46.380000	232.502258
46.390000	245.509764
46.400000	261.585945
46.410000	269.603155
46.420000	263.363138
46.430000	237.712881
46.440000	201.191565
46.450000	167.183034
46.460000	140.343300
46.470000	119.651699
46.480000	97.491177
46.490000	74.825014
46.500000	51.985225
46.510000	31.017762
46.520000	16.835360
46.530000	9.879931
46.540000	13.040738
46.550000	18.728659
46.560000	23.940871
46.570000	26.261313
46.580000	24.526912
46.590000	23.158588
46.600000	23.453812
46.610000	28.075873
46.620000	37.056561
46.630000	48.671562
46.640000	63.348601
46.650000	78.609469
46.660000	96.336301
46.670000	115.222452
46.680000	131.334103
46.690000	147.203998
46.700000	159.332957
46.710000	175.567807
46.720000	190.647054
46.730000	206.970718
46.740000	220.962944
46.750000	232.066938
46.760000	242.972911
46.770000	252.504506
46.780000	254.655052
46.790000	240.285718
46.800000	213.392320
46.810000	182.097450
46.820000	155.484880
46.830000	133.570396
46.840000	112.252382
46.850000	89.736059
46.860000	64.039215
46.870000	38.603259
46.880000	17.514589
46.890000	3.486920
46.900000	-1.658798
46.910000	1.384162
46.920000	5.169884
46.930000	9.990065
46.940000	14.013604
46.950000	17.288794
46.960000	21.549747
46.970000	23.929471
46.980000	31.467812
46.990000	36.551409
47.000000	45.779883
47.010000	55.834533
47.020000	68.126832
47.030000	81.131607
47.040000	93.162145
47.050000	107.130242
47.060000	120.538326
47.070000	132.823374
47.080000	143.938563
47.090000	155.209704
47.100000	167.025778
47.110000	177.613101
47.120000	188.812715
47.130000	203.709827
47.140000	222.281145
47.150000	240.151414
47.160000	254.109702
47.170000	262.287066
47.180000	254.606206
47.190000	231.141201
47.200000	198.477974
47.210000	170.038265
47.220000	146.004305
47.230000	123.618286
47.240000	101.893305
47.250000	78.886925
47.260000	55.815658
47.270000	33.512622
47.280000	22.121798
47.290000	21.802546
47.300000	29.778292
47.310000	35.429446
47.320000	39.491258
47.330000	43.751289
47.340000	49.896099
47.350000	56.423292
47.360000	62.662245
47.370000	70.795585
47.380000	81.115750
47.390000	94.863132
47.400000	109.919446
47.410000	122.619276
47.420000	132.424676
47.430000	144.751479
47.440000	160.945195
47.450000	179.903524
47.460000	195.812766
47.470000	209.433711
47.480000	220.036419
47.490000	228.996615
47.500000	239.625745
47.510000	250.908078
47.520000	261.574908
47.530000	269.845418
47.540000	276.558633
47.550000	286.153428
47.560000	295.549234
47.570000	299.148799
47.580000	287.222837
47.590000	258.528571
47.600000	224.960354
47.610000	194.592421
47.620000	172.718206
47.630000	152.985660
47.640000	133.850706
47.650000	113.406077
47.660000	93.354695
47.670000	75.187550
47.680000	64.565170
47.690000	61.649016
47.700000	62.125180
47.710000	62.474554
47.720000	59.381031
47.730000	58.018756
47.740000	51.967109
47.750000	48.963978
47.760000	44.548541
47.770000	44.967528
47.780000	45.127807
47.790000	49.359332
47.800000	53.713432
47.810000	60.129797
47.820000	68.322158
47.830000	75.923820
47.840000	85.306561
47.850000	94.067450
47.860000	103.998596
47.870000	111.225014
47.880000	117.402043
47.890000	124.747065
47.900000	132.827877
47.910000	141.967576
47.920000	153.619920
47.930000	166.543841
47.940000	178.438928
47.950000	178.794145
47.960000	164.641960
47.970000	135.080142
47.980000	104.918214
47.990000	79.035646
48.000000	61.555883
48.010000	44.989458
48.020000	29.244115
48.030000	11.298849
48.040000	-6.355513
48.050000	-22.364505
48.060000	-35.926239
48.070000	-38.643200
48.080000	-34.500469
48.090000	-26.221213
48.100000	-22.727799
48.110000	-21.069313
48.120000	-16.252172
48.130000	-12.913138
48.140000	-10.063660
48.150000	-4.720673
48.160000	3.147604
48.170000	13.168249
48.180000	21.714210
48.190000	32.107247
48.200000	42.965598
48.210000	52.743541
48.220000	65.597103
48.230000	79.727980
48.240000	94.262357
48.250000	105.402308
48.260000	116.645612
48.270000	131.775424
48.280000	145.702544
48.290000	160.867306
48.300000	175.445889
48.310000	190.999985
48.320000	186.826283
48.330000	149.517608
48.340000	103.341762
48.350000	59.363944
48.360000	28.555326
48.370000	-5.499898
48.380000	-39.478488
48.390000	-69.664220
48.400000	-99.834410
48.410000	-130.120021
48.420000	-159.488599
48.430000	-185.874412
48.440000	-208.781826
48.450000	-223.919737
48.460000	-232.725441
48.470000	-232.254309
48.480000	-230.667469
48.490000	-229.872909
48.500000	-231.242518
48.510000	-231.446379
48.520000	-229.458301
48.530000	-224.655316
48.540000	-218.313611
48.550000	-211.497933
48.560000	-205.470341
48.570000	-201.641786
48.580000	-199.923725
48.590000	-195.406448
48.600000	-187.690157
48.610000	-177.474735
48.620000	-165.089451
48.630000	-152.514710
48.640000	-138.446817
48.650000	-125.198315
48.660000	-111.427783
48.670000	-97.520233
48.680000	-86.716767
48.690000	-75.122662
48.700000	-61.981080
48.710000	-46.692165
48.720000	-32.890266
48.730000	-28.239247
48.740000	-39.429890
48.750000	-67.069328
48.760000	-100.237494
48.770000	-129.202245
48.780000	-152.701200
48.790000	-173.646063
48.800000	-195.799943
48.810000	-217.373926
48.820000	-240.542128
48.830000	-260.047195
48.840000	-275.262774
48.850000	-281.006951
48.860000	-279.302128
48.870000	-278.950838
48.880000	-279.280888
48.890000	-283.871749
48.900000	-284.191645
48.910000	-284.125270
48.920000	-281.383866
48.930000	-278.690888
48.940000	-272.858089
48.950000	-267.239287
48.960000	-259.280804
48.970000	-251.432717
48.980000	-239.984454
48.990000	-226.605345
49.000000	-215.659827
49.010000	-205.392048
49.020000	-198.645278
49.030000	-187.446383
49.040000	-178.969567
49.050000	-166.091910
49.060000	-156.297659
49.070000	-143.998437
49.080000	-131.276947
49.090000	-118.864601
49.100000	-103.541951
49.110000	-92.054589
49.120000	-83.081138
49.130000	-91.251277
49.140000	-113.200343
49.150000	-144.407446
49.160000	-173.262615
49.170000	-197.886094
49.180000	-219.963649
49.190000	-239.990319
49.200000	-263.306719
49.210000	-285.028398
49.220000	-306.629065
49.230000	-321.338856
49.240000	-333.610460
49.250000	-337.916667
49.260000	-338.245956
49.270000	-335.781270
49.280000	-335.185372
49.290000	-334.588823
49.300000	-330.748433
49.310000	-326.373334
49.320000	-319.258461
49.330000	-314.471473
49.340000	-308.037158
49.350000	-301.879167
49.360000	-292.761551
49.370000	-282.928294
49.380000	-273.108009
49.390000	-264.939321
49.400000	-256.069411
49.410000	-248.588298
49.420000	-240.979827
49.430000	-230.860313
49.440000	-218.857100
49.450000	-203.083843
49.460000	-188.712009
49.470000	-172.241637
49.480000	-158.882081
49.490000	-143.662540
49.500000	-127.358833
49.510000	-111.041641
49.520000	-97.464084
49.530000	-99.739567
49.540000	-115.817880
49.550000	-145.398980
49.560000	-174.757972
49.570000	-199.039076
49.580000	-220.339972
49.590000	-238.629286
49.600000	-257.554522
49.610000	-277.165209
49.620000	-297.056567
49.630000	-313.981883
49.640000	-323.844646
49.650000	-325.427977
49.660000	-323.269849
49.670000	-320.157050
49.680000	-320.988447
49.690000	-322.150138
49.700000	-320.328398
49.710000	-314.436335
49.720000	-307.633466
49.730000	-301.337663
49.740000	-294.217355
49.750000	-286.863768
49.760000	-279.419296
49.770000	-272.677398
49.780000	-260.888787
49.790000	-250.142178
49.800000	-237.953149
49.810000	-228.242748
49.820000	-216.612634
49.830000	-203.641404
49.840000	-190.558098
49.850000	-176.317779
49.860000	-164.800826
49.870000	-151.922451
49.880000	-141.013867
49.890000	-126.452243
49.900000	-111.868472
49.910000	-97.588874
49.920000	-93.030391
49.930000	-106.337455
49.940000	-132.103636
49.950000	-163.363395
49.960000	-191.119372
49.970000	-217.033111
49.980000	-238.069804
49.990000	-254.325449
50.000000	-268.975810
50.010000	-283.894416
50.020000	-297.485583
50.030000	-302.393947
50.040000	-300.633893
50.050000	-295.509572
50.060000	-293.737209
50.070000	-291.876017
50.080000	-290.463246
50.090000	-287.179485
50.100000	-283.477588
50.110000	-278.420742
50.120000	-270.434268
50.130000	-262.284414
50.140000	-252.990885
50.150000	-244.432566
50.160000	-236.150772
50.170000	-224.514759
50.180000	-213.273410
50.190000	-200.523637
50.200000	-189.017434
50.210000	-178.131569
50.220000	-166.367099
50.230000	-156.024370
50.240000	-141.302001
50.250000	-125.883764
50.260000	-110.502390
50.270000	-97.353820
50.280000	-84.297227
50.290000	-73.107373
50.300000	-75.391528
50.310000	-95.780604
50.320000	-123.715997
50.330000	-152.402439
50.340000	-173.975510
50.350000	-193.664596
50.360000	-210.488703
50.370000	-226.873224
50.380000	-243.935125
50.390000	-259.342244
50.400000	-271.319316
50.410000	-277.412007
50.420000	-276.977461
50.430000	-271.757000
50.440000	-268.250390
50.450000	-264.680673
50.460000	-262.800789
50.470000	-258.188188
50.480000	-250.964166
50.490000	-243.635778
50.500000	-233.713698
50.510000	-223.362384
50.520000	-212.723595
50.530000	-201.018734
50.540000	-188.668744
50.550000	-173.599872
50.560000	-158.558452
50.570000	-142.769005
50.580000	-126.715633
50.590000	-112.873967
50.600000	-100.126315
50.610000	-85.904657
50.620000	-69.805664
50.630000	-52.868373
50.640000	-36.414528
50.650000	-18.083722
50.660000	2.041813
50.670000	19.093356
50.680000	25.897723
50.690000	17.014753
50.700000	-3.480346
50.710000	-29.317611
50.720000	-51.443566
50.730000	-70.602688
50.740000	-87.665943
50.750000	-106.487776
50.760000	-125.130567
50.770000	-140.962117
50.780000	-153.859583
50.790000	-160.685349
50.800000	-160.518195
50.810000	-155.005479
50.820000	-150.445759
50.830000	-146.229146
50.840000	-141.628512
50.850000	-136.041666
50.860000	-130.403662
50.870000	-125.107201
50.880000	-116.755905
50.890000	-108.778645
50.900000	-99.012948
50.910000	-86.038610
50.920000	-71.531303
50.930000	-56.883600
50.940000	-44.304027
50.950000	-29.629542
50.960000	-14.677953
50.970000	3.051945
50.980000	19.345583
50.990000	35.832402
51.000000	50.442220
51.010000	65.374857
51.020000	81.285227
51.030000	96.662319
51.040000	114.892983
51.050000	133.017320
51.060000	151.929972
51.070000	168.112520
51.080000	183.400992
51.090000	187.260070
51.100000	174.640413
51.110000	149.519416
51.120000	123.989460
51.130000	105.186152
51.140000	90.733721
51.150000	77.606106
51.160000	63.903076
51.170000	50.121643
51.180000	37.497122
51.190000	29.065118
51.200000	26.176529
51.210000	29.430179
51.220000	38.611016
51.230000	46.533740
51.240000	50.482418
51.250000	53.411175
51.260000	59.449010
51.270000	69.037439
51.280000	78.162650
51.290000	87.770272
51.300000	101.309774
51.310000	116.915438
51.320000	130.879095
51.330000	142.830690
51.340000	154.214642
51.350000	169.515858
51.360000	184.621796
51.370000	201.312754
51.380000	217.781627
51.390000	234.211299
51.400000	249.701652
51.410000	264.877518
51.420000	280.385538
51.430000	295.972045
51.440000	312.169344
51.450000	331.169201
51.460000	348.366193
51.470000	364.813920
51.480000	380.659543
51.490000	396.893581
51.500000	407.700461
51.510000	406.404105
51.520000	390.185492
51.530000	365.039316
51.540000	343.121551
51.550000	326.748561
51.560000	315.818979
51.570000	303.875309
51.580000	288.964021
51.590000	272.780937
51.600000	258.883310
51.610000	251.791954
51.620000	252.897017
51.630000	257.556359
51.640000	264.356485
51.650000	270.086324
51.660000	274.929375
51.670000	282.396457
51.680000	287.918033
51.690000	291.156439
51.700000	293.015252
51.710000	300.705823
51.720000	314.866754
51.730000	331.347978
51.740000	349.834968
51.750000	368.425536
51.760000	388.251527
51.770000	405.930955
51.780000	421.116927
51.790000	434.881018
51.800000	445.749658
51.810000	457.620391
51.820000	473.153784
51.830000	492.795372
51.840000	517.668358
51.850000	539.720632
51.860000	559.649334
51.870000	574.077292
51.880000	588.764879
51.890000	605.532819
51.900000	626.992492
51.910000	647.408856
51.920000	657.320174
51.930000	648.064257
51.940000	627.470513
51.950000	606.840080
51.960000	594.055869
51.970000	584.359103
51.980000	573.420504
51.990000	560.332464
52.000000	546.570129
52.010000	535.088502
52.020000	530.837343
52.030000	535.280571
52.040000	543.532878
52.050000	550.919131
52.060000	554.679741
52.070000	560.360047
52.080000	566.253041
52.090000	575.260117
52.100000	583.587919
52.110000	595.629438
52.120000	611.023302
52.130000	629.780135
52.140000	649.566056
52.150000	671.053018
52.160000	692.549696
52.170000	714.780022
52.180000	736.976835
52.190000	762.298837
52.200000	790.843358
52.210000	817.919052
52.220000	843.838264
52.230000	866.313516
52.240000	887.961442
52.250000	908.147258
52.260000	928.539220
52.270000	951.765307
52.280000	973.212169
52.290000	993.178624
52.300000	1014.674386
52.310000	1036.027610
52.320000	1055.585213
52.330000	1061.296623
52.340000	1051.640230
52.350000	1031.699059
52.360000	1009.150997
52.370000	993.221036
52.380000	979.071757
52.390000	966.537781
52.400000	954.438314
52.410000	943.642049
52.420000	932.580037
52.430000	923.204480
52.440000	920.177652
52.450000	924.872943
52.460000	936.216892
52.470000	945.970010
52.480000	952.723110
52.490000	956.853462
52.500000	964.025250
52.510000	972.832146
52.520000	983.446287
52.530000	994.922225
52.540000	1009.657537
52.550000	1023.441745
52.560000	1036.327971
52.570000	1050.414234
52.580000	1067.110409
52.590000	1085.828330
52.600000	1101.661273
52.610000	1118.045480
52.620000	1133.645685
52.630000	1151.387493
52.640000	1169.396573
52.650000	1188.182205
52.660000	1205.251853
52.670000	1222.100317
52.680000	1239.216624
52.690000	1258.801846
52.700000	1276.943105
52.710000	1292.622946
52.720000	1306.786368
52.730000	1318.884432
52.740000	1324.396302
52.750000	1315.246819
52.760000	1294.480514
52.770000	1271.068954
52.780000	1255.010740
52.790000	1245.972287
52.800000	1236.965307
52.810000	1225.998331
52.820000	1213.702422
52.830000	1204.476420
52.840000	1197.533335
52.850000	1197.075924
52.860000	1202.792556
52.870000	1211.441075
52.880000	1219.825245
52.890000	1226.249997
52.900000	1233.643246
52.910000	1241.488365
52.920000	1249.567256
52.930000	1260.840262
52.940000	1273.917051
52.950000	1289.301355
52.960000	1303.693313
52.970000	1316.874069
52.980000	1331.580422
52.990000	1347.206559
53.000000	1364.239041
53.010000	1380.633488
53.020000	1399.345653
53.030000	1419.817887
53.040000	1440.215399
53.050000	1458.434367
53.060000	1475.191880
53.070000	1493.823186
53.080000	1513.588467
53.090000	1534.645242
53.100000	1555.744765
53.110000	1577.568964
53.120000	1600.997414
53.130000	1615.891000
53.140000	1614.350889
53.150000	1595.994437
53.160000	1571.829145
53.170000	1552.857421
53.180000	1538.701760
53.190000	1527.474584
53.200000	1517.332189
53.210000	1504.175937
53.220000	1491.740532
53.230000	1477.281902
53.240000	1468.933822
53.250000	1467.121083
53.260000	1474.553755
53.270000	1486.024855
53.280000	1494.587873
53.290000	1503.708805
53.300000	1513.029006
53.310000	1524.816756
53.320000	1535.202656
53.330000	1546.022330
53.340000	1559.792702
53.350000	1574.295315
53.360000	1587.462797
53.370000	1601.325064
53.380000	1614.534992
53.390000	1626.099682
53.400000	1633.345645
53.410000	1637.627606
53.420000	1639.562339
53.430000	1641.233439
53.440000	1639.170128
53.450000	1636.930725
53.460000	1629.158027
53.470000	1613.372953
53.480000	1578.190934
53.490000	1525.587094
53.500000	1469.992348
53.510000	1418.514485
53.520000	1370.504879
53.530000	1315.479666
53.540000	1248.763874
53.550000	1173.529271
53.560000	1095.090651
53.570000	1020.979208
53.580000	955.802649
53.590000	896.466910
53.600000	845.922496
53.610000	794.643914
53.620000	747.805268
53.630000	704.191566
53.640000	666.753315
53.650000	633.110713
53.660000	598.413008
53.670000	561.758098
53.680000	517.442528
53.690000	465.469789
53.700000	400.504965
53.710000	326.252833
53.720000	246.947658
53.730000	161.398718
53.740000	72.615433
53.750000	-20.091740
53.760000	-102.304224
53.770000	-173.916490
53.780000	-238.691886
53.790000	-297.027306
53.800000	-340.685543
53.810000	-362.772583
53.820000	-372.354869
53.830000	-384.834819
53.840000	-405.964971
53.850000	-432.841614
53.860000	-461.207407
53.870000	-488.490137
53.880000	-509.748147
53.890000	-526.127905
53.900000	-545.948819
53.910000	-574.398337
53.920000	-622.474416
53.930000	-686.939668
53.940000	-765.313115
53.950000	-837.411092
53.960000	-896.501826
53.970000	-945.890828
53.980000	-989.340212
53.990000	-1028.012849
54.000000	-1060.154339
54.010000	-1086.459675
54.020000	-1106.283847
54.030000	-1117.555959
54.040000	-1121.744087
54.050000	-1123.984292
54.060000	-1125.850811
54.070000	-1128.736009
54.080000	-1131.943290
54.090000	-1133.810839
54.100000	-1140.717881
54.110000	-1152.528722
54.120000	-1172.162725
54.130000	-1193.551358
54.140000	-1208.599008
54.150000	-1216.592167
54.160000	-1215.029164
54.170000	-1208.652538
54.180000	-1200.455048
54.190000	-1192.712336
54.200000	-1194.568719
54.210000	-1196.390328
54.220000	-1193.700497
54.230000	-1215.832625
54.240000	-1259.080466
54.250000	-1290.200217
54.260000	-1301.537953
54.270000	-1304.628548
54.280000	-1319.694798
54.290000	-1340.660933
54.300000	-1378.241490
54.310000	-1442.369003
54.320000	-1508.037483
54.330000	-1560.451133
54.340000	-1598.217048
54.350000	-1621.886098
54.360000	-1619.376806
54.370000	-1593.377231
54.380000	-1533.517007
54.390000	-1460.972014
54.400000	-1390.657704
54.410000	-1324.215371
54.420000	-1264.821652
54.430000	-1231.187754
54.440000	-1246.685410
54.450000	-1288.387292
54.460000	-1315.521776
54.470000	-1313.012984
54.480000	-1300.810540
54.490000	-1287.631299
54.500000	-1262.402360
54.510000	-1215.611906
54.520000	-1155.067004
54.530000	-1099.314512
54.540000	-1044.028566
54.550000	-995.406324
54.560000	-943.640364
54.570000	-897.911700
54.580000	-850.902134
54.590000	-811.490722
54.600000	-795.880377
54.610000	-803.052663
54.620000	-832.891841
54.630000	-855.564239
54.640000	-880.710160
54.650000	-897.050636
54.660000	-930.329610
54.670000	-962.784146
54.680000	-991.022295
54.690000	-1033.612219
54.700000	-1069.641270
54.710000	-1088.503800
54.720000	-1071.941559
54.730000	-1038.198429
54.740000	-1009.957283
54.750000	-974.833766
54.760000	-939.730109
54.770000	-910.169879
54.780000	-887.864120
54.790000	-872.539285
54.800000	-856.684078
54.810000	-835.956968
54.820000	-809.887978
54.830000	-783.095666
54.840000	-747.430911
54.850000	-710.986799
54.860000	-680.344566
54.870000	-666.598915
54.880000	-662.249444
54.890000	-663.931724
54.900000	-673.210894
54.910000	-692.978237
54.920000	-713.849047
54.930000	-725.733588
54.940000	-733.238690
54.950000	-740.532537
54.960000	-764.040474
54.970000	-797.982642
54.980000	-834.883410
54.990000	-863.802704
55.000000	-882.797517
55.010000	-901.033384
55.020000	-924.416425
55.030000	-956.972960
55.040000	-988.042687
55.050000	-1009.968772
55.060000	-1021.066962
55.070000	-1023.356647
55.080000	-1017.135340
55.090000	-1011.150164
55.100000	-1007.568344
55.110000	-1006.654746
55.120000	-1005.709746
55.130000	-1003.212683
55.140000	-998.904970
55.150000	-988.476747
55.160000	-976.843010
55.170000	-966.785984
55.180000	-959.160333
55.190000	-952.807812
55.200000	-943.855186
55.210000	-933.896504
55.220000	-926.273543
55.230000	-918.688593
55.240000	-909.078275
55.250000	-892.525414
55.260000	-877.305309
55.270000	-869.408855
55.280000	-876.255985
55.290000	-901.668948
55.300000	-934.886615
55.310000	-968.658832
55.320000	-994.901903
55.330000	-1017.067471
55.340000	-1036.298044
55.350000	-1057.874787
55.360000	-1077.722569
55.370000	-1095.078718
55.380000	-1107.195924
55.390000	-1112.339800
55.400000	-1112.066098
55.410000	-1105.983392
55.420000	-1102.682202
55.430000	-1096.642883
55.440000	-1090.040814
55.450000	-1074.996177
55.460000	-1055.821040
55.470000	-1034.063374
55.480000	-1014.665444
55.490000	-998.507624
55.500000	-980.548472
55.510000	-966.703531
55.520000	-955.131760
55.530000	-946.293987
55.540000	-928.402957
55.550000	-901.973095
55.560000	-873.746100
55.570000	-847.699424
55.580000	-822.796919
55.590000	-803.161330
55.600000	-781.872102
55.610000	-768.055288
55.620000	-770.333827
55.630000	-788.980842
55.640000	-810.813059
55.650000	-820.956148
55.660000	-829.080693
55.670000	-839.972279
55.680000	-850.046160
55.690000	-859.051634
55.700000	-862.052732
55.710000	-848.502784
55.720000	-821.818086
55.730000	-780.326947
55.740000	-736.007803
55.750000	-686.164222
55.760000	-637.944518
55.770000	-582.343624
55.780000	-513.275609
55.790000	-441.956768
55.800000	-385.341871
55.810000	-339.565325
55.820000	-291.100715
55.830000	-241.266955
55.840000	-192.915915
55.850000	-151.694920
55.860000	-112.754118
55.870000	-81.201912
55.880000	-48.272399
55.890000	-11.444080
55.900000	23.468559
55.910000	52.935655
55.920000	76.166162
55.930000	94.604144
55.940000	105.802519
55.950000	100.536953
55.960000	76.407379
55.970000	37.437322
55.980000	-4.349045
55.990000	-38.716990
56.000000	-61.170841
56.010000	-73.270722
56.020000	-80.051477
56.030000	-88.211494
56.040000	-96.626274
56.050000	-98.518897
56.060000	-94.603642
56.070000	-86.544077
56.080000	-82.981853
56.090000	-85.932574
56.100000	-90.388795
56.110000	-95.045766
56.120000	-95.835845
56.130000	-90.879167
56.140000	-77.661857
56.150000	-59.776547
56.160000	-51.230182
56.170000	-41.653853
56.180000	-34.884233
56.190000	-29.229185
56.200000	-28.265803
56.210000	-26.492460
56.220000	-20.365463
56.230000	-15.159168
56.240000	-4.144533
56.250000	10.437275
56.260000	28.369913
56.270000	38.959730
56.280000	43.204760
56.290000	33.413441
56.300000	13.359720
56.310000	-10.837619
56.320000	-28.182969
56.330000	-35.487666
56.340000	-40.466317
56.350000	-45.166026
56.360000	-45.443042
56.370000	-35.884446
56.380000	-23.163005
56.390000	-15.316493
56.400000	-19.924755
56.410000	-24.736950
56.420000	-32.771151
56.430000	-33.496067
56.440000	-27.356732
56.450000	-21.315286
56.460000	-5.939320
56.470000	7.767498
56.480000	26.819215
56.490000	42.766281
56.500000	54.890958
56.510000	62.724557
56.520000	62.245252
56.530000	61.675607
56.540000	70.562496
56.550000	91.232974
56.560000	111.466096
56.570000	123.763123
56.580000	138.712686
56.590000	164.246117
56.600000	189.534725
56.610000	204.692171
56.620000	207.338013
56.630000	203.121073
56.640000	188.075849
56.650000	172.216150
56.660000	165.775561
56.670000	171.585659
56.680000	183.077703
56.690000	195.588806
56.700000	210.357946
56.710000	225.879791
56.720000	239.931745
56.730000	253.809448
56.740000	265.793086
56.750000	274.034724
56.760000	277.954024
56.770000	279.229128
56.780000	280.748018
