Time(s)	IR_denoised_wiener
0.000000	-405.177774
0.010000	-571.502327
0.020000	-684.620017
0.030000	-762.179106
0.040000	-801.985286
0.050000	-818.215529
0.060000	-825.666804
0.070000	-827.868747
0.080000	-826.657940
0.090000	-828.515511
0.100000	-830.269868
0.110000	-825.132820
0.120000	-815.554152
0.130000	-816.096884
0.140000	-829.786726
0.150000	-845.000513
0.160000	-852.004107
0.170000	-849.239362
0.180000	-840.883142
0.190000	-829.786942
0.200000	-819.075095
0.210000	-799.612811
0.220000	-776.618215
0.230000	-753.745912
0.240000	-734.472147
0.250000	-714.502076
0.260000	-692.311195
0.270000	-667.906381
0.280000	-640.458305
0.290000	-615.304402
0.300000	-588.222353
0.310000	-563.368375
0.320000	-537.609060
0.330000	-515.763275
0.340000	-499.963874
0.350000	-482.773772
0.360000	-464.982895
0.370000	-441.074949
0.380000	-423.358595
0.390000	-416.663023
0.400000	-404.984231
0.410000	-409.660529
0.420000	-467.291695
0.430000	-597.989236
0.440000	-756.723337
0.450000	-880.773778
0.460000	-948.236240
0.470000	-965.009968
0.480000	-952.429644
0.490000	-929.544335
0.500000	-912.251856
0.510000	-904.683519
0.520000	-901.016862
0.530000	-891.113975
0.540000	-870.099099
0.550000	-854.238258
0.560000	-850.792004
0.570000	-856.635722
0.580000	-863.104360
0.590000	-862.670607
0.600000	-856.073337
0.610000	-842.000055
0.620000	-827.698968
0.630000	-802.914174
0.640000	-771.997065
0.650000	-742.803190
0.660000	-726.268485
0.670000	-721.290256
0.680000	-712.130402
0.690000	-693.101864
0.700000	-664.973223
0.710000	-638.570501
0.720000	-615.085218
0.730000	-592.993541
0.740000	-570.491189
0.750000	-550.055972
0.760000	-523.829282
0.770000	-491.098082
0.780000	-454.135168
0.790000	-418.107270
0.800000	-376.033017
0.810000	-320.406544
0.820000	-265.281134
0.830000	-219.649163
0.840000	-180.118672
0.850000	-154.211382
0.860000	-173.979396
0.870000	-258.359576
0.880000	-373.650394
0.890000	-463.733901
0.900000	-508.373824
0.910000	-515.137984
0.920000	-503.750212
0.930000	-485.805485
0.940000	-473.747511
0.950000	-471.400728
0.960000	-472.334222
0.970000	-462.592377
0.980000	-446.253698
0.990000	-439.098888
1.000000	-449.434854
1.010000	-468.172644
1.020000	-475.868741
1.030000	-469.238096
1.040000	-452.269395
1.050000	-432.927397
1.060000	-415.271721
1.070000	-396.208914
1.080000	-376.897051
1.090000	-355.426125
1.100000	-331.470311
1.110000	-309.934070
1.120000	-288.299006
1.130000	-267.727399
1.140000	-244.722963
1.150000	-219.805930
1.160000	-200.773858
1.170000	-192.148527
1.180000	-187.065988
1.190000	-176.089339
1.200000	-157.985373
1.210000	-139.322408
1.220000	-122.162649
1.230000	-97.795593
1.240000	-60.951851
1.250000	-23.250409
1.260000	7.000024
1.270000	39.075625
1.280000	82.351955
1.290000	100.676961
1.300000	51.754591
1.310000	-47.156655
1.320000	-144.680359
1.330000	-202.958129
1.340000	-230.171927
1.350000	-230.010193
1.360000	-217.289761
1.370000	-199.637644
1.380000	-185.003044
1.390000	-171.498739
1.400000	-151.293425
1.410000	-130.658086
1.420000	-119.185206
1.430000	-128.080232
1.440000	-143.933842
1.450000	-157.437526
1.460000	-165.957452
1.470000	-172.399432
1.480000	-174.890087
1.490000	-167.271142
1.500000	-154.774998
1.510000	-137.716420
1.520000	-112.569186
1.530000	-93.462767
1.540000	-80.242800
1.550000	-74.130965
1.560000	-60.456919
1.570000	-38.755078
1.580000	-19.951972
1.590000	-4.934006
1.600000	9.649474
1.610000	24.298018
1.620000	42.010489
1.630000	56.925665
1.640000	70.813009
1.650000	89.986930
1.660000	119.032499
1.670000	161.467570
1.680000	200.619426
1.690000	226.055493
1.700000	250.360301
1.710000	274.369124
1.720000	261.089171
1.730000	179.792435
1.740000	38.016190
1.750000	-97.193849
1.760000	-186.705921
1.770000	-228.854924
1.780000	-246.734009
1.790000	-261.748763
1.800000	-268.257965
1.810000	-265.559075
1.820000	-253.686270
1.830000	-236.615287
1.840000	-220.354649
1.850000	-212.242389
1.860000	-213.238827
1.870000	-223.098907
1.880000	-235.672255
1.890000	-246.190765
1.900000	-245.992606
1.910000	-235.872285
1.920000	-220.887759
1.930000	-201.436833
1.940000	-179.682990
1.950000	-156.559295
1.960000	-132.704771
1.970000	-103.226652
1.980000	-79.330252
1.990000	-68.108261
2.000000	-67.823088
2.010000	-59.165943
2.020000	-39.919929
2.030000	-13.127860
2.040000	7.732055
2.050000	25.733779
2.060000	40.820808
2.070000	54.712940
2.080000	71.028025
2.090000	86.453589
2.100000	105.705088
2.110000	124.952504
2.120000	147.517469
2.130000	161.525964
2.140000	185.864556
2.150000	219.495523
2.160000	223.559187
2.170000	155.908079
2.180000	28.521775
2.190000	-95.084594
2.200000	-180.140764
2.210000	-231.732312
2.220000	-256.017896
2.230000	-253.910002
2.240000	-231.787154
2.250000	-202.983306
2.260000	-185.779239
2.270000	-173.530118
2.280000	-153.963897
2.290000	-134.672241
2.300000	-130.374946
2.310000	-145.659405
2.320000	-164.601917
2.330000	-172.187377
2.340000	-174.758585
2.350000	-171.232041
2.360000	-163.794040
2.370000	-153.810309
2.380000	-135.344681
2.390000	-119.637043
2.400000	-98.041376
2.410000	-71.356437
2.420000	-36.593769
2.430000	-5.314605
2.440000	19.679707
2.450000	44.888536
2.460000	75.419077
2.470000	110.211745
2.480000	143.282549
2.490000	175.692551
2.500000	199.928004
2.510000	224.690714
2.520000	245.677845
2.530000	274.874333
2.540000	301.840764
2.550000	330.572883
2.560000	360.801196
2.570000	387.067017
2.580000	416.272691
2.590000	453.032585
2.600000	484.842156
2.610000	461.373190
2.620000	368.991926
2.630000	241.323711
2.640000	134.350473
2.650000	62.641788
2.660000	29.827527
2.670000	29.748787
2.680000	50.772608
2.690000	80.002631
2.700000	102.195478
2.710000	124.135130
2.720000	146.754351
2.730000	170.084478
2.740000	180.094511
2.750000	175.556151
2.760000	164.280575
2.770000	151.509090
2.780000	141.619839
2.790000	140.288409
2.800000	152.781375
2.810000	170.186090
2.820000	193.795491
2.830000	218.892388
2.840000	242.974724
2.850000	263.424641
2.860000	283.998307
2.870000	312.127739
2.880000	342.815737
2.890000	368.987012
2.900000	392.821034
2.910000	420.687472
2.920000	451.970718
2.930000	481.873912
2.940000	510.966492
2.950000	543.234975
2.960000	576.778552
2.970000	607.088543
2.980000	639.116806
2.990000	676.773333
3.000000	708.246498
3.010000	744.689682
3.020000	789.189713
3.030000	820.375056
3.040000	787.221538
3.050000	684.690632
3.060000	560.235277
3.070000	465.188445
3.080000	414.654924
3.090000	408.149346
3.100000	431.209251
3.110000	462.598535
3.120000	495.644290
3.130000	523.221013
3.140000	557.641064
3.150000	593.637367
3.160000	628.821713
3.170000	651.538040
3.180000	656.864434
3.190000	650.645659
3.200000	640.757234
3.210000	640.279197
3.220000	649.794454
3.230000	670.426746
3.240000	697.328242
3.250000	726.088909
3.260000	756.052855
3.270000	782.587762
3.280000	811.320352
3.290000	840.247455
3.300000	871.782192
3.310000	905.415080
3.320000	938.755232
3.330000	970.101368
3.340000	1001.255058
3.350000	1030.963490
3.360000	1062.953166
3.370000	1092.654477
3.380000	1122.856844
3.390000	1152.186419
3.400000	1178.277211
3.410000	1209.935478
3.420000	1247.862092
3.430000	1285.852684
3.440000	1324.319254
3.450000	1370.309212
3.460000	1388.514829
3.470000	1342.952265
3.480000	1228.650929
3.490000	1107.969210
3.500000	1023.254650
3.510000	977.734897
3.520000	966.358752
3.530000	979.344302
3.540000	1008.657953
3.550000	1044.806911
3.560000	1077.479023
3.570000	1111.167871
3.580000	1148.151923
3.590000	1178.687280
3.600000	1198.030239
3.610000	1203.069728
3.620000	1206.143074
3.630000	1211.956832
3.640000	1222.106496
3.650000	1242.715683
3.660000	1272.910177
3.670000	1312.001350
3.680000	1358.905903
3.690000	1400.781329
3.700000	1438.465951
3.710000	1469.412216
3.720000	1501.247607
3.730000	1534.550852
3.740000	1568.218522
3.750000	1605.896503
3.760000	1638.682359
3.770000	1666.794668
3.780000	1687.331818
3.790000	1707.915983
3.800000	1730.493311
3.810000	1754.223968
3.820000	1777.179493
3.830000	1799.398380
3.840000	1831.422212
3.850000	1872.068268
3.860000	1909.830902
3.870000	1945.967503
3.880000	1986.781030
3.890000	1994.941085
3.900000	1939.609778
3.910000	1829.550808
3.920000	1728.784237
3.930000	1668.597803
3.940000	1638.704899
3.950000	1639.200241
3.960000	1662.130248
3.970000	1695.651972
3.980000	1718.389230
3.990000	1725.675914
4.000000	1736.907100
4.010000	1767.214090
4.020000	1802.537204
4.030000	1829.613318
4.040000	1840.373550
4.050000	1852.608646
4.060000	1869.026632
4.070000	1884.774444
4.080000	1898.547094
4.090000	1919.827226
4.100000	1956.252887
4.110000	1999.024955
4.120000	2036.808156
4.130000	2050.390498
4.140000	2049.298131
4.150000	2057.985798
4.160000	2097.299918
4.170000	2159.356864
4.180000	2221.448605
4.190000	2287.989637
4.200000	2368.130428
4.210000	2439.722808
4.220000	2478.659451
4.230000	2483.704250
4.240000	2490.808924
4.250000	2525.842485
4.260000	2584.058288
4.270000	2623.060770
4.280000	2629.236287
4.290000	2644.279994
4.300000	2676.838641
4.310000	2667.827726
4.320000	2567.590084
4.330000	2431.179407
4.340000	2351.734201
4.350000	2344.498876
4.360000	2367.174222
4.370000	2391.701464
4.380000	2414.190600
4.390000	2442.111181
4.400000	2469.344860
4.410000	2490.363647
4.420000	2516.719734
4.430000	2538.062217
4.440000	2551.286652
4.450000	2544.909108
4.460000	2528.415014
4.470000	2509.587672
4.480000	2497.716341
4.490000	2503.772151
4.500000	2524.478950
4.510000	2555.453101
4.520000	2587.393317
4.530000	2619.321247
4.540000	2640.778369
4.550000	2665.083793
4.560000	2699.976210
4.570000	2745.318495
4.580000	2778.605390
4.590000	2815.148812
4.600000	2856.687993
4.610000	2904.801660
4.620000	2932.848312
4.630000	2949.371940
4.640000	2964.833573
4.650000	2993.771962
4.660000	3039.939931
4.670000	3078.242302
4.680000	3113.276203
4.690000	3147.520642
4.700000	3172.728938
4.710000	3138.828780
4.720000	3037.439592
4.730000	2918.439050
4.740000	2833.629680
4.750000	2786.389141
4.760000	2773.606761
4.770000	2781.780811
4.780000	2810.087403
4.790000	2838.921575
4.800000	2857.391240
4.810000	2871.573446
4.820000	2882.811793
4.830000	2897.701325
4.840000	2900.631458
4.850000	2897.680706
4.860000	2894.573895
4.870000	2896.113092
4.880000	2895.939661
4.890000	2895.352250
4.900000	2902.107313
4.910000	2922.703827
4.920000	2955.032231
4.930000	2987.475219
4.940000	3017.091910
4.950000	3043.028256
4.960000	3065.929920
4.970000	3080.671267
4.980000	3101.257892
4.990000	3130.051288
5.000000	3163.336389
5.010000	3191.179645
5.020000	3212.201980
5.030000	3232.423420
5.040000	3238.106544
5.050000	3234.477308
5.060000	3257.184130
5.070000	3300.505117
5.080000	3310.882610
5.090000	3239.295706
5.100000	3115.880175
5.110000	2980.860348
5.120000	2873.619755
5.130000	2806.760387
5.140000	2788.754892
5.150000	2781.270026
5.160000	2761.334954
5.170000	2734.926461
5.180000	2707.311561
5.190000	2687.322371
5.200000	2672.317511
5.210000	2655.766276
5.220000	2617.676305
5.230000	2577.372441
5.240000	2546.399105
5.250000	2529.676880
5.260000	2524.147531
5.270000	2532.709608
5.280000	2546.907743
5.290000	2560.455623
5.300000	2569.379311
5.310000	2578.595390
5.320000	2584.527864
5.330000	2580.090120
5.340000	2574.082270
5.350000	2567.924394
5.360000	2566.002215
5.370000	2566.095483
5.380000	2563.935708
5.390000	2566.647904
5.400000	2577.205353
5.410000	2588.183488
5.420000	2585.465824
5.430000	2567.760972
5.440000	2512.338203
5.450000	2401.019187
5.460000	2226.906957
5.470000	2000.038573
5.480000	1751.501671
5.490000	1533.822632
5.500000	1387.090810
5.510000	1268.504894
5.520000	1130.283503
5.530000	960.665343
5.540000	798.738819
5.550000	659.050790
5.560000	555.209381
5.570000	486.907074
5.580000	460.331568
5.590000	462.675606
5.600000	473.059969
5.610000	496.139949
5.620000	526.049107
5.630000	559.899397
5.640000	601.006159
5.650000	644.919007
5.660000	690.250394
5.670000	726.523029
5.680000	754.131136
5.690000	769.720671
5.700000	768.609407
5.710000	762.227668
5.720000	753.994695
5.730000	734.960292
5.740000	697.975106
5.750000	640.960926
5.760000	546.498029
5.770000	406.630684
5.780000	254.717878
5.790000	136.780349
5.800000	60.410074
5.810000	21.195730
5.820000	6.648065
5.830000	-41.282158
5.840000	-162.175331
5.850000	-393.416264
5.860000	-615.672586
5.870000	-764.599735
5.880000	-841.333222
5.890000	-882.771554
5.900000	-937.496781
5.910000	-1018.636350
5.920000	-1107.031447
5.930000	-1169.926338
5.940000	-1195.422016
5.950000	-1194.747876
5.960000	-1208.029376
5.970000	-1266.351403
5.980000	-1349.639095
5.990000	-1421.722976
6.000000	-1477.482379
6.010000	-1538.318375
6.020000	-1623.473404
6.030000	-1711.291122
6.040000	-1776.948076
6.050000	-1864.615038
6.060000	-2012.081672
6.070000	-2300.763711
6.080000	-2613.533382
6.090000	-2920.548581
6.100000	-3232.865178
6.110000	-3504.314110
6.120000	-3728.850289
6.130000	-3979.149023
6.140000	-4249.092823
6.150000	-4424.766141
6.160000	-4524.709355
6.170000	-4561.069640
6.180000	-4573.863558
6.190000	-4575.828754
6.200000	-4582.224254
6.210000	-4622.495400
6.220000	-4708.407263
6.230000	-4827.301448
6.240000	-4929.029365
6.250000	-4997.077491
6.260000	-5037.259258
6.270000	-5069.440756
6.280000	-5087.301313
6.290000	-5083.687915
6.300000	-5074.962864
6.310000	-5089.525075
6.320000	-5117.077073
6.330000	-5136.226004
6.340000	-5160.516755
6.350000	-5199.814911
6.360000	-5274.217828
6.370000	-5357.177499
6.380000	-5441.876697
6.390000	-5542.837409
6.400000	-5680.430495
6.410000	-5857.852110
6.420000	-6012.851336
6.430000	-6126.778879
6.440000	-6198.567033
6.450000	-6240.510134
6.460000	-6246.148045
6.470000	-6208.825833
6.480000	-6131.341449
6.490000	-6054.834679
6.500000	-6000.402345
6.510000	-5960.020750
6.520000	-5897.979031
6.530000	-5805.874918
6.540000	-5700.218453
6.550000	-5579.608723
6.560000	-5446.732412
6.570000	-5318.312167
6.580000	-5217.863863
6.590000	-5163.935176
6.600000	-5163.898840
6.610000	-5222.151874
6.620000	-5301.422178
6.630000	-5351.937962
6.640000	-5349.954937
6.650000	-5320.797601
6.660000	-5289.760540
6.670000	-5263.880802
6.680000	-5226.442024
6.690000	-5172.270877
6.700000	-5119.797521
6.710000	-5075.571486
6.720000	-5030.721112
6.730000	-4962.779121
6.740000	-4889.032144
6.750000	-4823.590141
6.760000	-4778.617098
6.770000	-4730.917103
6.780000	-4664.836258
6.790000	-4564.524084
6.800000	-4449.433310
6.810000	-4334.733906
6.820000	-4233.974160
6.830000	-4135.823935
6.840000	-4040.161258
6.850000	-3942.183472
6.860000	-3833.287152
6.870000	-3728.223237
6.880000	-3622.643497
6.890000	-3530.930823
6.900000	-3443.550636
6.910000	-3370.308098
6.920000	-3300.016756
6.930000	-3227.652312
6.940000	-3159.463876
6.950000	-3118.994063
6.960000	-3095.767583
6.970000	-3059.230649
6.980000	-3012.112630
6.990000	-2989.505971
7.000000	-2997.327297
7.010000	-2996.607650
7.020000	-2940.135496
7.030000	-2833.470287
7.040000	-2701.947193
7.050000	-2565.266442
7.060000	-2437.692748
7.070000	-2323.985054
7.080000	-2239.749757
7.090000	-2175.583045
7.100000	-2120.750915
7.110000	-2072.483764
7.120000	-2038.728731
7.130000	-2021.648844
7.140000	-2003.598734
7.150000	-1973.444732
7.160000	-1933.451443
7.170000	-1882.844486
7.180000	-1821.250428
7.190000	-1737.826944
7.200000	-1656.756672
7.210000	-1590.721799
7.220000	-1540.841390
7.230000	-1502.878416
7.240000	-1467.855788
7.250000	-1434.999813
7.260000	-1385.094659
7.270000	-1327.474283
7.280000	-1263.586051
7.290000	-1210.264714
7.300000	-1178.334139
7.310000	-1156.600709
7.320000	-1129.341984
7.330000	-1097.253477
7.340000	-1060.619857
7.350000	-1020.846617
7.360000	-992.537402
7.370000	-1006.086006
7.380000	-1073.339672
7.390000	-1151.443591
7.400000	-1210.111004
7.410000	-1219.402772
7.420000	-1197.280631
7.430000	-1162.964891
7.440000	-1140.729694
7.450000	-1125.711939
7.460000	-1114.446950
7.470000	-1102.386415
7.480000	-1087.434058
7.490000	-1074.676443
7.500000	-1076.703630
7.510000	-1085.170185
7.520000	-1085.550128
7.530000	-1065.931019
7.540000	-1032.037654
7.550000	-994.630935
7.560000	-956.427662
7.570000	-926.271576
7.580000	-901.709853
7.590000	-886.518507
7.600000	-870.542264
7.610000	-853.045756
7.620000	-824.938797
7.630000	-793.203504
7.640000	-763.249978
7.650000	-741.615922
7.660000	-719.102114
7.670000	-696.305353
7.680000	-671.196405
7.690000	-648.261303
7.700000	-619.170036
7.710000	-582.817550
7.720000	-551.760889
7.730000	-518.564489
7.740000	-492.977110
7.750000	-498.927778
7.760000	-560.436882
7.770000	-657.412433
7.780000	-736.714296
7.790000	-772.880740
7.800000	-777.333192
7.810000	-766.936721
7.820000	-755.515664
7.830000	-741.855858
7.840000	-729.949425
7.850000	-722.006282
7.860000	-709.589312
7.870000	-682.386105
7.880000	-652.190308
7.890000	-634.007650
7.900000	-625.642796
7.910000	-616.504035
7.920000	-600.337592
7.930000	-584.266711
7.940000	-563.561871
7.950000	-537.601858
7.960000	-510.024848
7.970000	-480.819789
7.980000	-452.720643
7.990000	-431.604100
8.000000	-412.610498
8.010000	-402.643397
8.020000	-385.324880
8.030000	-368.302946
8.040000	-344.552345
8.050000	-329.576876
8.060000	-333.650400
8.070000	-354.032464
8.080000	-377.937380
8.090000	-392.704020
8.100000	-394.128992
8.110000	-380.262274
8.120000	-358.559382
8.130000	-331.686085
8.140000	-307.548645
8.150000	-271.257528
8.160000	-251.199440
8.170000	-274.701158
8.180000	-344.323066
8.190000	-417.895210
8.200000	-464.349551
8.210000	-480.370269
8.220000	-481.632061
8.230000	-471.681631
8.240000	-460.801763
8.250000	-449.500579
8.260000	-445.859101
8.270000	-442.810493
8.280000	-436.122528
8.290000	-418.977339
8.300000	-405.306038
8.310000	-409.674746
8.320000	-428.634606
8.330000	-447.869229
8.340000	-457.835592
8.350000	-464.297441
8.360000	-466.877109
8.370000	-462.574890
8.380000	-450.446415
8.390000	-453.439140
8.400000	-462.113648
8.410000	-468.493318
8.420000	-453.936524
8.430000	-434.493405
8.440000	-415.914093
8.450000	-404.677495
8.460000	-394.370601
8.470000	-380.714140
8.480000	-359.339237
8.490000	-328.602986
8.500000	-298.516935
8.510000	-266.299419
8.520000	-234.216891
8.530000	-194.475612
8.540000	-156.470445
8.550000	-114.783172
8.560000	-79.604586
8.570000	-46.219836
8.580000	-9.907746
8.590000	19.468747
8.600000	11.900071
8.610000	-46.297177
8.620000	-122.663720
8.630000	-181.551677
8.640000	-210.119810
8.650000	-224.046492
8.660000	-224.697564
8.670000	-225.400794
8.680000	-221.718811
8.690000	-223.285013
8.700000	-228.532887
8.710000	-224.293273
8.720000	-215.217466
8.730000	-211.136297
8.740000	-229.408905
8.750000	-249.360019
8.760000	-260.445644
8.770000	-264.099755
8.780000	-262.633547
8.790000	-258.654698
8.800000	-248.952167
8.810000	-242.054219
8.820000	-237.724683
8.830000	-232.254468
8.840000	-222.975957
8.850000	-207.931528
8.860000	-191.384808
8.870000	-176.411442
8.880000	-159.580864
8.890000	-141.372795
8.900000	-120.909515
8.910000	-98.472610
8.920000	-71.698466
8.930000	-41.715201
8.940000	-11.624979
8.950000	13.906820
8.960000	37.338027
8.970000	57.389581
8.980000	84.538706
8.990000	116.042461
9.000000	138.918738
9.010000	162.632182
9.020000	192.496939
9.030000	205.354313
9.040000	165.585909
9.050000	86.089063
9.060000	14.651114
9.070000	-29.372831
9.080000	-61.831215
9.090000	-80.234163
9.100000	-87.109425
9.110000	-78.859730
9.120000	-70.886500
9.130000	-68.904335
9.140000	-61.394177
9.150000	-44.079057
9.160000	-25.713496
9.170000	-18.705287
9.180000	-20.431964
9.190000	-16.070729
9.200000	-7.300766
9.210000	-0.553189
9.220000	12.768784
9.230000	34.176344
9.240000	61.728015
9.250000	91.801468
9.260000	116.576969
9.270000	141.699201
9.280000	164.305895
9.290000	188.520500
9.300000	214.930528
9.310000	240.906087
9.320000	265.132940
9.330000	287.871200
9.340000	314.592570
9.350000	337.711055
9.360000	366.008793
9.370000	389.411787
9.380000	414.049885
9.390000	430.651608
9.400000	451.733230
9.410000	483.457411
9.420000	507.600716
9.430000	525.569262
9.440000	551.088517
9.450000	575.540567
9.460000	563.090059
9.470000	500.831014
9.480000	427.490578
9.490000	378.035960
9.500000	345.368044
9.510000	330.189142
9.520000	330.164967
9.530000	347.951479
9.540000	366.169962
9.550000	371.990389
9.560000	376.171470
