Time(s)	GREEN_denoised_wiener
0.000000	70.895963
0.010000	57.427830
0.020000	-31.594172
0.030000	-101.450089
0.040000	-147.855393
0.050000	-175.029617
0.060000	-186.459907
0.070000	-187.292728
0.080000	-175.724745
0.090000	-154.247430
0.100000	-127.676143
0.110000	-106.899372
0.120000	-95.287834
0.130000	-91.218920
0.140000	-91.911376
0.150000	-90.208531
0.160000	-83.229119
0.170000	-66.877641
0.180000	-43.915574
0.190000	-17.230688
0.200000	12.720684
0.210000	46.066864
0.220000	83.340001
0.230000	123.341234
0.240000	165.274955
0.250000	208.262864
0.260000	251.523953
0.270000	294.832751
0.280000	338.754807
0.290000	381.040875
0.300000	423.308534
0.310000	466.559174
0.320000	510.837780
0.330000	554.049350
0.340000	598.356080
0.350000	655.542921
0.360000	717.797119
0.370000	757.291014
0.380000	748.219466
0.390000	688.412697
0.400000	599.014101
0.410000	499.504317
0.420000	408.446962
0.430000	337.216506
0.440000	290.167090
0.450000	262.208871
0.460000	246.521477
0.470000	242.523610
0.480000	254.527434
0.490000	277.450234
0.500000	304.833524
0.510000	328.341835
0.520000	350.472386
0.530000	366.181963
0.540000	369.076322
0.550000	353.325305
0.560000	315.989407
0.570000	264.464452
0.580000	204.531683
0.590000	138.226474
0.600000	71.383761
0.610000	4.940612
0.620000	-69.157085
0.630000	-147.014460
0.640000	-220.388485
0.650000	-282.342748
0.660000	-340.362921
0.670000	-390.008836
0.680000	-424.033999
0.690000	-446.744798
0.700000	-481.128319
0.710000	-527.791680
0.720000	-576.565881
0.730000	-602.170344
0.740000	-607.454437
0.750000	-604.615526
0.760000	-608.725502
0.770000	-626.078312
0.780000	-660.699147
0.790000	-710.901316
0.800000	-756.999686
0.810000	-790.130789
0.820000	-815.716622
0.830000	-837.065359
0.840000	-843.439622
0.850000	-831.398344
0.860000	-807.903297
0.870000	-784.122038
0.880000	-758.043651
0.890000	-732.572486
0.900000	-712.569674
0.910000	-707.750264
0.920000	-718.116718
0.930000	-733.949396
0.940000	-743.372919
0.950000	-739.210196
0.960000	-721.030093
0.970000	-696.877061
0.980000	-673.065639
0.990000	-659.938447
1.000000	-652.776938
1.010000	-652.064899
1.020000	-645.838480
1.030000	-631.602103
1.040000	-606.617749
1.050000	-574.207988
1.060000	-533.103412
1.070000	-488.551078
1.080000	-450.989605
1.090000	-422.925613
1.100000	-400.912970
1.110000	-373.331508
1.120000	-344.266901
1.130000	-312.443722
1.140000	-275.338730
1.150000	-229.608622
1.160000	-197.201905
1.170000	-203.839370
1.180000	-265.092967
1.190000	-363.702643
1.200000	-482.373570
1.210000	-602.284963
1.220000	-706.716781
1.230000	-778.924317
1.240000	-816.155786
1.250000	-837.681773
1.260000	-858.975561
1.270000	-874.439468
1.280000	-872.169702
1.290000	-861.313569
1.300000	-858.443051
1.310000	-872.224999
1.320000	-898.406843
1.330000	-927.180643
1.340000	-946.423959
1.350000	-948.541940
1.360000	-940.541259
1.370000	-934.978750
1.380000	-932.018309
1.390000	-926.461467
1.400000	-910.549134
1.410000	-885.697023
1.420000	-861.831135
1.430000	-844.983176
1.440000	-832.149762
1.450000	-816.319909
1.460000	-798.886532
1.470000	-784.728077
1.480000	-770.997408
1.490000	-750.185556
1.500000	-725.867628
1.510000	-704.045383
1.520000	-681.775741
1.530000	-647.611084
1.540000	-605.455351
1.550000	-582.302968
1.560000	-599.181429
1.570000	-665.358834
1.580000	-780.276883
1.590000	-928.771028
1.600000	-1081.396305
1.610000	-1198.217672
1.620000	-1262.643167
1.630000	-1281.124327
1.640000	-1270.314823
1.650000	-1251.440357
1.660000	-1229.004071
1.670000	-1206.149537
1.680000	-1184.753410
1.690000	-1176.616225
1.700000	-1180.530614
1.710000	-1193.474852
1.720000	-1214.711003
1.730000	-1237.714484
1.740000	-1255.954917
1.750000	-1263.686446
1.760000	-1270.303887
1.770000	-1283.717755
1.780000	-1292.997811
1.790000	-1284.805756
1.800000	-1250.768608
1.810000	-1205.352979
1.820000	-1168.952088
1.830000	-1141.908106
1.840000	-1113.501393
1.850000	-1077.872681
1.860000	-1043.820272
1.870000	-1017.559355
1.880000	-997.179229
1.890000	-975.627500
1.900000	-951.950388
1.910000	-930.772936
1.920000	-908.427249
1.930000	-874.294266
1.940000	-837.687007
1.950000	-837.290916
1.960000	-900.643950
1.970000	-1009.890508
1.980000	-1122.594143
1.990000	-1213.263877
2.000000	-1280.337092
2.010000	-1323.367139
2.020000	-1340.469370
2.030000	-1329.863742
2.040000	-1293.003352
2.050000	-1232.088316
2.060000	-1153.942369
2.070000	-1073.393622
2.080000	-1008.615727
2.090000	-962.715761
2.100000	-934.000505
2.110000	-912.071645
2.120000	-893.795934
2.130000	-874.480313
2.140000	-851.654235
2.150000	-824.282719
2.160000	-791.903592
2.170000	-757.817959
2.180000	-719.860110
2.190000	-682.426403
2.200000	-642.183580
2.210000	-602.440938
2.220000	-558.205084
2.230000	-514.871166
2.240000	-473.601775
2.250000	-432.679945
2.260000	-390.718810
2.270000	-345.204707
2.280000	-302.579159
2.290000	-262.763249
2.300000	-224.487561
2.310000	-184.701186
2.320000	-140.112554
2.330000	-87.690052
2.340000	-40.832519
2.350000	-24.092357
2.360000	-56.920904
2.370000	-134.810915
2.380000	-231.330756
2.390000	-325.592677
2.400000	-399.462439
2.410000	-450.798922
2.420000	-482.989485
2.430000	-502.727379
2.440000	-514.890960
2.450000	-514.674932
2.460000	-500.513303
2.470000	-478.020452
2.480000	-458.529201
2.490000	-446.725164
2.500000	-440.236094
2.510000	-436.472587
2.520000	-434.323280
2.530000	-431.258605
2.540000	-424.117474
2.550000	-413.764006
2.560000	-398.612850
2.570000	-377.979367
2.580000	-349.477280
2.590000	-315.247131
2.600000	-277.381120
2.610000	-238.889861
2.620000	-198.979854
2.630000	-158.575552
2.640000	-118.616436
2.650000	-79.965068
2.660000	-43.289415
2.670000	-4.043421
2.680000	35.649903
2.690000	79.525369
2.700000	123.866918
2.710000	171.076228
2.720000	218.034476
2.730000	267.275423
2.740000	323.173672
2.750000	382.420533
2.760000	426.572082
2.770000	431.517964
2.780000	389.650800
2.790000	313.305575
2.800000	228.402663
2.810000	153.041293
2.820000	94.762202
2.830000	44.368134
2.840000	-1.892456
2.850000	-40.647529
2.860000	-60.887789
2.870000	-56.036601
2.880000	-37.292762
2.890000	-17.457140
2.900000	-7.051456
2.910000	0.142066
2.920000	9.495046
2.930000	14.683758
2.940000	11.021069
2.950000	2.223974
2.960000	0.546401
2.970000	14.730826
2.980000	41.682585
2.990000	75.206278
3.000000	109.463952
3.010000	142.670814
3.020000	177.569456
3.030000	217.114718
3.040000	254.293450
3.050000	278.194197
3.060000	284.682753
3.070000	286.968419
3.080000	305.405866
3.090000	349.360383
3.100000	413.403344
3.110000	482.040102
3.120000	545.732989
3.130000	600.050049
3.140000	646.729514
3.150000	686.373870
3.160000	727.398214
3.170000	770.995624
3.180000	806.352085
3.190000	812.240638
3.200000	778.321423
3.210000	711.519002
3.220000	623.958005
3.230000	537.143114
3.240000	465.896570
3.250000	426.759300
3.260000	419.777531
3.270000	433.331486
3.280000	457.986207
3.290000	482.554244
3.300000	501.867135
3.310000	510.097911
3.320000	506.752423
3.330000	490.295425
3.340000	462.637537
3.350000	434.507839
3.360000	420.524328
3.370000	423.345382
3.380000	432.032060
3.390000	438.850323
3.400000	437.536064
3.410000	432.042529
3.420000	436.059645
3.430000	459.885218
3.440000	496.194921
3.450000	528.696996
3.460000	548.344101
3.470000	561.879772
3.480000	580.165835
3.490000	607.706608
3.500000	632.604315
3.510000	643.196157
3.520000	643.748884
3.530000	655.060377
3.540000	684.519485
3.550000	711.510799
3.560000	724.645462
3.570000	733.014419
3.580000	762.815617
3.590000	824.472144
3.600000	897.899648
3.610000	944.543701
3.620000	936.343954
3.630000	877.368506
3.640000	800.198456
3.650000	729.503673
3.660000	672.671116
3.670000	633.628495
3.680000	611.797416
3.690000	608.758786
3.700000	617.566683
3.710000	635.901684
3.720000	659.998724
3.730000	684.039192
3.740000	706.108572
3.750000	721.502953
3.760000	733.240372
3.770000	735.944558
3.780000	731.392868
3.790000	724.061436
3.800000	719.884039
3.810000	725.515103
3.820000	738.017140
3.830000	753.634926
3.840000	769.487836
3.850000	788.773424
3.860000	814.292871
3.870000	840.892276
3.880000	862.430838
3.890000	882.373253
3.900000	906.243631
3.910000	939.189119
3.920000	978.370498
3.930000	1015.325629
3.940000	1045.510954
3.950000	1071.484535
3.960000	1101.336221
3.970000	1137.297021
3.980000	1175.146820
3.990000	1210.111075
4.000000	1239.967553
4.010000	1261.592468
4.020000	1280.147541
4.030000	1305.757334
4.040000	1325.266768
4.050000	1317.570201
4.060000	1269.744962
4.070000	1194.790736
4.080000	1111.575712
4.090000	1020.296388
4.100000	933.443251
4.110000	856.452301
4.120000	797.654988
4.130000	749.233371
4.140000	705.876386
4.150000	664.021947
4.160000	621.437391
4.170000	576.815604
4.180000	528.667011
4.190000	484.970958
4.200000	448.551401
4.210000	423.130943
4.220000	406.087090
4.230000	392.954490
4.240000	376.283097
4.250000	349.448710
4.260000	316.844323
4.270000	288.961191
4.280000	268.385231
4.290000	262.488091
4.300000	270.571795
4.310000	283.659952
4.320000	289.082456
4.330000	291.881241
4.340000	299.934894
4.350000	313.080970
4.360000	324.770183
4.370000	338.308025
4.380000	362.955287
4.390000	395.835064
4.400000	425.449895
4.410000	448.049754
4.420000	465.960753
4.430000	488.950966
4.440000	510.760187
4.450000	530.198551
4.460000	557.255952
4.470000	603.114877
4.480000	665.379728
4.490000	720.638619
4.500000	744.499112
4.510000	719.512895
4.520000	652.683607
4.530000	551.385959
4.540000	436.903886
4.550000	327.915925
4.560000	237.773398
4.570000	161.392257
4.580000	87.957304
4.590000	26.586607
4.600000	-5.841075
4.610000	-2.584021
4.620000	15.280136
4.630000	30.250971
4.640000	30.078024
4.650000	17.121481
4.660000	-10.139561
4.670000	-54.683695
4.680000	-102.315194
4.690000	-153.534657
4.700000	-196.796699
4.710000	-228.078773
4.720000	-245.289534
4.730000	-261.336978
4.740000	-289.122107
4.750000	-314.193345
4.760000	-322.963870
4.770000	-320.106872
4.780000	-324.184313
4.790000	-333.973448
4.800000	-337.048228
4.810000	-318.173403
4.820000	-284.982900
4.830000	-258.418034
4.840000	-247.894221
4.850000	-244.955396
4.860000	-232.122751
4.870000	-204.870500
4.880000	-181.088520
4.890000	-165.090828
4.900000	-148.695983
4.910000	-130.673094
4.920000	-129.032644
4.930000	-173.631080
4.940000	-266.970859
4.950000	-390.207283
4.960000	-516.898552
4.970000	-623.802782
4.980000	-697.530640
4.990000	-737.444126
5.000000	-750.193722
5.010000	-746.440945
5.020000	-728.177593
5.030000	-702.797340
5.040000	-682.185342
5.050000	-679.167993
5.060000	-696.176338
5.070000	-725.522775
5.080000	-756.170171
5.090000	-777.223429
5.100000	-780.517092
5.110000	-771.306640
5.120000	-768.580860
5.130000	-777.364050
5.140000	-787.615896
5.150000	-778.738525
5.160000	-749.717526
5.170000	-712.829051
5.180000	-676.822421
5.190000	-640.906391
5.200000	-602.936678
5.210000	-565.677012
5.220000	-532.733101
5.230000	-501.777908
5.240000	-467.868955
5.250000	-429.902671
5.260000	-386.684588
5.270000	-339.714900
5.280000	-290.847959
5.290000	-247.556021
5.300000	-210.673255
5.310000	-175.395172
5.320000	-131.162957
5.330000	-72.595446
5.340000	-20.070331
5.350000	-4.504947
5.360000	-47.967033
5.370000	-137.665694
5.380000	-243.830778
5.390000	-341.520067
5.400000	-414.398547
5.410000	-462.767201
5.420000	-488.985722
5.430000	-501.377814
5.440000	-505.245040
5.450000	-500.654503
5.460000	-487.851972
5.470000	-470.955618
5.480000	-455.142269
5.490000	-447.275151
5.500000	-443.082427
5.510000	-440.949083
5.520000	-439.035725
5.530000	-434.300118
5.540000	-427.011840
5.550000	-414.322957
5.560000	-397.345843
5.570000	-375.354397
5.580000	-350.033421
5.590000	-321.729082
5.600000	-292.405666
5.610000	-259.772267
5.620000	-226.805860
5.630000	-191.816074
5.640000	-157.899269
5.650000	-122.858700
5.660000	-86.010145
5.670000	-46.915270
5.680000	-6.471245
5.690000	33.345353
5.700000	74.732658
5.710000	115.246810
5.720000	156.601610
5.730000	196.457476
5.740000	238.474095
5.750000	281.976670
5.760000	327.336595
5.770000	379.495600
5.780000	435.497961
5.790000	477.962170
5.800000	483.296232
5.810000	442.121774
5.820000	366.474010
5.830000	276.624720
5.840000	189.964618
5.850000	123.781482
5.860000	82.741346
5.870000	60.896565
5.880000	48.160864
5.890000	33.329418
5.900000	9.245693
5.910000	-27.907682
5.920000	-68.645381
5.930000	-97.808288
5.940000	-112.582769
5.950000	-125.764155
5.960000	-150.199337
5.970000	-183.691055
5.980000	-210.457594
5.990000	-216.635535
6.000000	-196.751184
6.010000	-156.957551
6.020000	-113.752098
6.030000	-83.959350
6.040000	-67.050876
6.050000	-59.632110
6.060000	-60.033196
6.070000	-68.656004
6.080000	-76.000401
6.090000	-73.026548
6.100000	-70.366996
6.110000	-65.372608
6.120000	-52.404008
6.130000	-33.752384
6.140000	-18.805749
6.150000	-8.454024
6.160000	8.814732
6.170000	37.145626
6.180000	66.384161
6.190000	91.414036
6.200000	111.955158
6.210000	135.024135
6.220000	164.840152
6.230000	191.249802
6.240000	202.375481
6.250000	182.787479
6.260000	133.945658
6.270000	65.335683
6.280000	-8.147466
6.290000	-75.805774
6.300000	-127.921393
6.310000	-160.307175
6.320000	-182.410833
6.330000	-197.135307
6.340000	-203.902058
6.350000	-197.963309
6.360000	-186.437166
6.370000	-176.469317
6.380000	-171.306133
6.390000	-177.328471
6.400000	-189.153961
6.410000	-202.869463
6.420000	-211.671620
6.430000	-214.102872
6.440000	-205.190653
6.450000	-187.367610
6.460000	-171.410222
6.470000	-158.951479
6.480000	-141.947415
6.490000	-111.209696
6.500000	-68.859785
6.510000	-23.830692
6.520000	15.552157
6.530000	49.895535
6.540000	78.616901
6.550000	106.292043
6.560000	136.668864
6.570000	176.018353
6.580000	219.346136
6.590000	252.375463
6.600000	273.380884
6.610000	293.089820
6.620000	323.074370
6.630000	361.423600
6.640000	396.731602
6.650000	412.733896
6.660000	388.031290
6.670000	322.759928
6.680000	240.050750
6.690000	168.791745
6.700000	125.024924
6.710000	94.396762
6.720000	69.675362
6.730000	48.003854
6.740000	41.690863
6.750000	61.597063
6.760000	99.978711
6.770000	142.829869
6.780000	163.221212
6.790000	161.795234
6.800000	148.813645
6.810000	143.107664
6.820000	149.691671
6.830000	154.691770
6.840000	154.254118
6.850000	149.613429
6.860000	149.494056
6.870000	149.823538
6.880000	148.730311
6.890000	148.702566
6.900000	151.287600
6.910000	156.567862
6.920000	161.158996
6.930000	166.436529
6.940000	158.311551
6.950000	130.316432
6.960000	92.165521
6.970000	71.235147
6.980000	77.629019
6.990000	104.096496
7.000000	135.059944
7.010000	168.986716
7.020000	213.840575
7.030000	254.804653
7.040000	286.972039
7.050000	310.961374
7.060000	347.482283
7.070000	390.367866
7.080000	403.901610
7.090000	371.818009
7.100000	302.378515
7.110000	214.955530
7.120000	120.823350
7.130000	31.082724
7.140000	-35.386992
7.150000	-74.841552
7.160000	-94.303499
7.170000	-112.474523
7.180000	-138.871420
7.190000	-169.413481
7.200000	-190.757256
7.210000	-189.696193
7.220000	-164.016686
7.230000	-114.664337
7.240000	-52.981446
7.250000	9.690730
7.260000	63.380747
7.270000	94.024395
7.280000	89.738751
7.290000	65.087166
7.300000	48.792097
7.310000	64.124731
7.320000	107.427896
7.330000	164.122024
7.340000	220.723077
7.350000	265.781258
7.360000	301.712673
7.370000	336.779522
7.380000	377.019109
7.390000	422.083172
7.400000	471.314255
7.410000	522.371727
7.420000	570.592518
7.430000	604.631389
7.440000	627.566482
7.450000	640.541780
7.460000	653.219837
7.470000	672.767927
7.480000	701.850045
7.490000	730.281279
7.500000	738.109191
7.510000	715.812312
7.520000	665.723186
7.530000	591.669666
7.540000	499.999571
7.550000	408.881536
7.560000	335.929725
7.570000	292.732056
7.580000	271.795914
7.590000	258.551482
7.600000	240.990717
7.610000	223.738067
7.620000	211.172889
7.630000	204.904985
7.640000	194.977795
7.650000	182.757396
7.660000	160.745975
7.670000	121.263484
7.680000	71.542515
7.690000	28.784243
7.700000	12.332119
7.710000	20.902081
7.720000	42.746606
7.730000	63.332444
7.740000	75.501413
7.750000	86.121281
7.760000	100.906222
7.770000	122.220642
7.780000	149.622934
7.790000	180.299649
7.800000	201.632094
7.810000	195.014808
7.820000	169.703588
7.830000	146.413802
7.840000	143.754870
7.850000	153.056654
7.860000	162.783611
7.870000	164.693759
7.880000	160.157168
7.890000	154.994712
7.900000	146.157863
7.910000	119.917701
7.920000	61.139272
7.930000	-19.102875
7.940000	-101.204907
7.950000	-166.140850
7.960000	-224.312519
7.970000	-289.203358
7.980000	-356.052887
7.990000	-405.909881
8.000000	-421.480924
8.010000	-405.354248
8.020000	-365.273144
8.030000	-311.154728
8.040000	-263.110288
8.050000	-235.289204
8.060000	-230.266122
8.070000	-236.401899
8.080000	-243.443128
8.090000	-259.582730
8.100000	-291.968173
8.110000	-328.060504
8.120000	-347.155239
8.130000	-334.906958
8.140000	-297.416441
8.150000	-243.445462
8.160000	-181.695646
8.170000	-123.008103
8.180000	-69.636283
8.190000	-21.917255
8.200000	24.751452
8.210000	69.138955
8.220000	109.786523
8.230000	148.184471
8.240000	183.797147
8.250000	219.219616
8.260000	256.119497
8.270000	293.561792
8.280000	331.090584
8.290000	369.889132
8.300000	418.729746
8.310000	469.818104
8.320000	500.976436
8.330000	488.723759
8.340000	431.931342
8.350000	348.996426
8.360000	264.549973
8.370000	190.881685
8.380000	133.128664
8.390000	91.065136
8.400000	61.010668
8.410000	36.888018
8.420000	17.217861
8.430000	3.698735
8.440000	-1.260678
8.450000	-6.208447
8.460000	-14.412641
8.470000	-26.128735
8.480000	-38.243521
8.490000	-48.740327
8.500000	-59.774272
8.510000	-68.025414
8.520000	-72.332942
8.530000	-70.663547
8.540000	-69.269932
8.550000	-74.323807
8.560000	-88.887516
8.570000	-104.976311
8.580000	-122.215373
8.590000	-134.970527
8.600000	-142.245576
8.610000	-146.664408
8.620000	-174.029278
8.630000	-225.313380
8.640000	-284.790513
8.650000	-330.635782
8.660000	-362.968979
8.670000	-395.352169
8.680000	-413.762186
8.690000	-417.462328
8.700000	-403.573557
8.710000	-390.321266
8.720000	-375.018403
8.730000	-358.881934
8.740000	-350.507950
8.750000	-363.146575
8.760000	-397.988987
8.770000	-455.767987
8.780000	-539.501080
8.790000	-631.356999
8.800000	-705.014795
8.810000	-752.020097
8.820000	-797.646231
8.830000	-848.991760
8.840000	-897.927722
8.850000	-931.308247
8.860000	-958.964308
8.870000	-984.299112
8.880000	-1003.673625
8.890000	-1016.657564
8.900000	-1036.780084
8.910000	-1067.681012
8.920000	-1092.856724
8.930000	-1102.414799
8.940000	-1109.020838
8.950000	-1118.154361
8.960000	-1129.193695
8.970000	-1138.578000
8.980000	-1147.070553
8.990000	-1155.025941
9.000000	-1154.282740
9.010000	-1150.203031
9.020000	-1140.164951
9.030000	-1124.078968
9.040000	-1109.426446
9.050000	-1107.991805
9.060000	-1115.669296
9.070000	-1111.550069
9.080000	-1081.622571
9.090000	-1038.539612
9.100000	-1003.290010
9.110000	-986.190997
9.120000	-975.922383
9.130000	-962.537053
9.140000	-938.585713
9.150000	-898.579114
9.160000	-835.602269
9.170000	-763.368154
9.180000	-712.355035
9.190000	-705.827379
9.200000	-747.410358
9.210000	-813.234078
9.220000	-881.494165
9.230000	-924.313393
9.240000	-932.317902
9.250000	-924.827097
9.260000	-925.174714
9.270000	-941.654672
9.280000	-964.002187
9.290000	-981.836680
9.300000	-996.549856
9.310000	-1004.024524
9.320000	-1004.129205
9.330000	-1002.248011
9.340000	-998.714930
9.350000	-1001.178247
9.360000	-1012.640964
9.370000	-1026.434722
9.380000	-1032.242841
9.390000	-1028.734798
9.400000	-1018.540899
9.410000	-999.038790
9.420000	-961.506918
9.430000	-903.377427
9.440000	-835.861549
9.450000	-773.074492
9.460000	-728.564754
9.470000	-694.729934
9.480000	-661.610959
9.490000	-628.760639
9.500000	-595.003962
9.510000	-555.128708
9.520000	-501.404820
9.530000	-435.537110
9.540000	-362.829628
9.550000	-292.302758
9.560000	-225.246549
9.570000	-163.415998
9.580000	-99.651601
9.590000	-28.212048
9.600000	48.575972
9.610000	114.274964
9.620000	144.437065
9.630000	133.469653
9.640000	91.998962
9.650000	41.350352
9.660000	-5.137421
9.670000	-38.791075
9.680000	-59.639986
9.690000	-70.949972
9.700000	-78.825229
9.710000	-84.102250
9.720000	-78.994271
9.730000	-63.950934
9.740000	-43.514636
9.750000	-31.163876
9.760000	-27.004286
9.770000	-30.046121
9.780000	-33.817489
9.790000	-34.273274
9.800000	-29.641474
9.810000	-19.508328
9.820000	-6.143297
9.830000	9.924635
9.840000	25.344067
9.850000	40.030544
9.860000	54.163165
9.870000	69.472094
9.880000	86.978732
9.890000	106.910247
9.900000	132.468289
9.910000	163.004012
9.920000	193.612711
9.930000	218.094473
9.940000	237.778432
9.950000	256.526207
9.960000	266.246001
9.970000	268.653252
9.980000	275.409622
9.990000	298.784391
10.000000	323.500366
10.010000	337.260183
10.020000	351.994477
10.030000	381.077112
10.040000	414.762610
10.050000	428.190395
10.060000	412.914037
10.070000	376.352473
10.080000	329.748193
10.090000	290.871710
10.100000	260.876270
10.110000	240.730334
10.120000	221.651124
10.130000	203.954503
10.140000	187.432085
10.150000	175.195664
10.160000	169.886619
10.170000	158.067851
10.180000	128.689887
10.190000	83.317182
10.200000	37.875417
10.210000	-16.157499
10.220000	-78.571614
10.230000	-141.266734
10.240000	-189.990989
10.250000	-218.720823
10.260000	-235.771682
10.270000	-239.134834
10.280000	-240.578169
10.290000	-245.519037
10.300000	-246.670404
10.310000	-245.246903
10.320000	-236.065051
10.330000	-227.331201
10.340000	-211.402156
10.350000	-200.121345
10.360000	-200.711895
10.370000	-209.533305
10.380000	-210.973403
10.390000	-191.936489
10.400000	-173.312227
10.410000	-169.973446
10.420000	-179.921335
10.430000	-178.263806
10.440000	-152.881460
10.450000	-107.914413
10.460000	-43.813363
10.470000	34.106722
10.480000	102.557486
10.490000	130.458921
10.500000	97.310205
10.510000	19.264956
10.520000	-74.213681
10.530000	-154.577670
10.540000	-210.764726
10.550000	-243.765520
10.560000	-258.304464
10.570000	-263.610499
10.580000	-265.813431
10.590000	-262.743404
10.600000	-254.639382
10.610000	-246.198566
10.620000	-247.122066
10.630000	-264.288608
10.640000	-294.552823
10.650000	-325.662213
10.660000	-345.291594
10.670000	-351.371836
10.680000	-348.355759
10.690000	-340.387724
10.700000	-326.044707
10.710000	-306.383457
10.720000	-281.704237
10.730000	-257.365363
10.740000	-233.655076
10.750000	-210.651547
10.760000	-187.240445
10.770000	-163.578643
10.780000	-138.459103
10.790000	-110.140921
10.800000	-82.663230
10.810000	-55.660306
10.820000	-28.836365
10.830000	0.190946
10.840000	27.003786
10.850000	53.090775
10.860000	81.547762
10.870000	113.351251
10.880000	145.781778
10.890000	171.633317
10.900000	189.399082
10.910000	193.271594
10.920000	184.069662
10.930000	157.932480
10.940000	115.120741
10.950000	60.308382
10.960000	5.562070
10.970000	-38.282101
10.980000	-69.317084
10.990000	-92.854656
11.000000	-117.166229
11.010000	-142.032036
11.020000	-162.964751
11.030000	-173.498029
11.040000	-180.426694
11.050000	-187.916748
11.060000	-202.187169
11.070000	-223.277668
11.080000	-247.563029
11.090000	-268.589213
11.100000	-275.217359
11.110000	-269.227185
11.120000	-254.167097
11.130000	-234.491131
11.140000	-217.748426
11.150000	-205.360940
11.160000	-195.944337
11.170000	-180.498386
11.180000	-155.109037
11.190000	-122.608776
11.200000	-83.554830
11.210000	-37.670478
11.220000	15.045425
11.230000	73.311510
11.240000	135.024377
11.250000	193.996976
11.260000	246.725801
11.270000	291.402608
11.280000	331.825202
11.290000	370.521067
11.300000	407.300527
11.310000	446.034466
11.320000	485.145071
11.330000	527.611626
11.340000	573.700467
11.350000	624.910866
11.360000	670.608283
11.370000	691.906906
11.380000	677.590337
11.390000	628.656707
11.400000	562.337563
11.410000	493.454174
11.420000	437.140293
11.430000	396.607233
11.440000	373.326941
11.450000	361.128348
11.460000	356.577169
11.470000	358.044166
11.480000	364.552615
11.490000	372.342775
11.500000	375.914056
11.510000	372.707245
11.520000	360.668336
11.530000	337.796981
11.540000	310.838755
11.550000	289.286711
11.560000	277.721791
11.570000	273.817236
11.580000	279.008586
11.590000	297.081296
11.600000	327.678070
11.610000	367.398050
11.620000	410.736478
11.630000	456.454872
11.640000	503.524125
11.650000	554.249827
11.660000	605.024811
11.670000	654.112836
11.680000	700.256697
11.690000	745.715684
11.700000	791.214842
11.710000	836.379606
11.720000	880.569968
11.730000	922.439577
11.740000	961.325233
11.750000	1001.244267
11.760000	1048.151278
11.770000	1102.432712
11.780000	1149.669290
11.790000	1167.331757
11.800000	1141.945281
11.810000	1079.350527
11.820000	998.992200
11.830000	918.096984
11.840000	848.759008
11.850000	798.230999
11.860000	771.587553
11.870000	764.741094
11.880000	767.801592
11.890000	776.668701
11.900000	786.749398
11.910000	790.657263
11.920000	773.746058
11.930000	737.759796
11.940000	699.854159
11.950000	677.265148
11.960000	681.348856
11.970000	704.788770
11.980000	740.580773
11.990000	780.044283
12.000000	820.565979
12.010000	868.059970
12.020000	924.276623
12.030000	987.135456
12.040000	1047.371298
12.050000	1100.962546
12.060000	1150.554920
12.070000	1200.531802
12.080000	1252.802557
12.090000	1301.483876
12.100000	1341.790836
12.110000	1371.514045
12.120000	1397.876095
12.130000	1424.605739
12.140000	1454.028660
12.150000	1487.098184
12.160000	1522.914008
12.170000	1561.999090
12.180000	1607.544570
12.190000	1658.960823
12.200000	1698.198371
12.210000	1699.305351
12.220000	1650.294989
12.230000	1558.440524
12.240000	1448.510680
12.250000	1340.968154
12.260000	1251.116407
12.270000	1182.534367
12.280000	1134.781784
12.290000	1106.167730
12.300000	1091.508040
12.310000	1091.220166
12.320000	1104.634873
12.330000	1133.014671
12.340000	1162.122426
12.350000	1187.906964
12.360000	1207.349138
12.370000	1225.557745
12.380000	1240.960162
12.390000	1253.615494
12.400000	1269.991090
12.410000	1293.734277
12.420000	1325.081230
12.430000	1357.235452
12.440000	1387.250104
12.450000	1409.463775
12.460000	1416.147671
12.470000	1410.456122
12.480000	1396.448273
12.490000	1383.864364
12.500000	1368.109528
12.510000	1343.335581
12.520000	1297.820785
12.530000	1221.543978
12.540000	1114.291187
12.550000	1005.565895
12.560000	932.514163
12.570000	859.118124
12.580000	762.504174
12.590000	630.764402
12.600000	537.793438
12.610000	525.051508
12.620000	563.284710
12.630000	606.689035
12.640000	598.474663
12.650000	552.916909
12.660000	484.727278
12.670000	410.544507
12.680000	329.325390
12.690000	247.252306
12.700000	171.319043
12.710000	106.012822
12.720000	17.600275
12.730000	-159.254620
12.740000	-448.279083
12.750000	-787.896355
12.760000	-1071.309875
12.770000	-1221.896974
12.780000	-1225.455155
12.790000	-1136.362700
12.800000	-1040.631089
12.810000	-997.031064
12.820000	-988.543326
12.830000	-965.888960
12.840000	-908.479499
12.850000	-836.805142
12.860000	-773.366973
12.870000	-732.645387
12.880000	-699.786947
12.890000	-665.447468
12.900000	-625.835843
12.910000	-592.238257
12.920000	-565.804486
12.930000	-535.610424
12.940000	-487.378742
12.950000	-425.983629
12.960000	-358.908877
12.970000	-282.943109
12.980000	-205.417221
12.990000	-130.844373
13.000000	-57.524958
13.010000	26.666278
13.020000	104.335912
13.030000	166.583005
13.040000	220.623535
13.050000	286.918332
13.060000	355.542994
13.070000	395.577684
13.080000	393.892736
13.090000	352.994465
13.100000	285.317290
13.110000	211.815248
13.120000	151.784281
13.130000	122.677681
13.140000	117.229810
13.150000	125.913385
13.160000	139.054135
13.170000	159.562570
13.180000	196.607616
13.190000	244.883681
13.200000	297.200647
13.210000	342.237887
13.220000	395.578389
13.230000	459.933934
13.240000	532.317380
13.250000	600.314026
13.260000	657.114739
13.270000	707.100859
13.280000	759.300561
13.290000	817.247991
13.300000	887.536528
13.310000	977.438412
13.320000	1094.480962
13.330000	1242.325653
13.340000	1434.158658
13.350000	1688.935498
13.360000	1972.730854
13.370000	2218.493744
13.380000	2388.756648
13.390000	2505.587470
13.400000	2596.168055
13.410000	2662.316020
13.420000	2692.914666
13.430000	2698.140005
13.440000	2687.027973
13.450000	2669.335323
13.460000	2648.492766
13.470000	2626.227648
13.480000	2610.342070
13.490000	2588.766010
13.500000	2557.246236
13.510000	2498.635108
13.520000	2418.912818
13.530000	2330.219411
13.540000	2246.949925
13.550000	2178.486976
13.560000	2124.991414
13.570000	2084.110013
13.580000	2053.060088
13.590000	2022.074873
13.600000	1993.188140
13.610000	1969.736225
13.620000	1951.665731
13.630000	1932.404446
13.640000	1908.843519
13.650000	1884.447304
13.660000	1867.390046
13.670000	1851.472360
13.680000	1816.585911
13.690000	1772.599810
13.700000	1752.531251
13.710000	1764.343508
13.720000	1715.551581
13.730000	1558.894767
13.740000	1307.420029
13.750000	1022.259695
13.760000	755.945563
13.770000	594.730382
13.780000	600.416178
13.790000	717.891284
13.800000	876.186986
13.810000	1015.091223
13.820000	1127.445412
13.830000	1122.068027
13.840000	930.439453
13.850000	520.818277
13.860000	-154.605824
13.870000	-1090.281047
13.880000	-2323.263436
13.890000	-3848.036578
13.900000	-5837.276380
13.910000	-7841.949825
13.920000	-9556.084238
13.930000	-11383.984245
13.940000	-13592.474321
13.950000	-15687.740239
13.960000	-17320.789713
13.970000	-18518.720858
13.980000	-19441.278225
13.990000	-20133.996484
14.000000	-20437.752424
14.010000	-20134.115117
14.020000	-19234.196353
14.030000	-17917.165282
14.040000	-16266.048337
14.050000	-14302.262546
14.060000	-12178.893404
14.070000	-10024.432156
14.080000	-8042.628620
14.090000	-6210.982254
14.100000	-4527.517144
14.110000	-2894.794925
14.120000	-1319.778426
14.130000	55.471664
14.140000	1279.172639
14.150000	2304.210396
14.160000	3180.006820
14.170000	3730.333237
14.180000	3920.902283
14.190000	3661.641827
14.200000	3018.566263
14.210000	1867.231291
14.220000	179.118359
14.230000	-2221.094184
14.240000	-5476.490656
14.250000	-5933.128508
14.260000	4096.463444
14.270000	10700.519599
14.280000	11009.191923
14.290000	10949.450708
14.300000	10785.538578
14.310000	10520.360380
14.320000	10249.154549
14.330000	9891.804698
14.340000	9598.085361
14.350000	9286.297110
14.360000	9076.253865
14.370000	8697.067623
14.380000	7801.609366
14.390000	5570.506716
14.400000	2201.815153
14.410000	-1492.295833
14.420000	-5196.662944
14.430000	-8655.145381
14.440000	-11537.186869
14.450000	-13636.705973
14.460000	-14788.194944
14.470000	-15180.848611
14.480000	-14830.995576
14.490000	-14016.903449
14.500000	-12919.508523
14.510000	-11626.470492
14.520000	-10047.307029
14.530000	-8221.334871
14.540000	-6425.339643
14.550000	-4448.323960
14.560000	-2454.190425
14.570000	-494.317753
14.580000	1051.207145
14.590000	2112.567690
14.600000	2696.071642
14.610000	2740.162266
14.620000	2269.113023
14.630000	1138.592519
14.640000	-1003.205929
14.650000	-3966.381019
14.660000	-5143.619519
14.670000	-5175.013331
14.680000	2290.235446
14.690000	6927.126075
14.700000	7494.377450
14.710000	7813.686773
14.720000	8040.853256
14.730000	7554.476283
14.740000	6346.349943
14.750000	3874.422198
14.760000	592.627873
14.770000	-2822.479030
14.780000	-6855.825657
14.790000	-10347.629100
14.800000	-11746.748781
14.810000	-12298.039336
14.820000	-11965.836225
14.830000	-11114.856488
14.840000	-9832.468918
14.850000	-8290.671918
14.860000	-6804.866846
14.870000	-5348.404616
14.880000	-3812.837011
14.890000	-2285.396665
14.900000	-809.241551
14.910000	663.472641
14.920000	2105.643987
14.930000	3387.403850
14.940000	4413.951582
14.950000	5206.499731
14.960000	5822.863588
14.970000	6269.521652
14.980000	6446.551660
14.990000	6269.321769
15.000000	5658.993031
15.010000	4516.426655
15.020000	2450.855841
15.030000	-2330.841214
15.040000	1082.860683
15.050000	12194.552829
15.060000	13037.497496
15.070000	13189.383993
15.080000	12730.777591
15.090000	12553.362475
15.100000	12338.480874
15.110000	12127.076835
15.120000	11807.179678
15.130000	11438.010797
15.140000	10984.703293
15.150000	10529.015392
15.160000	10058.385176
15.170000	9629.293888
15.180000	9209.574726
15.190000	8820.470371
15.200000	8437.389772
15.210000	8086.537780
15.220000	7760.864869
15.230000	7478.759700
15.240000	7212.297277
15.250000	6963.815745
15.260000	6706.065869
15.270000	6447.052464
15.280000	6169.849521
15.290000	5910.852147
15.300000	5665.603758
15.310000	5430.068675
15.320000	5187.738958
15.330000	4975.513269
15.340000	4824.271804
15.350000	4715.903578
15.360000	4590.770262
15.370000	4432.157484
15.380000	4268.136771
15.390000	4143.869348
15.400000	4045.083677
15.410000	3941.948031
15.420000	3809.118362
15.430000	3671.572918
15.440000	3543.196414
15.450000	3433.592372
15.460000	3315.578892
15.470000	3194.104646
15.480000	3089.407021
15.490000	3019.346454
15.500000	2975.899168
15.510000	2908.873251
15.520000	2783.165911
15.530000	2581.514525
15.540000	2324.267071
15.550000	2047.930255
15.560000	1783.749465
15.570000	1556.054936
15.580000	1370.908540
15.590000	1221.202539
15.600000	1089.430376
15.610000	971.777955
15.620000	876.374095
15.630000	811.408156
15.640000	762.977284
15.650000	703.051895
15.660000	626.360840
15.670000	536.436522
15.680000	440.469997
15.690000	331.162410
15.700000	219.007918
15.710000	119.280153
15.720000	41.908722
15.730000	-15.927400
15.740000	-57.817362
15.750000	-87.093530
15.760000	-112.853067
15.770000	-144.221361
15.780000	-176.480210
15.790000	-192.278458
15.800000	-192.121528
15.810000	-185.994557
15.820000	-178.716120
15.830000	-165.987576
15.840000	-145.619631
15.850000	-113.947498
15.860000	-67.495779
15.870000	-15.916754
15.880000	14.608237
15.890000	3.487078
15.900000	-44.528227
15.910000	-104.698778
15.920000	-184.398634
15.930000	-302.897540
15.940000	-477.244334
15.950000	-665.249482
15.960000	-830.088473
15.970000	-972.355721
15.980000	-1108.629182
15.990000	-1241.076192
16.000000	-1349.095638
16.010000	-1449.221403
16.020000	-1558.219933
16.030000	-1657.594742
16.040000	-1712.960006
16.050000	-1720.713143
16.060000	-1724.825677
16.070000	-1762.475558
16.080000	-1829.240826
16.090000	-1898.508479
16.100000	-1950.005887
16.110000	-1983.931152
16.120000	-2003.112718
16.130000	-2019.715019
16.140000	-2045.220890
16.150000	-2086.490384
16.160000	-2128.607749
16.170000	-2150.588532
16.180000	-2148.047261
16.190000	-2125.385474
16.200000	-2095.519066
16.210000	-2068.851995
16.220000	-2051.991145
16.230000	-2048.321245
16.240000	-2055.459827
16.250000	-2058.101629
16.260000	-2043.616656
16.270000	-2009.591699
16.280000	-1972.173566
16.290000	-1942.083438
16.300000	-1917.713973
16.310000	-1892.579915
16.320000	-1850.580201
16.330000	-1792.809937
16.340000	-1742.861942
16.350000	-1734.422130
16.360000	-1777.433639
16.370000	-1846.292563
16.380000	-1918.035822
16.390000	-1987.235074
16.400000	-2053.342666
16.410000	-2105.507869
16.420000	-2134.011850
16.430000	-2139.502336
16.440000	-2138.083974
16.450000	-2138.504359
16.460000	-2140.827273
16.470000	-2138.517196
16.480000	-2132.286655
16.490000	-2128.910081
16.500000	-2124.748041
16.510000	-2122.016851
16.520000	-2120.567915
16.530000	-2120.155508
16.540000	-2116.074852
16.550000	-2117.365032
16.560000	-2130.274372
16.570000	-2140.552284
16.580000	-2133.841398
16.590000	-2109.144453
16.600000	-2075.805459
16.610000	-2031.072429
16.620000	-1972.473034
16.630000	-1911.408291
16.640000	-1855.500370
16.650000	-1802.086390
16.660000	-1743.551592
16.670000	-1678.486007
16.680000	-1612.994907
16.690000	-1554.260332
16.700000	-1498.780921
16.710000	-1442.405194
16.720000	-1384.616175
16.730000	-1328.599743
16.740000	-1267.797770
16.750000	-1198.843069
16.760000	-1140.413492
16.770000	-1127.839272
16.780000	-1171.334256
16.790000	-1251.461607
16.800000	-1333.587723
16.810000	-1390.478906
16.820000	-1417.277475
16.830000	-1419.566557
16.840000	-1411.365580
16.850000	-1400.345450
16.860000	-1388.145953
16.870000	-1369.480967
16.880000	-1340.639771
16.890000	-1305.011897
16.900000	-1270.856329
16.910000	-1242.909298
16.920000	-1224.110869
16.930000	-1211.165917
16.940000	-1200.741739
16.950000	-1188.462853
16.960000	-1174.428151
16.970000	-1154.123771
16.980000	-1127.503544
16.990000	-1095.497464
17.000000	-1057.618515
17.010000	-1015.587394
17.020000	-970.107563
17.030000	-925.397204
17.040000	-882.631831
17.050000	-839.240312
17.060000	-792.866949
17.070000	-744.469446
17.080000	-694.143287
17.090000	-642.409992
17.100000	-581.105997
17.110000	-519.776051
17.120000	-460.759101
17.130000	-403.511014
17.140000	-331.745761
17.150000	-246.002283
17.160000	-170.173289
17.170000	-129.874971
17.180000	-138.610862
17.190000	-178.371045
17.200000	-230.757268
17.210000	-275.572034
17.220000	-305.649277
17.230000	-318.161372
17.240000	-318.941461
17.250000	-315.464893
17.260000	-306.920506
17.270000	-286.795655
17.280000	-256.296934
17.290000	-224.524221
17.300000	-200.047973
17.310000	-180.264771
17.320000	-162.508118
17.330000	-146.387454
17.340000	-131.343619
17.350000	-114.212071
17.360000	-91.888309
17.370000	-67.763484
17.380000	-40.127878
17.390000	-10.031299
17.400000	23.596288
17.410000	57.313141
17.420000	92.625425
17.430000	129.946028
17.440000	166.604278
17.450000	201.541595
17.460000	237.217778
17.470000	275.427050
17.480000	317.454996
17.490000	362.933138
17.500000	410.314213
17.510000	458.064560
17.520000	506.136196
17.530000	555.490827
17.540000	614.938525
17.550000	681.175997
17.560000	739.668891
17.570000	766.126627
17.580000	748.391541
17.590000	698.101605
17.600000	636.432740
17.610000	582.028671
17.620000	540.062669
17.630000	509.898856
17.640000	491.319498
17.650000	477.710566
17.660000	464.541146
17.670000	457.843722
17.680000	463.053584
17.690000	476.577839
17.700000	481.154228
17.710000	473.308900
17.720000	454.226728
17.730000	435.026288
17.740000	422.914173
17.750000	424.033088
17.760000	430.856384
17.770000	431.988210
17.780000	419.767772
17.790000	405.621308
17.800000	402.642589
17.810000	411.178206
17.820000	427.799141
17.830000	446.018766
17.840000	456.907663
17.850000	458.169510
17.860000	457.335091
17.870000	467.962001
17.880000	491.019747
17.890000	517.351755
17.900000	543.010390
17.910000	567.375596
17.920000	594.304875
17.930000	624.348492
17.940000	651.539522
17.950000	677.299663
17.960000	707.076459
17.970000	733.841045
17.980000	736.532574
17.990000	698.017501
18.000000	616.989681
18.010000	498.836424
18.020000	361.772660
18.030000	232.970475
18.040000	139.846721
18.050000	86.664558
18.060000	59.828571
18.070000	41.303162
18.080000	26.804786
18.090000	14.237581
18.100000	-2.941529
18.110000	-29.199403
18.120000	-64.385725
18.130000	-106.007303
18.140000	-156.888666
18.150000	-213.174452
18.160000	-258.735614
18.170000	-286.410736
18.180000	-306.007124
18.190000	-325.352991
18.200000	-345.304341
18.210000	-360.322654
18.220000	-369.325547
18.230000	-375.348819
18.240000	-376.043929
18.250000	-372.763889
18.260000	-368.478928
18.270000	-363.550736
18.280000	-358.627086
18.290000	-357.725975
18.300000	-358.470241
18.310000	-355.271716
18.320000	-344.698730
18.330000	-332.221403
18.340000	-322.304038
18.350000	-312.197609
18.360000	-306.642995
18.370000	-303.534836
18.380000	-298.355227
18.390000	-277.894832
18.400000	-246.829965
18.410000	-230.023725
18.420000	-253.354345
18.430000	-331.502118
18.440000	-445.834217
18.450000	-574.017400
18.460000	-691.688963
18.470000	-786.278913
18.480000	-847.597476
18.490000	-869.264838
18.500000	-846.223617
18.510000	-773.297807
18.520000	-655.257815
18.530000	-516.431930
18.540000	-392.036047
18.550000	-302.907382
18.560000	-256.157420
18.570000	-250.741287
18.580000	-277.303506
18.590000	-310.913299
18.600000	-330.173526
18.610000	-341.542723
18.620000	-356.103826
18.630000	-365.165420
18.640000	-359.747589
18.650000	-338.523393
18.660000	-308.461726
18.670000	-267.905259
18.680000	-224.248305
18.690000	-185.670189
18.700000	-152.728181
18.710000	-115.788014
18.720000	-73.277744
18.730000	-27.296788
18.740000	18.788362
18.750000	56.800387
18.760000	80.478908
18.770000	94.881169
18.780000	112.141426
18.790000	139.902162
18.800000	181.076850
18.810000	227.177745
18.820000	279.658828
18.830000	327.371305
18.840000	356.185217
18.850000	345.499697
18.860000	289.036887
18.870000	200.635954
18.880000	102.196642
18.890000	11.714096
18.900000	-63.720946
18.910000	-115.584554
18.920000	-146.382894
18.930000	-155.588943
18.940000	-154.123691
18.950000	-145.954974
18.960000	-132.571754
18.970000	-117.373662
18.980000	-104.402320
18.990000	-96.503135
19.000000	-94.274117
19.010000	-100.018024
19.020000	-107.837453
19.030000	-114.253613
19.040000	-113.107480
19.050000	-116.921224
19.060000	-125.389649
19.070000	-131.952356
19.080000	-129.384018
19.090000	-117.048936
19.100000	-99.105561
19.110000	-67.826869
19.120000	-26.237287
19.130000	20.675832
19.140000	65.242991
19.150000	108.154209
19.160000	148.672076
19.170000	182.910009
19.180000	204.714351
19.190000	218.313752
19.200000	230.048528
19.210000	246.002901
19.220000	265.316413
19.230000	284.972248
19.240000	315.574500
19.250000	355.861797
19.260000	389.410401
19.270000	392.350352
19.280000	347.216680
19.290000	260.858465
19.300000	151.674115
19.310000	47.010582
19.320000	-32.266839
19.330000	-91.957806
19.340000	-135.916397
19.350000	-172.652944
19.360000	-193.900516
19.370000	-200.085947
19.380000	-190.261525
19.390000	-175.933833
19.400000	-173.349571
19.410000	-186.461979
19.420000	-211.797919
19.430000	-233.670617
19.440000	-247.323663
19.450000	-252.605950
19.460000	-252.906512
19.470000	-249.917335
19.480000	-239.186532
19.490000	-220.955655
19.500000	-199.859323
19.510000	-181.376994
19.520000	-163.224817
19.530000	-141.507926
19.540000	-119.657774
19.550000	-99.013775
19.560000	-78.130400
19.570000	-53.895686
19.580000	-28.665336
19.590000	-0.813942
19.600000	32.088004
19.610000	70.214355
19.620000	110.785995
19.630000	147.519134
19.640000	178.782888
19.650000	202.107745
19.660000	215.066041
19.670000	232.028651
19.680000	256.605806
19.690000	286.887235
19.700000	297.366945
19.710000	271.055396
19.720000	214.813111
19.730000	145.871566
19.740000	85.556713
19.750000	38.929250
19.760000	4.568701
19.770000	-18.057778
19.780000	-37.822703
19.790000	-63.090566
19.800000	-98.918849
19.810000	-136.465674
19.820000	-180.098441
19.830000	-239.569405
19.840000	-310.954303
19.850000	-376.014320
19.860000	-412.847269
19.870000	-426.914888
19.880000	-429.804214
19.890000	-428.850926
19.900000	-417.436636
19.910000	-390.505044
19.920000	-347.796004
19.930000	-298.565720
19.940000	-261.227590
19.950000	-239.633445
19.960000	-225.673339
19.970000	-200.719272
19.980000	-164.215688
19.990000	-128.888510
20.000000	-96.441332
20.010000	-73.117086
20.020000	-51.342533
20.030000	-32.082582
20.040000	-12.947957
20.050000	11.580450
20.060000	41.050184
20.070000	71.186317
20.080000	96.331230
20.090000	125.118171
20.100000	164.895516
20.110000	199.271624
20.120000	212.414842
20.130000	192.055059
20.140000	139.257691
20.150000	62.813305
20.160000	-16.245548
20.170000	-75.805166
20.180000	-118.864086
20.190000	-148.470071
20.200000	-167.862756
20.210000	-172.827412
20.220000	-168.266013
20.230000	-161.236860
20.240000	-153.701426
20.250000	-150.032387
20.260000	-153.179018
20.270000	-163.199361
20.280000	-178.364390
20.290000	-188.388821
20.300000	-186.939900
20.310000	-170.298034
20.320000	-138.906047
20.330000	-92.584704
20.340000	-39.942118
20.350000	6.405202
20.360000	43.335515
20.370000	74.367684
20.380000	109.919812
20.390000	144.908680
20.400000	170.782378
20.410000	183.750592
20.420000	192.634128
20.430000	211.895920
20.440000	245.745674
20.450000	286.296016
20.460000	318.458806
20.470000	336.342770
20.480000	347.496949
20.490000	369.371511
20.500000	411.133832
20.510000	465.977896
20.520000	515.694266
20.530000	542.540456
20.540000	534.893085
20.550000	487.408523
20.560000	408.083483
20.570000	318.602467
20.580000	249.586713
20.590000	210.025285
20.600000	195.006722
20.610000	187.369416
20.620000	176.399396
20.630000	164.036588
20.640000	158.430741
20.650000	165.652994
20.660000	174.034967
20.670000	177.238971
20.680000	168.593197
20.690000	149.134365
20.700000	122.446658
20.710000	100.340577
20.720000	94.588225
20.730000	98.785063
20.740000	99.665798
20.750000	93.878278
20.760000	89.395966
20.770000	97.602331
20.780000	118.716926
20.790000	146.597015
20.800000	180.006115
20.810000	209.189705
20.820000	227.592141
20.830000	235.088086
20.840000	240.824975
20.850000	260.291869
20.860000	295.308225
20.870000	336.753539
20.880000	377.417963
20.890000	415.852240
20.900000	461.177911
20.910000	518.561222
20.920000	580.858491
20.930000	629.192378
20.940000	635.133861
20.950000	587.826109
20.960000	498.089698
20.970000	394.128459
20.980000	301.993774
20.990000	229.668606
21.000000	167.470022
21.010000	111.846222
21.020000	67.924003
21.030000	46.660346
21.040000	53.316100
21.050000	67.357314
21.060000	76.016483
21.070000	69.348922
21.080000	55.386390
21.090000	44.634069
21.100000	37.682408
21.110000	24.844259
21.120000	2.281022
21.130000	-23.965285
21.140000	-31.789856
21.150000	-23.889965
21.160000	-17.614730
21.170000	-17.493258
21.180000	-15.786472
21.190000	0.203100
21.200000	13.245551
21.210000	19.221357
21.220000	21.918444
21.230000	41.904783
21.240000	82.496298
21.250000	142.862427
21.260000	214.338168
21.270000	272.061045
21.280000	302.830791
21.290000	311.594821
21.300000	318.985063
21.310000	320.344298
21.320000	320.116079
21.330000	313.352980
21.340000	301.215450
21.350000	279.966372
21.360000	248.941336
21.370000	202.851715
21.380000	116.563942
21.390000	0.118133
21.400000	-120.150990
21.410000	-210.644553
21.420000	-273.011883
21.430000	-311.797766
21.440000	-336.268412
21.450000	-356.335512
21.460000	-387.590054
21.470000	-424.197346
21.480000	-447.927339
21.490000	-452.475036
21.500000	-443.012662
21.510000	-438.507207
21.520000	-448.789560
21.530000	-474.230132
21.540000	-499.573681
21.550000	-505.324951
21.560000	-496.141074
21.570000	-493.850596
21.580000	-500.036580
21.590000	-504.394028
21.600000	-492.638313
21.610000	-476.726740
21.620000	-472.634997
21.630000	-475.051608
21.640000	-472.331614
21.650000	-454.097319
21.660000	-419.104045
21.670000	-381.569592
21.680000	-358.267614
21.690000	-353.057202
21.700000	-359.453603
21.710000	-365.915107
21.720000	-366.706408
21.730000	-358.497166
21.740000	-337.341751
21.750000	-306.817460
21.760000	-272.700713
21.770000	-256.231144
21.780000	-279.780376
21.790000	-347.980364
21.800000	-438.503585
21.810000	-525.103078
21.820000	-589.299050
21.830000	-621.969075
21.840000	-634.869433
21.850000	-643.228836
21.860000	-653.466496
21.870000	-653.154354
21.880000	-628.778074
21.890000	-601.893664
21.900000	-596.814662
21.910000	-619.299411
21.920000	-647.492767
21.930000	-662.764665
21.940000	-662.933315
21.950000	-652.632519
21.960000	-640.100922
21.970000	-628.202710
21.980000	-625.668342
21.990000	-626.115024
22.000000	-623.954839
22.010000	-617.421317
22.020000	-615.988946
22.030000	-623.428597
22.040000	-631.707198
22.050000	-626.802568
22.060000	-604.502103
22.070000	-566.575915
22.080000	-527.381087
22.090000	-507.415529
22.100000	-503.577878
22.110000	-500.269996
22.120000	-480.486529
22.130000	-457.924395
22.140000	-450.789714
22.150000	-453.562316
22.160000	-447.104056
22.170000	-417.262359
22.180000	-378.211158
22.190000	-358.383052
22.200000	-374.667906
22.210000	-429.511948
22.220000	-509.127794
22.230000	-594.340292
22.240000	-666.971183
22.250000	-713.227957
22.260000	-734.235997
22.270000	-733.168205
22.280000	-717.225333
22.290000	-686.468798
22.300000	-639.590689
22.310000	-579.828144
22.320000	-525.042297
22.330000	-492.899520
22.340000	-482.822838
22.350000	-482.317009
22.360000	-490.346839
22.370000	-508.787608
22.380000	-531.894825
22.390000	-547.618929
22.400000	-547.497159
22.410000	-538.537025
22.420000	-528.813158
22.430000	-525.830738
22.440000	-523.134439
22.450000	-513.833320
22.460000	-494.174173
22.470000	-466.228169
22.480000	-428.914618
22.490000	-381.666891
22.500000	-330.381702
22.510000	-288.501647
22.520000	-258.527126
22.530000	-231.011736
22.540000	-198.051348
22.550000	-158.247335
22.560000	-115.965458
22.570000	-73.517761
22.580000	-28.907946
22.590000	19.504215
22.600000	79.794211
22.610000	146.115179
22.620000	200.423687
22.630000	216.330962
22.640000	176.706588
22.650000	96.596706
22.660000	6.660878
22.670000	-67.188497
22.680000	-122.152639
22.690000	-163.366228
22.700000	-194.332159
22.710000	-220.252191
22.720000	-246.883182
22.730000	-272.153041
22.740000	-290.460646
22.750000	-299.097711
22.760000	-302.092226
22.770000	-307.421917
22.780000	-323.092306
22.790000	-348.758010
22.800000	-375.102304
22.810000	-390.121010
22.820000	-391.506282
22.830000	-386.544104
22.840000	-379.602379
22.850000	-373.328994
22.860000	-364.047346
22.870000	-353.160460
22.880000	-357.232960
22.890000	-380.322958
22.900000	-409.069157
22.910000	-419.153497
22.920000	-404.653718
22.930000	-377.731246
22.940000	-345.588567
22.950000	-312.665012
22.960000	-278.874287
22.970000	-243.961308
22.980000	-208.525039
22.990000	-174.958240
23.000000	-145.203284
23.010000	-115.300712
23.020000	-81.577083
23.030000	-41.340333
23.040000	-11.365153
23.050000	-17.766093
23.060000	-71.137433
23.070000	-151.467646
23.080000	-231.917161
23.090000	-302.909164
23.100000	-355.724812
23.110000	-385.051951
23.120000	-397.924630
23.130000	-419.602729
23.140000	-447.405312
23.150000	-464.806090
23.160000	-457.582600
23.170000	-442.785289
23.180000	-446.139989
23.190000	-470.056381
23.200000	-504.351715
23.210000	-530.660242
23.220000	-554.316767
23.230000	-576.607528
23.240000	-595.292990
23.250000	-600.888746
23.260000	-587.632905
23.270000	-552.530666
23.280000	-490.987827
23.290000	-396.519753
23.300000	-284.421217
23.310000	-189.915179
23.320000	-130.156204
23.330000	-100.267599
23.340000	-68.835424
23.350000	-26.697871
23.360000	30.455683
23.370000	98.833642
23.380000	170.720439
23.390000	240.021085
23.400000	301.305552
23.410000	346.520239
23.420000	378.239155
23.430000	411.707210
23.440000	438.093360
23.450000	438.854612
23.460000	400.615906
23.470000	332.718926
23.480000	254.821676
23.490000	181.223779
23.500000	130.695345
23.510000	109.349855
23.520000	110.857852
23.530000	128.799056
23.540000	153.334706
23.550000	184.265494
23.560000	217.458544
23.570000	254.071275
23.580000	286.884544
23.590000	310.541029
23.600000	327.658327
23.610000	336.993075
23.620000	344.779228
23.630000	350.419957
23.640000	357.238171
23.650000	367.170651
23.660000	380.353463
23.670000	398.921803
23.680000	419.783035
23.690000	441.673620
23.700000	464.545250
23.710000	489.424691
23.720000	516.635496
23.730000	547.174565
23.740000	582.056399
23.750000	622.255255
23.760000	662.457939
23.770000	700.342377
23.780000	736.198511
23.790000	771.097137
23.800000	805.937738
23.810000	838.509441
23.820000	869.350891
23.830000	900.592775
23.840000	939.110681
23.850000	984.322839
23.860000	1020.496335
23.870000	1027.709137
23.880000	994.239174
23.890000	930.825371
23.900000	854.668249
23.910000	783.946351
23.920000	729.078302
23.930000	689.038415
23.940000	660.150479
23.950000	637.129014
23.960000	621.243828
23.970000	613.889998
23.980000	615.337666
23.990000	618.969176
24.000000	619.438972
24.010000	614.059823
24.020000	604.556754
24.030000	592.822138
24.040000	580.010564
24.050000	569.595721
24.060000	565.470598
24.070000	568.365860
24.080000	576.596071
24.090000	587.472147
24.100000	599.062689
24.110000	612.592991
24.120000	626.862014
24.130000	644.396926
24.140000	663.990747
24.150000	684.540953
24.160000	705.795087
24.170000	726.355239
24.180000	746.945456
24.190000	768.510454
24.200000	791.768981
24.210000	817.005033
24.220000	840.254838
24.230000	863.857695
24.240000	888.744365
24.250000	917.723146
24.260000	952.572115
24.270000	993.258092
24.280000	1028.042264
24.290000	1039.451910
24.300000	1015.535596
24.310000	958.358971
24.320000	884.744255
24.330000	810.939299
24.340000	749.283731
24.350000	700.830212
24.360000	665.829288
24.370000	641.053214
24.380000	622.714971
24.390000	611.630539
24.400000	607.940492
24.410000	608.874904
24.420000	605.490764
24.430000	594.142192
24.440000	578.068318
24.450000	560.417597
24.460000	543.986595
24.470000	532.035951
24.480000	526.242177
24.490000	526.992400
24.500000	529.491808
24.510000	532.299648
24.520000	538.094307
24.530000	548.612498
24.540000	564.702518
24.550000	581.918919
24.560000	600.665447
24.570000	619.896045
24.580000	641.310553
24.590000	662.870817
24.600000	683.967439
24.610000	707.529767
24.620000	732.621432
24.630000	759.198823
24.640000	783.272164
24.650000	805.554962
24.660000	825.928024
24.670000	845.922959
24.680000	868.595298
24.690000	896.296150
24.700000	931.937803
24.710000	964.972619
24.720000	979.606028
24.730000	961.325953
24.740000	907.647166
24.750000	827.717651
24.760000	716.656045
24.770000	581.147244
24.780000	441.708895
24.790000	330.949202
24.800000	263.050134
24.810000	201.617754
24.820000	133.126188
24.830000	62.675972
24.840000	16.264647
24.850000	-4.661733
24.860000	-21.989637
24.870000	-55.321993
24.880000	-103.515937
24.890000	-146.258764
24.900000	-167.382951
24.910000	-173.587837
24.920000	-182.944193
24.930000	-202.884183
24.940000	-225.125597
24.950000	-237.834260
24.960000	-236.657866
24.970000	-235.498281
24.980000	-249.524246
24.990000	-273.771127
25.000000	-303.388552
25.010000	-326.689628
25.020000	-353.977841
25.030000	-380.565021
25.040000	-404.573063
25.050000	-414.412101
25.060000	-413.541458
25.070000	-407.597141
25.080000	-405.517710
25.090000	-408.092051
25.100000	-406.132281
25.110000	-387.244007
25.120000	-353.118186
25.130000	-331.132621
25.140000	-339.745824
25.150000	-382.981274
25.160000	-443.982586
25.170000	-503.489914
25.180000	-550.241351
25.190000	-595.727861
25.200000	-646.486767
25.210000	-696.932873
25.220000	-730.368791
25.230000	-753.870408
25.240000	-775.587753
25.250000	-790.439010
25.260000	-795.145828
25.270000	-804.725433
25.280000	-828.689761
25.290000	-860.301609
25.300000	-886.216661
25.310000	-910.259446
25.320000	-937.414639
25.330000	-959.850021
25.340000	-977.635637
25.350000	-993.449111
25.360000	-1006.515203
25.370000	-1005.353540
25.380000	-986.752238
25.390000	-966.979578
25.400000	-958.313090
25.410000	-955.893326
25.420000	-945.850633
25.430000	-928.848416
25.440000	-914.748181
25.450000	-904.781186
25.460000	-890.286581
25.470000	-873.745879
25.480000	-862.172037
25.490000	-851.013372
25.500000	-830.043085
25.510000	-803.655478
25.520000	-782.933562
25.530000	-764.926697
25.540000	-733.455289
25.550000	-688.576684
25.560000	-648.026328
25.570000	-631.231989
25.580000	-655.926622
25.590000	-720.501319
25.600000	-807.450305
25.610000	-887.739265
25.620000	-949.688491
25.630000	-1001.699088
25.640000	-1044.238156
25.650000	-1072.644639
25.660000	-1081.786210
25.670000	-1071.937920
25.680000	-1066.731147
25.690000	-1075.524583
25.700000	-1098.984635
25.710000	-1117.387504
25.720000	-1123.939059
25.730000	-1123.280412
25.740000	-1124.905206
25.750000	-1132.488875
25.760000	-1142.850525
25.770000	-1151.023566
25.780000	-1152.126998
25.790000	-1147.238655
25.800000	-1134.057997
25.810000	-1120.478647
25.820000	-1113.984534
25.830000	-1114.694826
25.840000	-1120.902213
25.850000	-1134.917939
25.860000	-1159.483367
25.870000	-1188.445307
25.880000	-1222.745743
25.890000	-1257.952690
25.900000	-1293.346126
25.910000	-1319.764395
25.920000	-1330.948339
25.930000	-1322.909205
25.940000	-1299.899729
25.950000	-1268.720549
25.960000	-1232.834474
25.970000	-1199.534582
25.980000	-1167.069517
25.990000	-1149.383159
26.000000	-1149.933486
26.010000	-1175.565045
26.020000	-1211.394727
26.030000	-1227.361795
26.040000	-1201.868689
26.050000	-1136.878986
26.060000	-1045.361519
26.070000	-939.381909
26.080000	-830.173172
26.090000	-727.869146
26.100000	-636.287696
26.110000	-546.641528
26.120000	-456.071143
26.130000	-370.757586
26.140000	-298.510777
26.150000	-239.169664
26.160000	-192.935515
26.170000	-152.210624
26.180000	-110.346021
26.190000	-68.589293
26.200000	-31.414265
26.210000	-2.948745
26.220000	21.560627
26.230000	44.705085
26.240000	71.896298
26.250000	106.707375
26.260000	151.248604
26.270000	199.374788
26.280000	244.955891
26.290000	282.733342
26.300000	317.379676
26.310000	353.782179
26.320000	392.815939
26.330000	433.182345
26.340000	473.610042
26.350000	514.946561
26.360000	555.756566
26.370000	598.079470
26.380000	649.277314
26.390000	708.884268
26.400000	759.445236
26.410000	779.371994
26.420000	756.667554
26.430000	704.958586
26.440000	645.606701
26.450000	592.219892
26.460000	550.554046
26.470000	520.161006
26.480000	503.205830
26.490000	496.117370
26.500000	497.896089
26.510000	508.441350
26.520000	522.938950
26.530000	534.793050
26.540000	537.347985
26.550000	534.540572
26.560000	525.778364
26.570000	515.001377
26.580000	502.901036
26.590000	495.177531
26.600000	492.712440
26.610000	494.383855
26.620000	500.229735
26.630000	507.285000
26.640000	517.129613
26.650000	529.551682
26.660000	547.074483
26.670000	567.175672
26.680000	588.728033
26.690000	610.504581
26.700000	631.755094
26.710000	652.207343
26.720000	673.493595
26.730000	695.946407
26.740000	720.273323
26.750000	747.058987
26.760000	779.434216
26.770000	812.524064
26.780000	831.943785
26.790000	823.364392
26.800000	780.851807
26.810000	719.304295
26.820000	653.134475
26.830000	595.617338
26.840000	548.762745
26.850000	514.640697
26.860000	491.424068
26.870000	476.037987
26.880000	470.142687
26.890000	473.140295
26.900000	482.901912
26.910000	490.602611
26.920000	492.386772
26.930000	489.791977
26.940000	485.587498
26.950000	482.025984
26.960000	479.496073
26.970000	478.306310
26.980000	482.127322
26.990000	489.619881
27.000000	502.146559
27.010000	518.640908
27.020000	539.550972
27.030000	563.371137
27.040000	587.333369
27.050000	612.159282
27.060000	638.831690
27.070000	666.992491
27.080000	695.376469
27.090000	724.880785
27.100000	754.966643
27.110000	784.817846
27.120000	814.275001
27.130000	850.157301
27.140000	894.286370
27.150000	936.514120
27.160000	961.333424
27.170000	956.263148
27.180000	922.468676
27.190000	872.427443
27.200000	820.326296
27.210000	776.632665
27.220000	744.214317
27.230000	722.212383
27.240000	710.489171
27.250000	707.172306
27.260000	713.156706
27.270000	724.838393
27.280000	737.539916
27.290000	746.556459
27.300000	748.645958
27.310000	746.008376
27.320000	741.472716
27.330000	740.185726
27.340000	741.669835
27.350000	744.747032
27.360000	751.595450
27.370000	761.686911
27.380000	774.908268
27.390000	789.007029
27.400000	804.949422
27.410000	824.716137
27.420000	846.031794
27.430000	869.151802
27.440000	891.492668
27.450000	915.654694
27.460000	941.666150
27.470000	968.875400
27.480000	995.222117
27.490000	1019.484764
27.500000	1046.180191
27.510000	1078.142506
27.520000	1115.851447
27.530000	1150.160096
27.540000	1168.232158
27.550000	1159.570326
27.560000	1123.693214
27.570000	1072.066150
27.580000	1018.881146
27.590000	973.601639
27.600000	940.106318
27.610000	917.844126
27.620000	905.715727
27.630000	901.803349
27.640000	904.712124
27.650000	914.485301
27.660000	925.745637
27.670000	934.890683
27.680000	938.163826
27.690000	935.357452
27.700000	927.971544
27.710000	919.213610
27.720000	914.168976
27.730000	913.107615
27.740000	916.417647
27.750000	920.708662
27.760000	926.728270
27.770000	934.691993
27.780000	944.421377
27.790000	958.733600
27.800000	975.818299
27.810000	994.159009
27.820000	1012.599000
27.830000	1032.640972
27.840000	1052.753736
27.850000	1072.842360
27.860000	1091.286201
27.870000	1117.455620
27.880000	1150.839637
27.890000	1181.089722
27.900000	1194.097019
27.910000	1175.436971
27.920000	1131.458534
27.930000	1070.503158
27.940000	1007.551466
27.950000	951.264882
27.960000	907.348875
27.970000	876.725760
27.980000	854.843229
27.990000	841.911384
28.000000	836.377419
28.010000	837.142608
28.020000	836.270183
28.030000	831.098671
28.040000	822.215211
28.050000	807.423417
28.060000	790.887016
28.070000	773.447992
28.080000	759.945055
28.090000	749.164163
28.100000	742.384457
28.110000	741.589743
28.120000	745.187795
28.130000	752.390903
28.140000	762.698233
28.150000	775.898777
28.160000	790.243298
28.170000	805.449124
28.180000	822.162282
28.190000	839.365857
28.200000	856.787178
28.210000	873.317069
28.220000	888.784328
28.230000	906.313241
28.240000	930.821874
28.250000	964.670745
28.260000	992.846270
28.270000	998.724603
28.280000	967.910434
28.290000	902.189415
28.300000	815.373663
28.310000	724.695839
28.320000	644.861684
28.330000	578.533758
28.340000	525.372199
28.350000	481.726156
28.360000	446.920621
28.370000	422.286622
28.380000	407.158942
28.390000	392.853264
28.400000	375.772251
28.410000	350.441915
28.420000	318.765799
28.430000	281.720806
28.440000	245.131586
28.450000	215.025316
28.460000	189.500128
28.470000	168.692760
28.480000	150.552798
28.490000	135.389619
28.500000	120.954172
28.510000	109.453913
28.520000	103.377645
28.530000	103.200131
28.540000	106.814276
28.550000	113.636910
28.560000	123.270587
28.570000	133.420440
28.580000	144.753119
28.590000	156.551048
28.600000	168.253084
28.610000	179.364965
28.620000	195.452274
28.630000	219.854804
28.640000	236.613279
28.650000	227.686532
28.660000	177.461343
28.670000	93.595347
28.680000	-10.662616
28.690000	-116.802653
28.700000	-213.127104
28.710000	-298.552178
28.720000	-377.930824
28.730000	-450.610058
28.740000	-511.045136
28.750000	-552.656337
28.760000	-579.179565
28.770000	-599.375410
28.780000	-617.628174
28.790000	-639.758494
28.800000	-661.710253
28.810000	-684.483257
28.820000	-705.778252
28.830000	-725.208772
28.840000	-742.175012
28.850000	-754.593404
28.860000	-763.577585
28.870000	-771.311841
28.880000	-775.298659
28.890000	-773.363017
28.900000	-765.691894
28.910000	-756.424536
28.920000	-747.077892
28.930000	-735.142101
28.940000	-724.816558
28.950000	-720.862577
28.960000	-723.544700
28.970000	-724.561810
28.980000	-720.288415
28.990000	-716.623712
29.000000	-721.374320
29.010000	-736.005583
29.020000	-750.767237
29.030000	-765.418485
29.040000	-790.528512
29.050000	-848.870656
29.060000	-938.561562
29.070000	-1042.287018
29.080000	-1136.250449
29.090000	-1216.765986
29.100000	-1293.985102
29.110000	-1364.549324
29.120000	-1420.047730
29.130000	-1447.997030
29.140000	-1451.161481
29.150000	-1448.833060
29.160000	-1461.287872
29.170000	-1491.966451
29.180000	-1528.381107
29.190000	-1558.110932
29.200000	-1579.849413
29.210000	-1590.929849
29.220000	-1584.651763
29.230000	-1562.115592
29.240000	-1528.477586
29.250000	-1490.986336
29.260000	-1456.648913
29.270000	-1426.186221
29.280000	-1400.834957
29.290000	-1376.050410
29.300000	-1352.382052
29.310000	-1325.582017
29.320000	-1294.618767
29.330000	-1260.801023
29.340000	-1226.873907
29.350000	-1193.696161
29.360000	-1161.475399
29.370000	-1130.606772
29.380000	-1099.753903
29.390000	-1064.858480
29.400000	-1024.388049
29.410000	-977.795053
29.420000	-935.400990
29.430000	-913.095975
29.440000	-924.757563
29.450000	-966.363657
29.460000	-1019.089494
29.470000	-1067.322931
29.480000	-1098.445831
29.490000	-1110.995770
29.500000	-1105.156347
29.510000	-1087.368847
29.520000	-1059.203256
29.530000	-1026.436633
29.540000	-990.588331
29.550000	-961.209707
29.560000	-948.658877
29.570000	-958.319059
29.580000	-982.042217
29.590000	-1000.748354
29.600000	-1011.152242
29.610000	-1016.879931
29.620000	-1023.283633
29.630000	-1020.987667
29.640000	-1001.768108
29.650000	-964.464697
29.660000	-919.634624
29.670000	-883.306572
29.680000	-858.147547
29.690000	-838.140984
29.700000	-814.335403
29.710000	-792.365053
29.720000	-778.875566
29.730000	-776.594484
29.740000	-788.098025
29.750000	-810.491517
29.760000	-840.000606
29.770000	-866.720824
29.780000	-877.576825
29.790000	-885.035863
29.800000	-909.189453
29.810000	-965.687390
29.820000	-1044.413212
29.830000	-1129.003534
29.840000	-1217.357788
29.850000	-1317.027692
29.860000	-1425.957334
29.870000	-1536.049796
29.880000	-1637.232498
29.890000	-1718.750902
29.900000	-1786.233352
29.910000	-1829.422212
29.920000	-1851.952667
29.930000	-1846.075680
29.940000	-1814.714496
29.950000	-1770.101015
29.960000	-1726.828867
29.970000	-1690.781559
29.980000	-1660.936466
29.990000	-1639.148591
30.000000	-1628.057849
30.010000	-1626.182297
30.020000	-1620.826118
30.030000	-1594.881249
30.040000	-1535.616777
30.050000	-1446.969341
30.060000	-1331.078845
30.070000	-1191.737956
30.080000	-1039.902871
30.090000	-896.208394
30.100000	-770.371765
30.110000	-654.304391
30.120000	-537.842361
30.130000	-417.425526
30.140000	-298.678111
30.150000	-196.244288
30.160000	-119.839433
30.170000	-67.369309
30.180000	-18.622609
30.190000	43.158317
30.200000	120.216901
30.210000	193.624091
30.220000	245.054783
30.230000	272.130793
30.240000	279.242131
30.250000	271.972061
30.260000	252.752522
30.270000	226.485554
30.280000	197.928364
30.290000	168.990814
30.300000	145.448147
30.310000	138.845650
30.320000	154.284361
30.330000	181.659920
30.340000	207.446107
30.350000	225.162206
30.360000	234.961804
30.370000	239.674633
30.380000	241.813149
30.390000	248.870988
30.400000	265.326852
30.410000	289.722067
30.420000	317.169225
30.430000	342.243477
30.440000	368.709030
30.450000	401.106262
30.460000	438.239371
30.470000	477.973138
30.480000	517.107168
30.490000	556.191068
30.500000	595.314829
30.510000	633.748241
30.520000	669.527627
30.530000	701.984523
30.540000	733.758755
30.550000	771.909204
30.560000	821.327205
30.570000	873.808203
30.580000	915.557594
30.590000	932.717989
30.600000	923.833332
30.610000	896.330448
30.620000	858.790835
30.630000	822.963847
30.640000	794.410552
30.650000	775.267351
30.660000	761.359407
30.670000	750.589991
30.680000	746.671264
30.690000	749.248791
30.700000	756.660468
30.710000	761.907476
30.720000	764.348609
30.730000	761.910631
30.740000	756.396055
30.750000	750.264504
30.760000	745.123656
30.770000	744.640102
30.780000	747.186358
30.790000	754.040221
30.800000	763.591230
30.810000	774.792216
30.820000	788.017221
30.830000	801.221663
30.840000	815.135136
30.850000	826.658437
30.860000	834.943945
30.870000	841.453125
30.880000	847.771523
30.890000	850.252054
30.900000	849.295677
30.910000	852.422836
30.920000	873.523126
30.930000	910.234947
30.940000	939.045270
30.950000	937.402641
30.960000	893.951252
30.970000	821.657032
30.980000	734.212595
30.990000	648.273055
31.000000	569.463931
31.010000	498.562837
31.020000	436.402608
31.030000	381.199401
31.040000	339.050344
31.050000	310.174006
31.060000	290.707827
31.070000	273.159700
31.080000	253.061442
31.090000	234.857799
31.100000	219.092364
31.110000	203.235574
31.120000	187.151402
31.130000	172.640303
31.140000	162.902680
31.150000	158.726891
31.160000	157.332728
31.170000	156.169435
31.180000	155.793389
31.190000	157.970801
31.200000	165.612779
31.210000	176.781182
31.220000	188.117351
31.230000	196.615029
31.240000	205.662064
31.250000	218.471054
31.260000	233.884176
31.270000	250.683060
31.280000	268.799003
31.290000	287.917354
31.300000	305.731394
31.310000	321.512422
31.320000	344.714929
31.330000	388.139924
31.340000	440.321790
31.350000	475.083725
31.360000	468.959526
31.370000	420.444669
31.380000	341.992477
31.390000	246.497086
31.400000	148.386620
31.410000	61.237524
31.420000	-9.551291
31.430000	-66.687183
31.440000	-115.806750
31.450000	-155.903102
31.460000	-183.698719
31.470000	-204.786085
31.480000	-226.905909
31.490000	-257.978834
31.500000	-296.061899
31.510000	-338.478742
31.520000	-378.515922
31.530000	-410.624249
31.540000	-437.301056
31.550000	-458.404793
31.560000	-476.402245
31.570000	-489.148164
31.580000	-496.818570
31.590000	-500.870411
31.600000	-502.542917
31.610000	-502.566471
31.620000	-500.572710
31.630000	-499.914467
31.640000	-501.570948
31.650000	-501.557037
31.660000	-497.548533
31.670000	-490.516683
31.680000	-484.843411
31.690000	-479.101533
31.700000	-470.776359
31.710000	-462.006779
31.720000	-453.345789
31.730000	-442.879310
31.740000	-419.530666
31.750000	-387.768362
31.760000	-358.039000
31.770000	-355.671873
31.780000	-393.820682
31.790000	-465.493380
31.800000	-550.539419
31.810000	-630.292025
31.820000	-699.935795
31.830000	-755.398833
31.840000	-800.326009
31.850000	-832.461931
31.860000	-852.028704
31.870000	-857.826644
31.880000	-857.394089
31.890000	-862.173936
31.900000	-875.040956
31.910000	-894.146424
31.920000	-917.993442
31.930000	-943.418800
31.940000	-968.921429
31.950000	-988.315711
31.960000	-1002.506084
31.970000	-1012.182346
31.980000	-1018.395159
31.990000	-1020.681362
32.000000	-1017.584480
32.010000	-1011.493676
32.020000	-1003.071550
32.030000	-994.612714
32.040000	-984.516572
32.050000	-970.698811
32.060000	-955.274582
32.070000	-939.751083
32.080000	-919.984634
32.090000	-897.786987
32.100000	-874.995071
32.110000	-855.127528
32.120000	-833.950595
32.130000	-801.083923
32.140000	-758.572667
32.150000	-717.697786
32.160000	-701.859803
32.170000	-725.585389
32.180000	-786.398017
32.190000	-868.734487
32.200000	-956.565378
32.210000	-1034.849712
32.220000	-1100.395007
32.230000	-1150.930167
32.240000	-1190.537752
32.250000	-1216.955152
32.260000	-1227.641310
32.270000	-1227.963048
32.280000	-1225.378073
32.290000	-1228.935706
32.300000	-1238.382599
32.310000	-1255.206042
32.320000	-1274.996734
32.330000	-1296.109339
32.340000	-1311.888704
32.350000	-1322.656276
32.360000	-1329.072292
32.370000	-1332.495354
32.380000	-1333.209343
32.390000	-1327.613027
32.400000	-1317.984652
32.410000	-1306.351621
32.420000	-1294.714322
32.430000	-1281.033040
32.440000	-1265.069004
32.450000	-1246.667555
32.460000	-1226.377945
32.470000	-1203.583983
32.480000	-1179.977784
32.490000	-1156.114616
32.500000	-1133.864659
32.510000	-1116.264634
32.520000	-1100.350649
32.530000	-1077.012775
32.540000	-1036.449143
32.550000	-989.096970
32.560000	-952.513714
32.570000	-947.469224
32.580000	-979.147420
32.590000	-1038.747713
32.600000	-1109.369553
32.610000	-1175.640431
32.620000	-1231.560144
32.630000	-1272.478916
32.640000	-1302.048263
32.650000	-1325.596062
32.660000	-1339.451710
32.670000	-1342.325769
32.680000	-1335.467456
32.690000	-1330.354861
32.700000	-1339.423074
32.710000	-1364.290766
32.720000	-1408.987773
32.730000	-1458.108345
32.740000	-1500.164209
32.750000	-1534.890305
32.760000	-1565.950893
32.770000	-1600.948431
32.780000	-1633.965011
32.790000	-1676.651920
32.800000	-1739.572445
32.810000	-1821.585421
32.820000	-1896.706314
32.830000	-1942.789969
32.840000	-1969.520594
32.850000	-1985.583905
32.860000	-1992.239071
32.870000	-1982.278300
32.880000	-1960.580231
32.890000	-1929.220243
32.900000	-1898.531734
32.910000	-1873.400621
32.920000	-1853.053481
32.930000	-1825.468270
32.940000	-1776.486560
32.950000	-1715.851121
32.960000	-1659.184354
32.970000	-1628.164839
32.980000	-1637.776984
32.990000	-1684.005239
33.000000	-1751.917466
33.010000	-1819.402714
33.020000	-1867.308481
33.030000	-1889.410375
33.040000	-1888.631555
33.050000	-1877.015601
33.060000	-1854.492777
33.070000	-1821.525931
33.080000	-1776.584376
33.090000	-1734.315415
33.100000	-1701.554763
33.110000	-1677.650085
33.120000	-1661.421621
33.130000	-1651.882029
33.140000	-1648.184422
33.150000	-1642.990501
33.160000	-1634.856563
33.170000	-1621.321445
33.180000	-1605.100291
33.190000	-1582.524320
33.200000	-1554.912602
33.210000	-1523.948485
33.220000	-1492.614169
33.230000	-1461.249805
33.240000	-1427.859108
33.250000	-1394.443931
33.260000	-1362.650256
33.270000	-1333.515590
33.280000	-1305.311687
33.290000	-1279.138231
33.300000	-1250.165372
33.310000	-1207.618401
33.320000	-1149.582561
33.330000	-1089.679047
33.340000	-1047.552725
33.350000	-1037.593645
33.360000	-1057.009364
33.370000	-1095.018575
33.380000	-1133.643778
33.390000	-1161.658182
33.400000	-1179.839220
33.410000	-1187.487035
33.420000	-1191.580961
33.430000	-1184.466135
33.440000	-1164.194043
33.450000	-1131.974794
33.460000	-1095.678176
33.470000	-1064.003696
33.480000	-1038.993852
33.490000	-1023.549974
33.500000	-1013.470218
33.510000	-1003.939942
33.520000	-989.120983
33.530000	-970.191556
33.540000	-953.627161
33.550000	-940.267037
33.560000	-934.982241
33.570000	-932.149996
33.580000	-926.506404
33.590000	-916.543162
33.600000	-903.870814
33.610000	-893.776555
33.620000	-879.029414
33.630000	-857.517686
33.640000	-834.366667
33.650000	-807.730204
33.660000	-762.155504
33.670000	-691.455544
33.680000	-611.824931
33.690000	-541.671152
33.700000	-493.627759
33.710000	-466.663553
33.720000	-457.570660
33.730000	-457.451436
33.740000	-449.635044
33.750000	-425.402378
33.760000	-383.526273
33.770000	-334.857808
33.780000	-280.861413
33.790000	-222.446448
33.800000	-160.997634
33.810000	-103.849576
33.820000	-50.575720
33.830000	-3.722421
33.840000	29.373115
33.850000	51.641313
33.860000	73.218418
33.870000	97.531595
33.880000	120.589954
33.890000	141.979942
33.900000	164.520237
33.910000	190.979649
33.920000	217.652530
33.930000	247.552566
33.940000	281.000475
33.950000	320.690008
33.960000	363.224656
33.970000	403.383691
33.980000	440.022905
33.990000	475.317648
34.000000	519.074887
34.010000	575.470523
34.020000	636.997440
34.030000	686.166915
34.040000	709.169299
34.050000	711.156185
34.060000	703.266665
34.070000	692.377734
34.080000	680.262249
34.090000	669.849611
34.100000	667.181778
34.110000	672.556011
34.120000	688.024663
34.130000	716.518258
34.140000	758.783210
34.150000	803.370225
34.160000	847.490312
34.170000	890.821949
34.180000	934.462500
34.190000	974.522704
34.200000	1011.377322
34.210000	1057.188280
34.220000	1110.856354
34.230000	1174.798994
34.240000	1248.263664
34.250000	1332.019036
34.260000	1414.577286
34.270000	1479.500273
34.280000	1522.868224
34.290000	1562.652703
34.300000	1604.738490
34.310000	1638.707663
34.320000	1647.205113
34.330000	1632.433178
34.340000	1618.349746
34.350000	1583.319800
34.360000	1504.111055
34.370000	1392.257695
34.380000	1315.316731
34.390000	1316.086119
34.400000	1382.665398
34.410000	1476.803411
34.420000	1584.042000
34.430000	1704.524729
34.440000	1834.372800
34.450000	1944.810893
34.460000	2010.681401
34.470000	2034.141237
34.480000	2034.674698
34.490000	2030.105394
34.500000	2009.562147
34.510000	1984.438242
34.520000	1962.749090
34.530000	1970.463726
34.540000	2005.503529
34.550000	2038.393018
34.560000	2049.264594
34.570000	2043.706969
34.580000	2043.385712
34.590000	2051.955157
34.600000	2042.073200
34.610000	2005.241056
34.620000	1942.774705
34.630000	1875.234630
34.640000	1825.471736
34.650000	1804.519383
34.660000	1815.137400
34.670000	1840.743413
34.680000	1871.481643
34.690000	1903.311207
34.700000	1929.146325
34.710000	1936.527376
34.720000	1914.144956
34.730000	1863.109420
34.740000	1796.843464
34.750000	1726.017584
34.760000	1661.543920
34.770000	1609.581574
34.780000	1572.236376
34.790000	1545.131799
34.800000	1523.933885
34.810000	1511.373921
34.820000	1507.296836
34.830000	1508.615559
34.840000	1505.984359
34.850000	1495.548224
34.860000	1477.693651
34.870000	1457.170489
34.880000	1438.079597
34.890000	1421.129353
34.900000	1407.145921
34.910000	1394.763043
34.920000	1386.905663
34.930000	1381.064216
34.940000	1379.695556
34.950000	1378.029474
34.960000	1380.194576
34.970000	1380.987865
34.980000	1380.728258
34.990000	1373.616338
35.000000	1357.626575
35.010000	1333.607681
35.020000	1312.909409
35.030000	1314.977628
35.040000	1332.141480
35.050000	1336.984397
35.060000	1302.399456
35.070000	1228.424767
35.080000	1130.058216
35.090000	1026.570544
35.100000	934.403509
35.110000	866.067118
35.120000	819.738319
35.130000	785.236903
35.140000	754.776477
35.150000	730.798825
35.160000	719.188735
35.170000	720.711924
35.180000	724.936064
35.190000	725.001247
35.200000	718.729911
35.210000	711.010879
35.220000	706.223833
35.230000	705.045714
35.240000	705.078577
35.250000	705.120327
35.260000	707.647139
35.270000	714.898553
35.280000	726.914467
35.290000	741.375648
35.300000	756.555974
35.310000	770.892942
35.320000	783.573149
35.330000	797.795387
35.340000	814.960033
35.350000	834.066398
35.360000	854.724262
35.370000	876.714048
35.380000	906.550321
35.390000	941.379796
35.400000	964.382332
35.410000	955.414542
35.420000	909.634972
35.430000	841.213910
35.440000	769.949270
35.450000	704.696547
35.460000	653.307921
35.470000	617.543342
35.480000	596.039327
35.490000	585.433086
35.500000	584.492126
35.510000	593.375959
35.520000	606.980200
35.530000	618.029693
35.540000	623.864862
35.550000	624.742431
35.560000	623.140364
35.570000	622.509655
35.580000	625.800042
35.590000	634.659258
35.600000	648.840868
35.610000	669.198626
35.620000	693.259691
35.630000	720.129847
35.640000	747.395572
35.650000	777.796832
35.660000	808.905907
35.670000	841.862629
35.680000	876.802862
35.690000	913.985165
35.700000	952.754059
35.710000	990.158495
35.720000	1026.772379
35.730000	1062.053201
35.740000	1096.852632
35.750000	1132.674793
35.760000	1176.005310
35.770000	1216.642939
35.780000	1236.529095
35.790000	1215.999656
35.800000	1160.180904
35.810000	1088.789997
35.820000	1017.883145
35.830000	958.627663
35.840000	921.310646
35.850000	908.839656
35.860000	915.108231
35.870000	930.436917
35.880000	960.677121
35.890000	999.395982
35.900000	1018.916763
35.910000	1006.124358
35.920000	977.968507
35.930000	968.295538
35.940000	979.998497
35.950000	996.142380
35.960000	988.059903
35.970000	950.784804
35.980000	886.538375
35.990000	827.239621
36.000000	794.385878
36.010000	798.060900
36.020000	832.253804
36.030000	882.256399
36.040000	933.520416
36.050000	962.492212
36.060000	969.250448
36.070000	970.505676
36.080000	999.758684
36.090000	1069.192789
36.100000	1164.593388
36.110000	1253.896617
36.120000	1306.163680
36.130000	1300.694482
36.140000	1239.863342
36.150000	1135.918866
36.160000	1010.655349
36.170000	883.536363
36.180000	745.100808
36.190000	603.602118
36.200000	457.920160
36.210000	327.457243
36.220000	221.110357
36.230000	148.714667
36.240000	118.696429
36.250000	124.998745
36.260000	147.978303
36.270000	175.035305
36.280000	198.339768
36.290000	140.614728
