Time(s)	IR_denoised_wiener
0.000000	462.139368
0.010000	734.076596
0.020000	794.017515
0.030000	665.575326
0.040000	473.883492
0.050000	234.676641
0.060000	-30.868379
0.070000	-300.800714
0.080000	-561.548409
0.090000	-789.587616
0.100000	-962.126090
0.110000	-1069.369823
0.120000	-1128.087929
0.130000	-1156.756379
0.140000	-1168.938196
0.150000	-1160.981641
0.160000	-1147.927540
0.170000	-1136.433610
0.180000	-1132.848710
0.190000	-1124.840802
0.200000	-1105.406538
0.210000	-1079.490801
0.220000	-1052.581434
0.230000	-1032.784725
0.240000	-1013.183915
0.250000	-989.731158
0.260000	-955.622643
0.270000	-917.505709
0.280000	-883.820105
0.290000	-850.415531
0.300000	-806.069525
0.310000	-741.993598
0.320000	-671.204575
0.330000	-607.459211
0.340000	-553.720431
0.350000	-497.731442
0.360000	-430.479391
0.370000	-352.620771
0.380000	-277.317159
0.390000	-216.854274
0.400000	-183.728461
0.410000	-175.473351
0.420000	-183.350505
0.430000	-205.048050
0.440000	-237.106503
0.450000	-275.324470
0.460000	-304.280978
0.470000	-327.082284
0.480000	-351.859570
0.490000	-373.821619
0.500000	-374.189915
0.510000	-343.560146
0.520000	-295.482866
0.530000	-249.507725
0.540000	-213.220799
0.550000	-178.886836
0.560000	-136.352646
0.570000	-83.387114
0.580000	-27.061396
0.590000	22.456065
0.600000	63.632897
0.610000	96.439598
0.620000	122.685039
0.630000	139.747278
0.640000	148.205515
0.650000	147.279381
0.660000	129.241298
0.670000	95.420894
0.680000	47.938129
0.690000	2.188738
0.700000	-51.631529
0.710000	-116.236552
0.720000	-197.462723
0.730000	-288.611914
0.740000	-382.987027
0.750000	-481.278719
0.760000	-573.371456
0.770000	-662.612695
0.780000	-742.850732
0.790000	-816.148212
0.800000	-878.226472
0.810000	-930.321496
0.820000	-979.237946
0.830000	-1031.328219
0.840000	-1088.950838
0.850000	-1151.605829
0.860000	-1214.369903
0.870000	-1275.080091
0.880000	-1331.638180
0.890000	-1381.516977
0.900000	-1423.771293
0.910000	-1459.044353
0.920000	-1492.794140
0.930000	-1531.665719
0.940000	-1577.885160
0.950000	-1625.334349
0.960000	-1671.204696
0.970000	-1710.869759
0.980000	-1747.114818
0.990000	-1784.967160
1.000000	-1820.755074
1.010000	-1854.529567
1.020000	-1877.799298
1.030000	-1896.733241
1.040000	-1924.786030
1.050000	-1958.967230
1.060000	-2000.929663
1.070000	-2035.009894
1.080000	-2067.999833
1.090000	-2099.479331
1.100000	-2130.327977
1.110000	-2152.708767
1.120000	-2154.552783
1.130000	-2144.423214
1.140000	-2128.241387
1.150000	-2116.206514
1.160000	-2093.608618
1.170000	-2064.477000
1.180000	-2040.282100
1.190000	-2031.128274
1.200000	-2027.116956
1.210000	-2007.333091
1.220000	-1968.101649
1.230000	-1917.107019
1.240000	-1867.957111
1.250000	-1827.688862
1.260000	-1794.496132
1.270000	-1758.630673
1.280000	-1717.813079
1.290000	-1670.987077
1.300000	-1626.366398
1.310000	-1583.039312
1.320000	-1537.427163
1.330000	-1485.171810
1.340000	-1421.790073
1.350000	-1360.379354
1.360000	-1306.864306
1.370000	-1266.342551
1.380000	-1235.759846
1.390000	-1215.420996
1.400000	-1199.715906
1.410000	-1179.691624
1.420000	-1153.475435
1.430000	-1126.772639
1.440000	-1103.326779
1.450000	-1075.786187
1.460000	-1043.432743
1.470000	-1005.909310
1.480000	-968.904959
1.490000	-934.680147
1.500000	-905.491224
1.510000	-878.984794
1.520000	-846.828322
1.530000	-803.534525
1.540000	-748.869894
1.550000	-690.806643
1.560000	-634.463435
1.570000	-572.803527
1.580000	-486.895758
1.590000	-368.654545
1.600000	-224.537806
1.610000	-68.231306
1.620000	98.195052
1.630000	278.088940
1.640000	459.819565
1.650000	626.243663
1.660000	759.968979
1.670000	867.390904
1.680000	963.243417
1.690000	1051.783262
1.700000	1128.881824
1.710000	1182.096003
1.720000	1216.691276
1.730000	1239.268444
1.740000	1260.481716
1.750000	1288.164714
1.760000	1319.501464
1.770000	1354.592036
1.780000	1381.628759
1.790000	1405.623766
1.800000	1430.364174
1.810000	1460.613069
1.820000	1492.219184
1.830000	1515.296136
1.840000	1532.420620
1.850000	1546.032650
1.860000	1561.915933
1.870000	1575.987535
1.880000	1588.373466
1.890000	1597.535978
1.900000	1610.815107
1.910000	1626.076878
1.920000	1645.097853
1.930000	1662.733561
1.940000	1673.526447
1.950000	1680.477970
1.960000	1683.748276
1.970000	1694.321103
1.980000	1701.209252
1.990000	1696.885809
2.000000	1676.374218
2.010000	1640.625794
2.020000	1598.715263
2.030000	1551.123704
2.040000	1508.573793
2.050000	1470.695828
2.060000	1434.653064
2.070000	1400.415932
2.080000	1364.498251
2.090000	1333.096644
2.100000	1295.475472
2.110000	1252.969176
2.120000	1206.896987
2.130000	1166.114393
2.140000	1131.941567
2.150000	1095.875421
2.160000	1057.805857
2.170000	1023.667141
2.180000	1001.005733
2.190000	982.480262
2.200000	956.729653
2.210000	920.882696
2.220000	882.386773
2.230000	851.728325
2.240000	829.529925
2.250000	811.300473
2.260000	794.554956
2.270000	769.358878
2.280000	742.316259
2.290000	712.901073
2.300000	692.897202
2.310000	672.623275
2.320000	638.424527
2.330000	591.612848
2.340000	531.681723
2.350000	471.078520
2.360000	401.113217
2.370000	333.389973
2.380000	268.996630
2.390000	210.884461
2.400000	157.586087
2.410000	105.980506
2.420000	65.082260
2.430000	29.378994
2.440000	7.046781
2.450000	-6.582090
2.460000	-9.563228
2.470000	-6.873421
2.480000	1.013419
2.490000	15.216000
2.500000	29.148791
2.510000	37.459451
2.520000	31.529067
2.530000	20.723708
2.540000	12.044067
2.550000	19.946898
2.560000	39.933046
2.570000	67.415801
2.580000	98.077578
2.590000	129.915678
2.600000	165.946587
2.610000	190.324721
2.620000	207.175300
2.630000	216.721279
2.640000	236.187665
2.650000	260.893140
2.660000	282.084316
2.670000	295.205126
2.680000	300.686476
2.690000	307.010916
2.700000	312.571957
2.710000	320.401488
2.720000	327.982750
2.730000	335.698494
2.740000	341.263436
2.750000	344.226889
2.760000	344.761177
2.770000	343.420457
2.780000	343.706773
2.790000	351.621564
2.800000	364.588310
2.810000	382.046903
2.820000	394.287974
2.830000	409.334724
2.840000	432.170215
2.850000	467.939265
2.860000	511.974001
2.870000	547.677776
2.880000	575.176830
2.890000	594.946577
2.900000	613.606818
2.910000	625.450221
2.920000	625.117591
2.930000	617.867394
2.940000	609.819550
2.950000	608.030548
2.960000	608.868333
2.970000	606.362488
2.980000	595.100806
2.990000	577.358829
3.000000	572.605752
3.010000	599.524896
3.020000	662.540674
3.030000	739.158175
3.040000	803.852807
3.050000	847.940671
3.060000	875.514374
3.070000	886.755342
3.080000	876.756961
3.090000	846.654044
3.100000	810.788658
3.110000	779.020629
3.120000	753.713983
3.130000	728.049110
3.140000	693.896109
3.150000	651.053446
3.160000	594.422418
3.170000	529.489867
3.180000	455.392866
3.190000	378.335308
3.200000	296.574206
3.210000	199.162575
3.220000	86.626695
3.230000	-37.744386
3.240000	-158.336570
3.250000	-274.039184
3.260000	-386.066373
3.270000	-494.974104
3.280000	-601.331792
3.290000	-697.174781
3.300000	-782.513476
3.310000	-854.564462
3.320000	-923.642276
3.330000	-997.146075
3.340000	-1074.493155
3.350000	-1146.894441
3.360000	-1202.762983
3.370000	-1246.725218
3.380000	-1288.050215
3.390000	-1333.762279
3.400000	-1380.273293
3.410000	-1423.462216
3.420000	-1465.304231
3.430000	-1513.863903
3.440000	-1570.966518
3.450000	-1637.151165
3.460000	-1701.232741
3.470000	-1758.702499
3.480000	-1806.400263
3.490000	-1848.969177
3.500000	-1893.590380
3.510000	-1941.431122
3.520000	-1988.654033
3.530000	-2029.555855
3.540000	-2069.907200
3.550000	-2125.632024
3.560000	-2206.366337
3.570000	-2303.950649
3.580000	-2404.481656
3.590000	-2498.411482
3.600000	-2587.124993
3.610000	-2667.298331
3.620000	-2737.247114
3.630000	-2789.718288
3.640000	-2832.142966
3.650000	-2864.998444
3.660000	-2899.233617
3.670000	-2935.455906
3.680000	-2976.248635
3.690000	-3020.463440
3.700000	-3066.505737
3.710000	-3114.610369
3.720000	-3159.977201
3.730000	-3198.895428
3.740000	-3232.492618
3.750000	-3264.440239
3.760000	-3297.015069
3.770000	-3323.852392
3.780000	-3327.264845
3.790000	-3310.965572
3.800000	-3289.248831
3.810000	-3299.791356
3.820000	-3337.226772
3.830000	-3388.155519
3.840000	-3432.622255
3.850000	-3472.440663
3.860000	-3513.383662
3.870000	-3551.133982
3.880000	-3591.435074
3.890000	-3632.244236
3.900000	-3676.862083
3.910000	-3718.645314
3.920000	-3759.347395
3.930000	-3798.711709
3.940000	-3834.610661
3.950000	-3862.662034
3.960000	-3885.811416
3.970000	-3911.196124
3.980000	-3944.565865
3.990000	-3983.800879
4.000000	-4026.655803
4.010000	-4069.733073
4.020000	-4114.549920
4.030000	-4155.960157
4.040000	-4192.794452
4.050000	-4221.056848
4.060000	-4238.483257
4.070000	-4248.400876
4.080000	-4254.604194
4.090000	-4275.818955
4.100000	-4316.069193
4.110000	-4373.191359
4.120000	-4436.240109
4.130000	-4501.922885
4.140000	-4571.519902
4.150000	-4636.914708
4.160000	-4694.459342
4.170000	-4743.452039
4.180000	-4790.401869
4.190000	-4840.171544
4.200000	-4892.943316
4.210000	-4952.988676
4.220000	-5014.492957
4.230000	-5072.435043
4.240000	-5124.784156
4.250000	-5172.963273
4.260000	-5221.925611
4.270000	-5259.118353
4.280000	-5277.365603
4.290000	-5274.909254
4.300000	-5266.826378
4.310000	-5269.306741
4.320000	-5287.591583
4.330000	-5320.262377
4.340000	-5357.779650
4.350000	-5400.192359
4.360000	-5445.415517
4.370000	-5496.062408
4.380000	-5553.049498
4.390000	-5609.909208
4.400000	-5668.953361
4.410000	-5726.398702
4.420000	-5799.183451
4.430000	-5890.370252
4.440000	-5997.696670
4.450000	-6111.408576
4.460000	-6225.977886
4.470000	-6343.144435
4.480000	-6458.736708
4.490000	-6567.525574
4.500000	-6671.588848
4.510000	-6763.945727
4.520000	-6852.897944
4.530000	-6931.922876
4.540000	-7019.144355
4.550000	-7104.267124
4.560000	-7191.140754
4.570000	-7269.611409
4.580000	-7353.698814
4.590000	-7439.713105
4.600000	-7525.001028
4.610000	-7586.559093
4.620000	-7622.912064
4.630000	-7628.016606
4.640000	-7615.393172
4.650000	-7579.007430
4.660000	-7527.274909
4.670000	-7452.891736
4.680000	-7374.588199
4.690000	-7294.896691
4.700000	-7234.252888
4.710000	-7186.753924
4.720000	-7161.771807
4.730000	-7149.514475
4.740000	-7173.759888
4.750000	-7229.807848
4.760000	-7348.963437
4.770000	-7507.394058
4.780000	-7805.818278
4.790000	-8194.441741
4.800000	-8698.879714
4.810000	-9156.561894
4.820000	-9655.808941
4.830000	-10150.443003
4.840000	-10692.776528
4.850000	-11123.742155
4.860000	-11189.489727
4.870000	-10523.871832
4.880000	-8810.634932
4.890000	-5968.593352
4.900000	-1253.774141
4.910000	11994.041423
4.920000	17056.606414
4.930000	17113.692206
4.940000	10359.645521
4.950000	-3533.524425
4.960000	-4354.957053
4.970000	-1052.842828
4.980000	4939.091714
4.990000	7586.189235
5.000000	9108.101973
5.010000	9662.282702
5.020000	9511.091172
5.030000	7986.718918
5.040000	367.982214
5.050000	-14087.984919
5.060000	-14206.101000
5.070000	-10964.779180
5.080000	-5732.416116
5.090000	-3463.299260
5.100000	-2177.390346
5.110000	-1097.765100
5.120000	688.221834
5.130000	3063.853804
5.140000	5817.738952
5.150000	8263.817931
5.160000	10187.504051
5.170000	11355.118865
5.180000	11996.779885
5.190000	12159.824592
5.200000	12082.338944
5.210000	11720.386873
5.220000	11253.605506
5.230000	10667.088466
5.240000	10105.555656
5.250000	9478.420266
5.260000	8810.919500
5.270000	8018.362101
5.280000	7206.279868
5.290000	6389.884547
5.300000	5662.623643
5.310000	5007.866504
5.320000	4509.328862
5.330000	4141.645779
5.340000	3921.430247
5.350000	3685.287363
5.360000	3447.906739
5.370000	3137.888939
5.380000	2540.095172
5.390000	1548.666312
5.400000	206.712679
5.410000	-883.776682
5.420000	-1576.099609
5.430000	-1888.091721
5.440000	-2085.710058
5.450000	-2261.787758
5.460000	-2365.458789
5.470000	-2447.412985
5.480000	-2456.404139
5.490000	-2451.375853
5.500000	-2398.661148
5.510000	-2321.510356
5.520000	-2177.898606
5.530000	-2000.364532
5.540000	-1794.631896
5.550000	-1603.621696
5.560000	-1423.393673
5.570000	-1266.161247
5.580000	-1122.524969
5.590000	-1001.654817
5.600000	-896.370571
5.610000	-803.232672
5.620000	-706.157221
5.630000	-599.922112
5.640000	-482.959679
5.650000	-364.934666
5.660000	-246.807026
5.670000	-143.940815
5.680000	-67.935627
5.690000	-35.094725
5.700000	-27.276130
5.710000	-27.136467
5.720000	-23.485772
5.730000	-10.853629
5.740000	4.749647
5.750000	27.636564
5.760000	41.837202
5.770000	53.078579
5.780000	64.107127
5.790000	79.823042
5.800000	109.279208
5.810000	155.728496
5.820000	234.633483
5.830000	329.443034
5.840000	428.809917
5.850000	519.816884
5.860000	613.030274
5.870000	733.176044
5.880000	894.338891
5.890000	1098.616295
5.900000	1313.391470
5.910000	1510.466150
5.920000	1668.986069
5.930000	1788.941969
5.940000	1874.338678
5.950000	1937.656704
5.960000	1989.540900
5.970000	2035.214379
5.980000	2063.413940
5.990000	2067.349201
6.000000	2050.227730
6.010000	2034.711592
6.020000	2044.613948
6.030000	2092.254625
6.040000	2166.674401
6.050000	2250.350317
6.060000	2336.945827
6.070000	2426.860959
6.080000	2515.240473
6.090000	2589.496153
6.100000	2646.988783
6.110000	2688.104365
6.120000	2715.718214
6.130000	2725.083352
6.140000	2717.683905
6.150000	2692.920237
6.160000	2649.861424
6.170000	2592.219928
6.180000	2523.373380
6.190000	2444.289061
6.200000	2350.760239
6.210000	2245.635843
6.220000	2143.459635
6.230000	2056.219010
6.240000	1984.019966
6.250000	1918.685298
6.260000	1856.542447
6.270000	1806.270654
6.280000	1776.680815
6.290000	1766.753203
6.300000	1768.518351
6.310000	1770.065338
6.320000	1758.319931
6.330000	1727.278550
6.340000	1681.605870
6.350000	1636.645692
6.360000	1598.835098
6.370000	1569.758368
6.380000	1548.610282
6.390000	1531.525286
6.400000	1509.259527
6.410000	1477.444263
6.420000	1444.114047
6.430000	1412.136537
6.440000	1376.852885
6.450000	1327.607580
6.460000	1273.972238
6.470000	1226.908589
6.480000	1186.533044
6.490000	1146.116283
6.500000	1100.166713
6.510000	1054.898811
6.520000	1010.509673
6.530000	969.324640
6.540000	935.504151
6.550000	912.945771
6.560000	897.997692
6.570000	882.079279
6.580000	859.949277
6.590000	831.344499
6.600000	803.838113
6.610000	782.040608
6.620000	773.200854
6.630000	770.226129
6.640000	761.004359
6.650000	732.317564
6.660000	697.094902
6.670000	679.281499
6.680000	698.199879
6.690000	755.974285
6.700000	866.639534
6.710000	1042.381333
6.720000	1276.584702
6.730000	1544.648500
6.740000	1859.685166
6.750000	2308.849910
6.760000	2976.167074
6.770000	3901.234778
6.780000	4994.121541
6.790000	6122.154402
6.800000	7132.940433
6.810000	7952.949096
6.820000	8598.907425
6.830000	9131.095444
6.840000	9615.794127
6.850000	10069.417789
6.860000	10482.100710
6.870000	10827.772845
6.880000	11095.285076
6.890000	11292.581962
6.900000	11439.226304
6.910000	11550.610993
6.920000	11642.201874
6.930000	11722.627680
6.940000	11794.294909
6.950000	11852.970657
6.960000	11895.328192
6.970000	11913.544415
6.980000	11904.326500
6.990000	11867.058629
7.000000	11811.324880
7.010000	11735.216670
7.020000	11629.228148
7.030000	11488.890461
7.040000	11322.371608
7.050000	11137.944542
7.060000	10934.300921
7.070000	10699.432947
7.080000	10429.558750
7.090000	10110.247048
7.100000	9745.421704
7.110000	9347.383197
7.120000	8965.210165
7.130000	8619.196816
7.140000	8315.639340
7.150000	8028.675040
7.160000	7765.962173
7.170000	7508.969436
7.180000	7174.963970
7.190000	6748.154378
7.200000	6283.823979
7.210000	5960.877822
7.220000	5796.034201
7.230000	5733.948333
7.240000	5694.352406
7.250000	5655.071383
7.260000	5623.192502
7.270000	5577.985724
7.280000	5532.137218
7.290000	5488.782612
7.300000	5448.992851
7.310000	5397.640068
7.320000	5344.239213
7.330000	5300.206555
7.340000	5273.609390
7.350000	5250.902489
7.360000	5216.664074
7.370000	5163.105217
7.380000	5090.007097
7.390000	5005.591062
7.400000	4927.086986
7.410000	4856.110777
7.420000	4775.859544
7.430000	4664.941258
7.440000	4526.109188
7.450000	4383.329525
7.460000	4239.470768
7.470000	4093.352144
7.480000	3941.264052
7.490000	3795.444342
7.500000	3651.071949
7.510000	3492.002489
7.520000	3323.547069
7.530000	3148.845573
7.540000	2980.730975
7.550000	2805.275022
7.560000	2637.947303
7.570000	2484.378141
7.580000	2343.991000
7.590000	2204.808629
7.600000	2066.058523
7.610000	1933.215134
7.620000	1802.470784
7.630000	1664.752548
7.640000	1521.324714
7.650000	1380.149205
7.660000	1249.107324
7.670000	1124.858195
7.680000	999.448789
7.690000	867.953958
7.700000	719.999487
7.710000	559.717377
7.720000	384.407578
7.730000	224.131860
7.740000	76.411778
7.750000	-74.843607
7.760000	-257.100690
7.770000	-459.712450
7.780000	-630.176421
7.790000	-757.254236
7.800000	-863.683748
7.810000	-985.657830
7.820000	-1117.771159
7.830000	-1232.959867
7.840000	-1333.951136
7.850000	-1425.855755
7.860000	-1514.739513
7.870000	-1591.703492
7.880000	-1656.407102
7.890000	-1714.740324
7.900000	-1759.507895
7.910000	-1795.451308
7.920000	-1824.215137
7.930000	-1844.540859
7.940000	-1839.467419
7.950000	-1801.640750
7.960000	-1750.953623
7.970000	-1708.825066
7.980000	-1685.358563
7.990000	-1658.583787
8.000000	-1622.394055
8.010000	-1567.306204
8.020000	-1513.809246
8.030000	-1453.306912
8.040000	-1395.989464
8.050000	-1329.078267
8.060000	-1271.002343
8.070000	-1212.947365
8.080000	-1079.082901
8.090000	-854.303390
8.100000	-560.581010
8.110000	-354.900328
8.120000	-255.648825
8.130000	-227.035601
8.140000	-208.816911
8.150000	-175.530817
8.160000	-159.106214
8.170000	-140.917035
8.180000	-114.726830
8.190000	-66.321063
8.200000	-7.094622
8.210000	23.050949
8.220000	23.247010
8.230000	14.359585
8.240000	8.691944
8.250000	2.727843
8.260000	-27.837917
8.270000	-70.783635
8.280000	-130.774794
8.290000	-194.394796
8.300000	-262.220461
8.310000	-311.196005
8.320000	-349.943046
8.330000	-382.191478
8.340000	-428.864792
8.350000	-475.450187
8.360000	-531.690558
8.370000	-583.162768
8.380000	-556.850951
8.390000	-407.409478
8.400000	-144.189491
8.410000	76.583883
8.420000	188.864526
8.430000	184.154502
8.440000	123.633118
8.450000	52.002328
8.460000	-21.249839
8.470000	-90.249609
8.480000	-193.736265
8.490000	-333.383460
8.500000	-496.175304
8.510000	-635.873213
8.520000	-750.899099
8.530000	-836.226917
8.540000	-914.148617
8.550000	-977.314639
8.560000	-1040.674214
8.570000	-1092.838189
8.580000	-1141.119882
8.590000	-1175.980544
8.600000	-1215.305841
8.610000	-1248.924668
8.620000	-1280.370605
8.630000	-1285.140220
8.640000	-1284.702401
8.650000	-1270.645649
8.660000	-1270.899497
8.670000	-1263.139779
8.680000	-1266.748890
8.690000	-1253.676239
8.700000	-1257.221504
8.710000	-1257.936628
8.720000	-1302.980357
8.730000	-1345.635313
8.740000	-1415.035187
8.750000	-1455.438238
8.760000	-1522.977063
8.770000	-1577.688945
8.780000	-1670.628329
8.790000	-1723.622646
8.800000	-1780.974850
8.810000	-1778.562371
8.820000	-1812.578434
8.830000	-1806.266992
8.840000	-1843.331424
8.850000	-1810.738896
8.860000	-1827.385411
8.870000	-1775.024056
8.880000	-1794.957624
8.890000	-1738.127235
8.900000	-1775.189953
8.910000	-1722.697060
8.920000	-1746.126779
8.930000	-1609.848805
8.940000	-1533.189974
8.950000	-1306.853042
8.960000	-1227.223247
8.970000	-1026.889018
8.980000	-1294.791301
8.990000	-2389.020910
9.000000	-15627.875688
9.010000	-21326.569091
9.020000	-22104.104083
9.030000	-21193.100169
9.040000	-20790.270812
9.050000	-22204.412725
9.060000	-25395.504506
9.070000	-26680.865291
9.080000	-22095.175106
9.090000	-12643.145328
9.100000	-6882.682678
9.110000	-3753.429365
9.120000	-1812.035049
9.130000	-823.822318
9.140000	-563.850018
9.150000	-570.230134
9.160000	-739.189401
9.170000	-842.590250
9.180000	-900.598391
9.190000	-817.481784
9.200000	-725.982423
9.210000	-595.867192
9.220000	-559.192642
9.230000	-547.002342
9.240000	-645.270983
9.250000	-734.571600
9.260000	-878.208399
9.270000	-959.556824
9.280000	-1097.331480
9.290000	-1230.714655
9.300000	-1507.841745
9.310000	-1816.714954
9.320000	-2247.578278
9.330000	-2647.680689
9.340000	-3122.139122
9.350000	-3536.130489
9.360000	-4031.110155
9.370000	-4475.638145
9.380000	-5389.318833
9.390000	-7396.703042
9.400000	-12370.808925
9.410000	-14196.679984
9.420000	-14789.387955
9.430000	-14809.748182
9.440000	-14803.414502
9.450000	-14644.820263
9.460000	-14455.649695
9.470000	-14096.837490
9.480000	-13581.240544
9.490000	-12524.054215
9.500000	-10876.950769
9.510000	-8674.818464
9.520000	-6557.529741
9.530000	-4839.733736
9.540000	-3706.848638
9.550000	-2919.688022
9.560000	-2381.168418
9.570000	-1953.356481
9.580000	-1630.964697
9.590000	-1342.514076
9.600000	-1110.094822
9.610000	-859.364066
9.620000	-584.258925
9.630000	-226.975865
9.640000	158.473954
9.650000	545.461908
9.660000	856.282587
9.670000	1098.091877
9.680000	1265.675785
9.690000	1407.787032
9.700000	1508.668892
9.710000	1588.038305
9.720000	1635.201285
9.730000	1688.283981
9.740000	1741.511131
9.750000	1800.902967
9.760000	1847.127851
9.770000	1888.003043
9.780000	1914.975429
9.790000	1937.554925
9.800000	1947.031795
9.810000	1957.491778
9.820000	1959.592005
9.830000	1965.935630
9.840000	1969.447361
9.850000	1982.776018
9.860000	1996.915641
9.870000	2010.512569
9.880000	2026.916524
9.890000	2056.707733
9.900000	2096.679272
9.910000	2121.877600
9.920000	2119.007779
9.930000	2100.961296
9.940000	2082.958937
9.950000	2067.531581
9.960000	2044.558785
9.970000	2017.295574
9.980000	1988.426925
9.990000	1962.754326
10.000000	1939.199060
10.010000	1922.378745
10.020000	1908.638486
10.030000	1896.600461
10.040000	1881.772775
10.050000	1869.354388
10.060000	1856.351563
10.070000	1843.836214
10.080000	1828.842609
10.090000	1814.058255
10.100000	1795.454396
10.110000	1773.014343
10.120000	1748.345339
10.130000	1726.369662
10.140000	1706.030858
10.150000	1684.542894
10.160000	1660.776951
10.170000	1633.656712
10.180000	1606.377373
10.190000	1578.358653
10.200000	1552.830772
10.210000	1532.111115
10.220000	1521.243022
10.230000	1522.461667
10.240000	1528.882828
10.250000	1530.969017
10.260000	1519.692548
10.270000	1499.836710
10.280000	1477.566726
10.290000	1460.330610
10.300000	1452.146791
10.310000	1466.943517
10.320000	1518.787265
10.330000	1611.677207
10.340000	1731.500668
10.350000	1857.327519
10.360000	1964.702369
10.370000	2034.740086
10.380000	2061.931625
10.390000	2057.643351
10.400000	2042.724500
10.410000	2027.218124
10.420000	2014.661316
10.430000	2005.059822
10.440000	1999.116132
10.450000	1996.403730
10.460000	1991.726553
10.470000	1986.290885
10.480000	1989.230154
10.490000	2007.227601
10.500000	2040.772492
10.510000	2071.121234
10.520000	2090.894737
10.530000	2098.777841
10.540000	2108.170038
10.550000	2125.571692
10.560000	2149.807090
10.570000	2180.435001
10.580000	2217.292327
10.590000	2260.142183
10.600000	2300.689373
10.610000	2333.711221
10.620000	2361.080056
10.630000	2388.815063
10.640000	2414.153428
10.650000	2435.883885
10.660000	2453.963018
10.670000	2474.274537
10.680000	2495.573403
10.690000	2517.066951
10.700000	2538.582113
10.710000	2564.504370
10.720000	2596.302536
10.730000	2632.096998
10.740000	2667.402578
10.750000	2699.872857
10.760000	2731.028376
10.770000	2760.697518
10.780000	2790.054146
10.790000	2818.568731
10.800000	2848.039667
10.810000	2872.450858
10.820000	2890.216959
10.830000	2902.846598
10.840000	2914.127480
10.850000	2923.267693
10.860000	2924.730071
10.870000	2923.573504
10.880000	2921.139173
10.890000	2919.596626
10.900000	2916.794029
10.910000	2915.355561
10.920000	2923.413615
10.930000	2935.412129
10.940000	2949.653188
10.950000	2956.461730
10.960000	2963.136854
10.970000	2967.606188
10.980000	2958.716588
10.990000	2932.602569
11.000000	2893.034887
11.010000	2869.327172
11.020000	2867.473108
11.030000	2886.374969
11.040000	2908.287507
11.050000	2920.697743
11.060000	2924.195071
11.070000	2920.713331
11.080000	2917.260363
11.090000	2908.452531
11.100000	2894.929741
11.110000	2879.100104
11.120000	2864.505587
11.130000	2852.407548
11.140000	2842.077521
11.150000	2834.056910
11.160000	2824.852131
11.170000	2812.154328
11.180000	2795.859405
11.190000	2777.922046
11.200000	2758.182341
11.210000	2734.108500
11.220000	2706.066215
11.230000	2675.281968
11.240000	2645.727613
11.250000	2615.846816
11.260000	2588.615538
11.270000	2564.369832
11.280000	2547.946137
11.290000	2531.681506
11.300000	2509.697759
11.310000	2478.638522
11.320000	2441.666860
11.330000	2400.660912
11.340000	2352.895762
11.350000	2300.333479
11.360000	2248.644763
11.370000	2199.828647
11.380000	2141.920203
11.390000	2075.900091
11.400000	2012.176915
11.410000	1982.812624
11.420000	1986.953949
11.430000	2013.830210
11.440000	2045.946322
11.450000	2082.312022
11.460000	2131.461685
11.470000	2195.344613
11.480000	2272.759758
11.490000	2356.589800
11.500000	2442.647294
11.510000	2530.760453
11.520000	2620.323337
11.530000	2701.553420
11.540000	2769.925243
11.550000	2817.659869
11.560000	2844.124242
11.570000	2833.450974
11.580000	2774.790628
11.590000	2665.158152
11.600000	2515.856556
11.610000	2342.086545
11.620000	2153.538525
11.630000	1957.640272
11.640000	1750.127993
11.650000	1526.490024
11.660000	1279.444230
11.670000	1013.248473
11.680000	733.726225
11.690000	441.370279
11.700000	130.479983
11.710000	-214.064088
11.720000	-595.312522
11.730000	-1004.277749
11.740000	-1409.267356
11.750000	-1779.571503
11.760000	-2093.120769
11.770000	-2349.062964
11.780000	-2554.209562
11.790000	-2714.749176
11.800000	-2836.833704
11.810000	-2929.432677
11.820000	-3004.351105
11.830000	-3067.515874
11.840000	-3125.312694
11.850000	-3189.175790
11.860000	-3268.825873
11.870000	-3375.174512
11.880000	-3524.269890
11.890000	-3706.481093
11.900000	-3884.918605
11.910000	-4002.464816
11.920000	-4055.444129
11.930000	-4071.080685
11.940000	-4080.355793
11.950000	-4090.480779
11.960000	-4096.011894
11.970000	-4105.435953
11.980000	-4125.029427
11.990000	-4158.082623
12.000000	-4190.105157
12.010000	-4208.788832
12.020000	-4214.634344
12.030000	-4220.952079
12.040000	-4233.621777
12.050000	-4245.323615
12.060000	-4240.289018
12.070000	-4212.367082
12.080000	-4168.090432
12.090000	-4118.279940
12.100000	-4063.906962
12.110000	-3989.955049
12.120000	-3884.480739
12.130000	-3757.158892
12.140000	-3632.771018
12.150000	-3530.523751
12.160000	-3444.896347
12.170000	-3364.160798
12.180000	-3284.037909
12.190000	-3209.826490
12.200000	-3146.713938
12.210000	-3096.228661
12.220000	-3058.476969
12.230000	-3031.601512
12.240000	-3010.766828
12.250000	-2991.739395
12.260000	-2976.973774
12.270000	-2966.405387
12.280000	-2959.729748
12.290000	-2949.241989
12.300000	-2940.221246
12.310000	-2938.294994
12.320000	-2948.486528
12.330000	-2964.615630
12.340000	-2979.971690
12.350000	-2993.299255
12.360000	-3007.257622
12.370000	-3021.413683
12.380000	-3022.139990
12.390000	-2998.996709
12.400000	-2950.966354
12.410000	-2907.757834
12.420000	-2883.378243
12.430000	-2879.349587
12.440000	-2875.009677
12.450000	-2866.711710
12.460000	-2858.249627
12.470000	-2849.952596
12.480000	-2838.262221
12.490000	-2820.651144
12.500000	-2802.784451
12.510000	-2784.211192
12.520000	-2759.636958
12.530000	-2732.043948
12.540000	-2704.628739
12.550000	-2685.573943
12.560000	-2663.320705
12.570000	-2640.403796
12.580000	-2614.354599
12.590000	-2590.829462
12.600000	-2562.246977
12.610000	-2531.971711
12.620000	-2501.288680
12.630000	-2477.686343
12.640000	-2453.750614
12.650000	-2433.326325
12.660000	-2408.771840
12.670000	-2387.904998
12.680000	-2357.421187
12.690000	-2326.337142
12.700000	-2282.265532
12.710000	-2241.979099
12.720000	-2195.848598
12.730000	-2164.262184
12.740000	-2134.820868
12.750000	-2122.595316
12.760000	-2100.933540
12.770000	-2086.149039
12.780000	-2067.069458
12.790000	-2075.671770
12.800000	-2081.512537
12.810000	-2093.551610
12.820000	-2074.946752
12.830000	-2071.539984
12.840000	-2058.166321
12.850000	-2087.560468
12.860000	-2110.498510
12.870000	-2177.338459
12.880000	-2290.414305
12.890000	-2499.070266
12.900000	-2718.289084
12.910000	-2858.281403
12.920000	-2827.262763
12.930000	-2697.146081
12.940000	-2477.198999
12.950000	-2271.859806
12.960000	-2011.807181
12.970000	-1788.675178
12.980000	-1534.613733
12.990000	-1352.517742
13.000000	-1114.584533
13.010000	-826.588836
13.020000	-313.595563
13.030000	321.491058
13.040000	1075.171025
13.050000	1697.981836
13.060000	2094.702565
13.070000	1595.856797
13.080000	-151.894098
13.090000	-3401.867200
13.100000	-15051.483311
13.110000	-20792.918667
13.120000	-17065.093938
13.130000	-7219.702072
13.140000	-5217.485784
13.150000	-4374.403679
13.160000	-3848.225658
13.170000	-3846.126739
13.180000	-3668.285172
13.190000	-4685.108238
13.200000	-11855.478978
13.210000	-31096.357751
13.220000	-15025.042849
13.230000	-3255.064704
13.240000	-431.304293
13.250000	1370.627896
13.260000	2751.916212
13.270000	3079.800043
13.280000	3380.872311
13.290000	3254.344427
13.300000	3384.359314
13.310000	3263.669651
13.320000	3379.040035
13.330000	3266.790409
13.340000	3358.855936
13.350000	3257.398062
13.360000	3316.279760
13.370000	3183.858886
13.380000	3158.479435
13.390000	2982.652117
13.400000	2956.708954
13.410000	2886.620773
13.420000	2969.525968
13.430000	2958.270316
13.440000	3008.190146
13.450000	2938.475417
13.460000	2916.665174
13.470000	2791.432874
13.480000	2702.746726
13.490000	2527.924809
13.500000	2393.946469
13.510000	2211.377309
13.520000	2092.489525
13.530000	1948.741633
13.540000	1853.174657
13.550000	1719.467157
13.560000	1609.482070
13.570000	1460.541322
13.580000	1336.048853
13.590000	1196.450212
13.600000	1104.711767
13.610000	1023.813088
13.620000	992.946803
13.630000	965.656265
13.640000	970.244935
13.650000	967.034005
13.660000	973.331754
13.670000	949.527934
13.680000	915.704606
13.690000	867.175603
13.700000	841.298629
13.710000	820.231340
13.720000	805.460629
13.730000	771.386890
13.740000	737.577845
13.750000	700.985628
13.760000	674.844176
13.770000	658.396901
13.780000	659.009545
13.790000	674.636085
13.800000	701.815090
13.810000	740.877722
13.820000	792.284856
13.830000	850.726724
13.840000	911.324861
13.850000	981.830623
13.860000	1064.250177
13.870000	1159.995848
13.880000	1307.422376
13.890000	1498.406153
13.900000	1707.668406
13.910000	1814.118612
13.920000	1811.722805
13.930000	1718.013342
13.940000	1591.624408
13.950000	1453.091647
13.960000	1315.213496
13.970000	1210.122497
13.980000	1134.445761
13.990000	1095.174734
14.000000	1090.467402
14.010000	1136.405852
14.020000	1225.420577
14.030000	1345.697045
14.040000	1481.192625
14.050000	1625.906628
14.060000	1766.324462
14.070000	1882.500938
14.080000	1963.689424
14.090000	2016.724313
14.100000	2058.182965
14.110000	2094.090022
14.120000	2121.148061
14.130000	2135.096602
14.140000	2138.454048
14.150000	2137.325942
14.160000	2138.626533
14.170000	2144.623046
14.180000	2155.317946
14.190000	2168.446835
14.200000	2183.776527
14.210000	2203.714567
14.220000	2229.989645
14.230000	2262.849304
14.240000	2296.262125
14.250000	2322.964527
14.260000	2341.775286
14.270000	2353.076536
14.280000	2358.951477
14.290000	2352.796765
14.300000	2336.831269
14.310000	2314.179560
14.320000	2292.949788
14.330000	2269.714204
14.340000	2245.973295
14.350000	2221.121957
14.360000	2198.562485
14.370000	2174.153919
14.380000	2131.627285
14.390000	2074.965822
14.400000	2011.362395
14.410000	1970.460277
14.420000	1949.349858
14.430000	1941.158382
14.440000	1934.412552
14.450000	1928.919886
14.460000	1930.165694
14.470000	1936.418707
14.480000	1943.903224
14.490000	1940.535812
14.500000	1922.685255
14.510000	1891.899409
14.520000	1856.392718
14.530000	1813.754857
14.540000	1766.014572
14.550000	1718.176372
14.560000	1676.981031
14.570000	1642.220151
14.580000	1610.710985
14.590000	1583.279469
14.600000	1560.329848
14.610000	1538.086596
14.620000	1515.298469
14.630000	1493.568659
14.640000	1478.402160
14.650000	1467.667712
14.660000	1458.392208
14.670000	1447.983376
14.680000	1437.738302
14.690000	1428.734667
14.700000	1419.180137
14.710000	1408.485006
14.720000	1397.406642
14.730000	1387.900915
14.740000	1380.624581
14.750000	1373.851380
14.760000	1368.521407
14.770000	1365.348094
14.780000	1367.092460
14.790000	1371.587445
14.800000	1379.116112
14.810000	1390.153400
14.820000	1409.936415
14.830000	1431.422461
14.840000	1447.300872
14.850000	1448.900248
14.860000	1442.176943
14.870000	1424.884292
14.880000	1374.144608
14.890000	1287.533768
14.900000	1178.177287
14.910000	1095.603360
14.920000	1044.608854
14.930000	1017.265406
14.940000	993.061347
14.950000	966.557658
14.960000	943.221199
14.970000	919.677640
14.980000	900.071340
14.990000	877.610274
15.000000	855.514756
15.010000	831.829169
15.020000	811.757307
15.030000	792.763061
15.040000	777.006129
15.050000	763.994562
15.060000	755.579444
15.070000	751.526260
15.080000	743.305260
15.090000	728.625438
15.100000	702.657675
15.110000	669.974772
15.120000	628.836868
15.130000	580.201947
15.140000	529.791869
15.150000	481.725371
15.160000	441.503226
15.170000	408.294699
15.180000	384.312140
15.190000	366.916360
15.200000	353.422102
15.210000	341.394799
15.220000	331.291741
15.230000	323.951691
15.240000	316.549659
15.250000	309.155055
15.260000	302.327962
15.270000	298.553522
15.280000	298.501197
15.290000	301.460526
15.300000	306.744549
15.310000	311.313423
15.320000	313.955105
15.330000	312.786540
15.340000	309.473731
15.350000	305.771561
15.360000	306.741390
15.370000	310.785848
15.380000	303.891497
15.390000	279.684549
15.400000	242.270075
15.410000	217.655419
15.420000	213.942097
15.430000	224.494321
15.440000	236.862531
15.450000	244.087007
15.460000	252.357439
15.470000	258.906687
15.480000	264.930892
15.490000	268.092172
15.500000	271.254636
15.510000	275.764063
15.520000	281.959088
15.530000	288.922445
15.540000	296.272713
15.550000	303.796045
15.560000	310.519445
15.570000	317.169716
15.580000	323.585260
15.590000	333.163276
15.600000	344.222954
15.610000	357.658317
15.620000	372.895251
15.630000	391.874473
15.640000	413.927939
15.650000	431.870759
15.660000	440.455801
15.670000	436.581391
15.680000	423.501539
15.690000	402.202297
15.700000	373.583438
15.710000	341.761787
15.720000	311.034374
15.730000	286.019774
15.740000	265.597822
15.750000	251.543753
15.760000	245.860668
15.770000	247.074009
15.780000	252.480144
15.790000	255.606585
15.800000	258.731626
15.810000	260.920395
15.820000	262.125192
15.830000	261.136368
15.840000	258.775701
15.850000	257.602459
15.860000	256.985193
15.870000	258.653991
15.880000	262.536726
15.890000	270.062289
15.900000	277.744439
15.910000	282.932782
15.920000	284.419224
15.930000	283.941514
15.940000	285.564194
15.950000	287.817475
15.960000	293.856654
15.970000	303.347927
15.980000	320.292485
15.990000	338.829984
16.000000	350.273644
16.010000	350.341273
16.020000	338.052766
16.030000	319.562539
16.040000	293.232587
16.050000	262.704358
16.060000	232.636979
16.070000	207.959466
16.080000	189.792886
16.090000	175.302568
16.100000	166.188493
16.110000	163.751317
16.120000	164.995140
16.130000	167.419902
16.140000	168.344338
16.150000	171.784792
16.160000	175.869496
16.170000	179.700890
16.180000	181.597247
16.190000	183.289835
16.200000	187.759778
16.210000	194.287334
16.220000	202.238315
16.230000	209.703910
16.240000	218.160632
16.250000	226.753377
16.260000	234.729187
16.270000	240.329531
16.280000	245.070626
16.290000	249.206530
16.300000	254.618216
16.310000	260.373876
16.320000	267.482423
16.330000	276.732958
16.340000	289.877523
16.350000	307.052268
16.360000	319.301210
16.370000	320.130166
16.380000	305.257804
16.390000	277.880907
16.400000	241.065803
16.410000	195.469930
16.420000	148.539109
16.430000	102.769978
16.440000	63.319274
16.450000	28.211892
16.460000	-0.366238
16.470000	-19.942404
16.480000	-35.585072
16.490000	-48.787088
16.500000	-65.433939
16.510000	-79.053443
16.520000	-90.263087
16.530000	-98.472057
16.540000	-104.933903
16.550000	-110.383140
16.560000	-112.867074
16.570000	-114.704953
16.580000	-115.843466
16.590000	-119.099141
16.600000	-122.518305
16.610000	-123.884118
16.620000	-121.925009
16.630000	-118.301793
16.640000	-115.509493
16.650000	-110.865256
16.660000	-105.288890
16.670000	-95.917951
16.680000	-82.816495
16.690000	-62.352109
16.700000	-38.340368
16.710000	-19.663644
16.720000	-9.790574
16.730000	-11.714184
16.740000	-21.493180
16.750000	-41.655731
16.760000	-66.777600
16.770000	-90.561061
16.780000	-106.913113
16.790000	-115.021245
16.800000	-117.475237
16.810000	-112.205516
16.820000	-101.806448
16.830000	-87.690557
16.840000	-75.238014
16.850000	-61.997817
16.860000	-46.644467
16.870000	-31.861906
16.880000	-20.912734
16.890000	-14.248194
16.900000	-8.128797
16.910000	0.487899
16.920000	10.437845
16.930000	23.251070
16.940000	37.459591
16.950000	53.701595
16.960000	70.272809
16.970000	88.060907
16.980000	107.442823
16.990000	128.084979
17.000000	148.856766
17.010000	172.014825
17.020000	196.724214
17.030000	226.183312
17.040000	257.473366
17.050000	293.261090
17.060000	327.200452
17.070000	354.219173
17.080000	366.944042
17.090000	366.089177
17.100000	360.764974
17.110000	359.930947
17.120000	366.027756
17.130000	372.579262
17.140000	375.002743
17.150000	374.777319
17.160000	373.794698
17.170000	370.913728
17.180000	346.300644
17.190000	300.778781
17.200000	242.444269
17.210000	212.432470
17.220000	213.312095
17.230000	238.186307
17.240000	259.789401
17.250000	279.012360
17.260000	294.093948
17.270000	311.900114
17.280000	329.083875
17.290000	362.117778
17.300000	423.136935
17.310000	523.535510
17.320000	655.071108
17.330000	813.718312
17.340000	980.817011
17.350000	1155.164199
17.360000	1383.511557
17.370000	1748.957648
17.380000	2286.643089
17.390000	2888.425218
17.400000	3266.391505
17.410000	2933.909766
17.420000	1397.388306
17.430000	-1512.257835
17.440000	-7232.843178
17.450000	-19101.845739
17.460000	-25928.036543
17.470000	-24143.924354
17.480000	-17660.190238
17.490000	-13219.347817
17.500000	-11719.442905
17.510000	-12383.766913
17.520000	-26897.001448
17.530000	-28350.766312
17.540000	-11270.783266
17.550000	-6001.021184
17.560000	-3099.023473
17.570000	-1138.426813
17.580000	254.369780
17.590000	1103.173256
17.600000	1614.956420
17.610000	1786.811133
17.620000	1864.621621
17.630000	1866.813461
17.640000	1910.107457
17.650000	1912.786625
17.660000	1938.107647
17.670000	1931.528284
17.680000	1949.633578
17.690000	1932.973724
17.700000	1923.369941
17.710000	1880.693288
17.720000	1849.843101
17.730000	1790.730824
17.740000	1730.672701
17.750000	1636.066295
17.760000	1536.655350
17.770000	1412.170546
17.780000	1282.363603
17.790000	1125.619198
17.800000	959.934929
17.810000	775.240450
17.820000	588.323412
17.830000	379.078118
17.840000	153.657300
17.850000	-99.779205
17.860000	-360.008920
17.870000	-627.475007
17.880000	-888.319759
17.890000	-1152.698313
17.900000	-1419.614081
17.910000	-1690.225337
17.920000	-1935.890368
17.930000	-2136.988438
17.940000	-2281.456394
17.950000	-2394.145131
17.960000	-2495.572833
17.970000	-2608.619251
17.980000	-2727.097902
17.990000	-2838.139959
18.000000	-2927.959186
18.010000	-3012.686161
18.020000	-3107.932662
18.030000	-3231.437113
18.040000	-3368.841971
18.050000	-3518.782860
18.060000	-3671.929691
18.070000	-3835.292263
18.080000	-4020.934201
18.090000	-4204.335364
18.100000	-4359.262014
18.110000	-4429.834919
18.120000	-4428.851913
18.130000	-4380.236216
18.140000	-4318.376748
18.150000	-4253.904356
18.160000	-4182.689078
18.170000	-4116.503338
18.180000	-4052.894332
18.190000	-3989.166762
18.200000	-3912.339954
18.210000	-3833.359555
18.220000	-3768.438225
18.230000	-3728.027189
18.240000	-3700.924023
18.250000	-3677.652058
18.260000	-3655.950374
18.270000	-3634.224500
18.280000	-3602.984051
18.290000	-3549.831931
18.300000	-3467.647203
18.310000	-3350.157437
18.320000	-3174.033322
18.330000	-2898.093672
18.340000	-2461.455354
18.350000	-1853.676976
18.360000	-1134.960597
18.370000	-439.809407
18.380000	109.912277
18.390000	472.811929
18.400000	671.001806
18.410000	768.985028
18.420000	809.622516
18.430000	826.766852
18.440000	833.116534
18.450000	835.065923
18.460000	835.699750
18.470000	835.797467
18.480000	836.510259
18.490000	837.749516
18.500000	838.994714
18.510000	840.716525
18.520000	847.406356
18.530000	862.357598
18.540000	884.036284
18.550000	900.403911
18.560000	907.405412
18.570000	905.610257
18.580000	904.524462
18.590000	904.238272
18.600000	904.011282
18.610000	902.676687
18.620000	901.108314
18.630000	901.720171
18.640000	906.025979
18.650000	916.929454
18.660000	932.860212
18.670000	952.302915
18.680000	973.974858
18.690000	1001.763025
18.700000	1036.691057
18.710000	1076.602398
18.720000	1121.262250
18.730000	1169.505236
18.740000	1223.255074
18.750000	1279.901561
18.760000	1340.119313
18.770000	1403.259179
18.780000	1458.563098
18.790000	1500.843688
18.800000	1524.644905
18.810000	1534.573456
18.820000	1531.014627
18.830000	1515.403055
18.840000	1495.178226
18.850000	1472.747496
18.860000	1452.786732
18.870000	1436.732124
18.880000	1429.406227
18.890000	1429.568366
18.900000	1430.324287
18.910000	1429.431020
18.920000	1428.262491
18.930000	1429.863790
18.940000	1433.405923
18.950000	1440.765554
18.960000	1452.886070
18.970000	1463.753899
18.980000	1467.602392
18.990000	1464.570303
19.000000	1458.578254
19.010000	1451.508462
19.020000	1444.012167
19.030000	1442.839299
19.040000	1447.430245
19.050000	1456.082001
19.060000	1463.077206
19.070000	1468.276448
19.080000	1469.077388
19.090000	1462.280055
19.100000	1448.581732
19.110000	1434.016668
19.120000	1427.478200
19.130000	1425.055644
19.140000	1422.643221
19.150000	1416.025157
19.160000	1416.388420
19.170000	1424.203731
19.180000	1434.825969
19.190000	1441.867064
19.200000	1446.360340
19.210000	1452.602525
19.220000	1458.249610
19.230000	1463.186318
19.240000	1467.310430
19.250000	1473.850395
19.260000	1479.956290
19.270000	1483.248960
19.280000	1482.898564
19.290000	1481.735825
19.300000	1482.017307
19.310000	1485.177998
19.320000	1494.551159
19.330000	1512.242640
19.340000	1531.331678
19.350000	1543.039899
19.360000	1545.784154
19.370000	1545.065744
19.380000	1543.187514
19.390000	1534.238336
19.400000	1518.596490
19.410000	1502.414773
19.420000	1490.862221
19.430000	1483.199953
19.440000	1476.871145
19.450000	1476.110488
19.460000	1480.051871
19.470000	1482.861456
19.480000	1478.880244
19.490000	1470.191120
19.500000	1464.499711
19.510000	1460.564990
19.520000	1457.215136
19.530000	1451.245348
19.540000	1444.164685
19.550000	1434.451263
19.560000	1420.545580
19.570000	1403.996756
19.580000	1386.135592
19.590000	1369.540576
19.600000	1352.692271
19.610000	1336.535850
19.620000	1320.341352
19.630000	1308.442891
19.640000	1298.613178
19.650000	1291.137573
19.660000	1284.201023
19.670000	1281.637593
19.680000	1284.660026
19.690000	1283.294982
19.700000	1271.696232
19.710000	1245.848400
19.720000	1211.229722
19.730000	1168.819495
19.740000	1118.313519
19.750000	1066.607036
19.760000	1018.164675
19.770000	976.165128
19.780000	939.105558
19.790000	908.629650
19.800000	888.396789
19.810000	872.821642
19.820000	859.713903
19.830000	853.495549
19.840000	863.287236
19.850000	886.551733
19.860000	913.049236
19.870000	939.314677
19.880000	970.646524
19.890000	1005.376382
19.900000	1037.898469
19.910000	1060.766195
19.920000	1075.319381
19.930000	1084.281004
19.940000	1086.059074
19.950000	1082.153823
19.960000	1074.588326
19.970000	1070.396225
19.980000	1067.632739
19.990000	1066.213585
20.000000	1068.477715
20.010000	1080.058271
20.020000	1096.387915
20.030000	1105.761509
20.040000	1107.257243
20.050000	1102.040518
20.060000	1097.952203
20.070000	1088.360297
20.080000	1073.473006
20.090000	1051.792382
20.100000	1027.366452
20.110000	1003.119662
20.120000	980.927560
20.130000	968.158267
20.140000	960.987570
20.150000	961.131980
20.160000	959.771248
20.170000	962.981260
20.180000	966.166886
20.190000	969.091400
20.200000	970.227248
20.210000	971.566882
20.220000	975.630545
20.230000	977.903040
20.240000	979.182174
20.250000	977.901496
20.260000	977.883259
20.270000	976.985576
20.280000	978.065067
20.290000	983.294603
20.300000	994.698879
20.310000	1012.041520
20.320000	1031.766672
20.330000	1052.136941
20.340000	1076.089580
20.350000	1104.670847
20.360000	1141.097468
20.370000	1177.704506
20.380000	1205.436042
20.390000	1221.442861
20.400000	1225.347168
20.410000	1222.773360
20.420000	1208.646085
20.430000	1186.151846
20.440000	1162.189240
20.450000	1141.966391
20.460000	1126.153110
20.470000	1112.318599
20.480000	1106.385771
20.490000	1101.375393
20.500000	1090.060786
20.510000	1069.564163
20.520000	1054.048988
20.530000	1053.057529
20.540000	1059.160914
20.550000	1064.880388
20.560000	1065.502767
20.570000	1067.538362
20.580000	1071.468795
20.590000	1076.405305
20.600000	1079.859714
20.610000	1082.280910
20.620000	1084.686141
20.630000	1086.471521
20.640000	1086.384508
20.650000	1086.558203
20.660000	1089.179588
20.670000	1091.939929
20.680000	1091.061620
20.690000	1088.001331
20.700000	1088.617003
20.710000	1097.146891
20.720000	1104.971706
20.730000	1099.918971
20.740000	1079.470418
20.750000	1050.832318
20.760000	1023.850958
20.770000	992.968497
20.780000	954.105074
20.790000	904.752141
20.800000	844.232260
20.810000	765.582723
20.820000	663.339049
20.830000	546.796463
20.840000	429.214108
20.850000	321.519607
20.860000	227.013530
20.870000	154.124182
20.880000	107.981255
20.890000	81.512231
20.900000	64.784287
20.910000	52.775271
20.920000	50.826371
20.930000	58.183822
20.940000	68.126233
20.950000	74.550534
20.960000	77.525624
20.970000	83.460353
20.980000	93.849828
20.990000	106.075806
21.000000	118.014961
21.010000	133.673048
21.020000	156.680492
21.030000	185.632652
21.040000	215.716285
21.050000	246.001078
21.060000	278.376500
21.070000	317.324074
21.080000	361.053483
21.090000	400.544750
21.100000	430.243084
21.110000	451.962731
21.120000	473.177324
21.130000	490.474999
21.140000	498.701771
21.150000	500.180144
21.160000	501.178215
21.170000	506.247407
21.180000	511.536070
21.190000	519.719390
21.200000	533.485949
21.210000	553.434417
21.220000	575.891106
21.230000	598.295614
21.240000	621.569926
21.250000	642.381183
21.260000	657.389884
21.270000	668.071071
21.280000	677.915333
21.290000	688.212276
21.300000	696.333569
21.310000	702.607496
21.320000	709.341445
21.330000	716.892829
21.340000	725.145436
21.350000	734.187674
21.360000	745.307919
21.370000	758.256685
21.380000	771.032406
21.390000	783.112880
21.400000	794.998326
21.410000	811.993028
21.420000	835.733128
21.430000	866.190875
21.440000	889.959213
21.450000	901.308653
21.460000	896.649433
21.470000	883.917603
21.480000	862.522286
21.490000	836.417516
21.500000	808.507860
21.510000	785.240362
21.520000	763.336779
21.530000	748.072734
21.540000	740.708373
21.550000	747.441811
21.560000	757.777261
21.570000	773.489421
21.580000	789.601414
21.590000	812.197933
21.600000	827.781609
21.610000	842.043864
21.620000	848.475997
21.630000	860.125670
21.640000	866.072871
21.650000	877.216549
21.660000	883.153456
21.670000	896.302279
21.680000	900.022162
21.690000	908.068406
21.700000	904.916946
21.710000	910.516460
21.720000	905.246447
21.730000	910.200160
21.740000	902.679452
21.750000	915.163238
21.760000	926.079331
21.770000	961.880069
21.780000	967.555024
21.790000	977.193658
21.800000	955.440769
21.810000	970.569181
21.820000	965.597571
21.830000	999.335542
21.840000	1010.345285
21.850000	1068.827406
21.860000	1091.698632
21.870000	1149.508015
21.880000	1159.873296
21.890000	1225.764281
21.900000	1241.128061
21.910000	1323.552536
21.920000	1347.645801
21.930000	1458.962486
21.940000	1491.448716
21.950000	1606.657551
21.960000	1645.254698
21.970000	1848.127515
21.980000	2071.970969
21.990000	2580.120188
22.000000	3108.446859
22.010000	3817.394384
22.020000	4311.328569
22.030000	4737.646364
22.040000	4338.231662
22.050000	3042.310459
22.060000	312.379552
22.070000	-7704.688412
22.080000	-20191.928023
22.090000	-23310.664065
22.100000	-18834.619418
22.110000	-11722.723139
22.120000	-8405.957915
22.130000	-6640.284538
22.140000	-7417.472024
22.150000	-13365.805852
22.160000	-31247.000643
22.170000	-18995.978883
22.180000	-5819.144658
22.190000	-3130.573531
22.200000	-1451.139930
22.210000	-241.927839
22.220000	33.089065
22.230000	224.762616
22.240000	-3.830114
22.250000	-68.906031
22.260000	-339.103232
22.270000	-383.717002
22.280000	-575.187756
22.290000	-583.420025
22.300000	-745.185321
22.310000	-765.374776
22.320000	-900.677822
22.330000	-888.467927
22.340000	-961.053933
22.350000	-918.397522
22.360000	-967.585049
22.370000	-937.289213
22.380000	-993.034136
22.390000	-974.640517
22.400000	-1010.465216
22.410000	-969.506674
22.420000	-977.777094
22.430000	-935.796826
22.440000	-942.802625
22.450000	-901.643529
22.460000	-893.334738
22.470000	-850.640255
22.480000	-855.431830
22.490000	-848.843079
22.500000	-875.376366
22.510000	-864.311793
22.520000	-858.074681
22.530000	-819.396784
22.540000	-801.911374
22.550000	-772.224238
22.560000	-761.013112
22.570000	-733.309976
22.580000	-716.189651
22.590000	-689.271153
22.600000	-676.043889
22.610000	-655.871657
22.620000	-645.794543
22.630000	-625.678107
22.640000	-608.665420
22.650000	-578.376430
22.660000	-548.996640
22.670000	-512.096600
22.680000	-481.203645
22.690000	-456.540244
22.700000	-459.520243
22.710000	-491.321982
22.720000	-563.679338
22.730000	-653.460800
22.740000	-754.840220
22.750000	-847.503978
22.760000	-938.958044
22.770000	-1021.887385
22.780000	-1090.002932
22.790000	-1128.417916
22.800000	-1144.206011
22.810000	-1148.717897
22.820000	-1151.328537
22.830000	-1140.199488
22.840000	-1110.310865
22.850000	-1062.341457
22.860000	-1006.503510
22.870000	-942.832396
22.880000	-872.863933
22.890000	-795.601929
22.900000	-712.844682
22.910000	-625.994141
22.920000	-537.101358
22.930000	-450.690562
22.940000	-369.286796
22.950000	-295.231078
22.960000	-229.851712
22.970000	-174.727991
22.980000	-131.916294
22.990000	-100.272236
23.000000	-80.041884
23.010000	-65.849532
23.020000	-53.337973
23.030000	-34.693387
23.040000	-14.087025
23.050000	-0.851082
23.060000	2.704710
23.070000	1.299966
23.080000	0.782901
23.090000	-4.564496
23.100000	-16.615311
23.110000	-31.571309
23.120000	-43.499701
23.130000	-53.567648
23.140000	-62.323593
23.150000	-65.151730
23.160000	-59.658789
23.170000	-48.713264
23.180000	-39.405671
23.190000	-28.610852
23.200000	-14.883748
23.210000	-0.699670
23.220000	9.684373
23.230000	17.516715
23.240000	28.332308
23.250000	41.753467
23.260000	55.023551
23.270000	65.823637
23.280000	76.016345
23.290000	87.168105
23.300000	99.167216
23.310000	110.559460
23.320000	121.717443
23.330000	133.899448
23.340000	148.323149
23.350000	166.183713
23.360000	190.885285
23.370000	219.601106
23.380000	242.351890
23.390000	252.650314
23.400000	253.480557
23.410000	251.332163
23.420000	242.160903
23.430000	224.084224
23.440000	203.496268
23.450000	189.018255
23.460000	180.168872
23.470000	172.098188
23.480000	167.604182
23.490000	171.693768
23.500000	180.824170
23.510000	189.225260
23.520000	194.338018
23.530000	201.861416
23.540000	209.752508
23.550000	216.112761
23.560000	220.005183
23.570000	224.332153
23.580000	229.634334
23.590000	233.257755
23.600000	236.900125
23.610000	241.680911
23.620000	250.679050
23.630000	262.133223
23.640000	276.305227
23.650000	291.854502
23.660000	309.445328
23.670000	327.954882
23.680000	346.534171
23.690000	366.232551
23.700000	390.360277
23.710000	416.758348
23.720000	439.110240
23.730000	453.911432
23.740000	464.957757
23.750000	474.892580
23.760000	478.150406
23.770000	471.610739
23.780000	459.439691
23.790000	448.400201
23.800000	438.861199
23.810000	431.693894
23.820000	431.693736
23.830000	442.147301
23.840000	458.204167
23.850000	473.314722
23.860000	488.702053
23.870000	508.108048
23.880000	529.557442
23.890000	549.728042
23.900000	567.592016
23.910000	588.326948
23.920000	612.657594
23.930000	637.627547
23.940000	661.228506
23.950000	684.331821
23.960000	709.978267
23.970000	736.285070
23.980000	761.227455
23.990000	783.629610
24.000000	806.108543
24.010000	827.450448
24.020000	847.718261
24.030000	868.108057
24.040000	894.965969
24.050000	928.339446
24.060000	957.876194
24.070000	975.637026
24.080000	981.324871
24.090000	981.916253
24.100000	977.341505
24.110000	965.458631
24.120000	950.666804
24.130000	937.162805
24.140000	928.147305
24.150000	922.226540
24.160000	921.361296
24.170000	925.553118
24.180000	929.705273
24.190000	932.172176
24.200000	931.987437
24.210000	934.320238
24.220000	935.487771
24.230000	935.985477
24.240000	935.695648
24.250000	937.046157
24.260000	939.375194
24.270000	939.025459
24.280000	938.130739
24.290000	938.156610
24.300000	942.272751
24.310000	947.519223
24.320000	953.359938
24.330000	960.374175
24.340000	968.932274
24.350000	980.386266
24.360000	994.201670
24.370000	1014.239587
24.380000	1037.696593
24.390000	1057.886859
24.400000	1071.583179
24.410000	1076.798845
24.420000	1076.870815
24.430000	1067.704109
24.440000	1052.234127
24.450000	1035.096321
24.460000	1019.848812
24.470000	1006.277955
24.480000	995.280328
24.490000	991.511882
24.500000	992.704613
24.510000	991.526366
24.520000	983.953696
24.530000	976.070335
24.540000	970.767721
24.550000	966.171700
24.560000	958.932214
24.570000	952.782837
24.580000	950.001288
24.590000	949.064185
24.600000	946.973431
24.610000	944.276288
24.620000	943.979966
24.630000	946.270908
24.640000	948.657835
24.650000	948.728536
24.660000	948.377176
24.670000	950.988160
24.680000	956.426631
24.690000	961.131731
24.700000	967.188155
24.710000	979.860184
24.720000	995.803736
24.730000	1002.771613
24.740000	993.457064
24.750000	973.986636
24.760000	950.563959
24.770000	921.720194
24.780000	887.351884
24.790000	850.920669
24.800000	816.257747
24.810000	778.965452
24.820000	740.755201
24.830000	709.934162
24.840000	693.579030
24.850000	687.951524
24.860000	682.473424
24.870000	672.999431
24.880000	657.931755
24.890000	635.483847
24.900000	606.730964
24.910000	579.440504
24.920000	563.419530
24.930000	559.335819
24.940000	559.604874
24.950000	559.455626
24.960000	559.023339
24.970000	560.683419
24.980000	559.047193
24.990000	548.559054
25.000000	528.856460
25.010000	509.468458
25.020000	499.305944
25.030000	501.656791
25.040000	516.936775
25.050000	540.233931
25.060000	561.959033
25.070000	570.213659
25.080000	566.022613
25.090000	559.098329
25.100000	553.690506
25.110000	545.233639
25.120000	531.111970
25.130000	515.703981
25.140000	502.602623
25.150000	489.100353
25.160000	478.530583
25.170000	477.137730
25.180000	488.623391
25.190000	507.525343
25.200000	526.995300
25.210000	548.803288
25.220000	573.868313
25.230000	604.484886
25.240000	638.665229
25.250000	674.895764
25.260000	706.601463
25.270000	725.465113
25.280000	727.392323
25.290000	717.136871
25.300000	705.601568
25.310000	702.407731
25.320000	709.930968
25.330000	725.252399
25.340000	741.619135
25.350000	754.374760
25.360000	759.465971
25.370000	761.473767
25.380000	767.033028
25.390000	775.681293
25.400000	781.722705
25.410000	779.141878
25.420000	773.290723
25.430000	764.604505
25.440000	755.348545
25.450000	745.748708
25.460000	740.462761
25.470000	736.317860
25.480000	731.054677
25.490000	724.587028
25.500000	718.680907
25.510000	712.863233
25.520000	705.878319
25.530000	700.400566
25.540000	700.208651
25.550000	705.265417
25.560000	713.986433
25.570000	722.128762
25.580000	721.304137
25.590000	707.471397
25.600000	677.071921
25.610000	642.800597
25.620000	610.021148
25.630000	586.704473
25.640000	572.253578
25.650000	564.935915
25.660000	563.595119
25.670000	564.370649
25.680000	569.183234
25.690000	572.645871
25.700000	573.561878
25.710000	572.027481
25.720000	572.618193
25.730000	576.151098
25.740000	578.742571
25.750000	577.595718
25.760000	572.527177
25.770000	566.927250
25.780000	562.388704
25.790000	559.785311
25.800000	558.883112
25.810000	559.168746
25.820000	558.224893
25.830000	557.764751
25.840000	562.772616
25.850000	576.984375
25.860000	592.440899
25.870000	596.918092
25.880000	588.346838
25.890000	568.942233
25.900000	543.668630
25.910000	509.206285
25.920000	470.879349
25.930000	434.868535
25.940000	405.472337
25.950000	380.552811
25.960000	359.796721
25.970000	347.092789
25.980000	342.371599
25.990000	340.322768
26.000000	336.440787
26.010000	333.531248
26.020000	332.093800
26.030000	328.876695
26.040000	321.231191
26.050000	314.085006
26.060000	310.613594
26.070000	309.084289
26.080000	305.791307
26.090000	302.371990
26.100000	302.672239
26.110000	307.118711
26.120000	313.559459
26.130000	318.778448
26.140000	322.926032
26.150000	326.243138
26.160000	328.189421
26.170000	327.840287
26.180000	327.254967
26.190000	331.362384
26.200000	341.191708
26.210000	347.400106
26.220000	346.493249
26.230000	335.789915
26.240000	323.180538
26.250000	303.900136
26.260000	280.004810
26.270000	253.130264
26.280000	229.502601
26.290000	209.114483
26.300000	192.086612
26.310000	180.788131
26.320000	182.777209
26.330000	193.852086
26.340000	212.552969
26.350000	228.545286
26.360000	245.578433
26.370000	254.402593
26.380000	256.938428
26.390000	249.020964
26.400000	240.079139
26.410000	228.153673
26.420000	219.625503
26.430000	208.467724
26.440000	203.264455
26.450000	199.522367
26.460000	208.989150
26.470000	218.483900
26.480000	234.243544
26.490000	241.943498
26.500000	263.655869
26.510000	293.206926
26.520000	345.897914
26.530000	400.915720
26.540000	470.226530
26.550000	537.356038
26.560000	613.806279
26.570000	665.235570
26.580000	704.708484
26.590000	712.210292
26.600000	729.080242
26.610000	738.846857
26.620000	771.235858
26.630000	790.702260
26.640000	825.663702
26.650000	857.369843
26.660000	943.594090
26.670000	1095.352954
26.680000	1363.758897
26.690000	1699.084531
26.700000	2067.058856
26.710000	2369.392783
26.720000	2407.779337
26.730000	1658.357552
26.740000	-456.669492
26.750000	-4668.398404
26.760000	-14893.549753
26.770000	-23944.304451
26.780000	-22964.014865
26.790000	-15029.559391
26.800000	-9496.844365
26.810000	-7147.943978
26.820000	-6347.966983
26.830000	-7071.746761
26.840000	-22223.879287
26.850000	-28787.919850
26.860000	-12117.005084
26.870000	-5498.967250
26.880000	-2809.019280
26.890000	-1227.731024
26.900000	-213.565355
26.910000	213.370656
26.920000	500.124944
26.930000	567.274823
26.940000	684.429789
26.950000	693.533978
26.960000	761.964114
26.970000	722.157856
26.980000	725.840372
26.990000	627.002377
27.000000	527.329162
27.010000	250.306021
27.020000	-112.828507
27.030000	-605.424220
27.040000	-1025.486549
27.050000	-1410.130015
27.060000	-1713.738495
27.070000	-2031.951859
27.080000	-2235.466581
27.090000	-2302.698513
27.100000	-2187.341384
27.110000	-2036.485227
27.120000	-1891.724749
27.130000	-1827.617024
27.140000	-1788.856581
27.150000	-1798.630677
27.160000	-1805.200690
27.170000	-1836.475185
27.180000	-1848.054191
27.190000	-1846.481968
27.200000	-1770.175431
27.210000	-1597.628436
27.220000	-1268.578812
27.230000	-790.877445
27.240000	-215.907870
27.250000	270.267501
27.260000	526.460130
27.270000	519.004886
27.280000	397.641601
27.290000	306.473105
27.300000	311.997672
27.310000	385.834163
27.320000	521.870773
27.330000	743.649014
27.340000	1103.085630
27.350000	1566.161119
27.360000	2071.010524
27.370000	2557.065034
27.380000	3015.982679
27.390000	3420.019389
27.400000	3723.734927
27.410000	3873.638495
27.420000	3842.290415
27.430000	3610.117840
27.440000	3201.082016
27.450000	2685.667986
27.460000	2155.656878
27.470000	1667.392366
27.480000	1237.347500
27.490000	864.722894
27.500000	556.863799
27.510000	323.209185
27.520000	170.145416
27.530000	89.871960
27.540000	63.594090
27.550000	65.304367
27.560000	74.188373
27.570000	82.282726
27.580000	96.426141
27.590000	129.547141
27.600000	193.554332
27.610000	275.594502
27.620000	349.505423
27.630000	388.558051
27.640000	389.704473
27.650000	363.181292
27.660000	314.662075
27.670000	246.373055
27.680000	169.162714
27.690000	85.284409
