Time(s)	GREEN_denoised_wiener
0.000000	70.895963
0.010000	57.427830
0.020000	-31.594172
0.030000	-101.450089
0.040000	-147.855393
0.050000	-175.029617
0.060000	-186.459907
0.070000	-187.292728
0.080000	-175.724745
0.090000	-154.247430
0.100000	-127.676143
0.110000	-106.899372
0.120000	-95.287834
0.130000	-91.218920
0.140000	-91.911376
0.150000	-90.208531
0.160000	-83.229119
0.170000	-66.877641
0.180000	-43.915574
0.190000	-17.230688
0.200000	12.720684
0.210000	46.066864
0.220000	83.340001
0.230000	123.341234
0.240000	165.274955
0.250000	208.262864
0.260000	251.523953
0.270000	294.832751
0.280000	338.754807
0.290000	381.040875
0.300000	423.308534
0.310000	466.559174
0.320000	510.837780
0.330000	554.049350
0.340000	598.356080
0.350000	655.542921
0.360000	717.797119
0.370000	757.291014
0.380000	748.219466
0.390000	688.412697
0.400000	599.014101
0.410000	499.504317
0.420000	408.446962
0.430000	337.216506
0.440000	290.167090
0.450000	262.208871
0.460000	246.521477
0.470000	242.523610
0.480000	254.527434
0.490000	277.450234
0.500000	304.833524
0.510000	328.341835
0.520000	350.472386
0.530000	366.181963
0.540000	369.076322
0.550000	353.325305
0.560000	315.989407
0.570000	264.464452
0.580000	204.531683
0.590000	138.226474
0.600000	71.383761
0.610000	4.940612
0.620000	-69.157085
0.630000	-147.014460
0.640000	-220.388485
0.650000	-282.342748
0.660000	-340.362921
0.670000	-390.008836
0.680000	-424.033999
0.690000	-446.744798
0.700000	-481.128319
0.710000	-527.791680
0.720000	-576.565881
0.730000	-602.170344
0.740000	-607.454437
0.750000	-604.615526
0.760000	-608.725502
0.770000	-626.078312
0.780000	-660.699147
0.790000	-710.901316
0.800000	-756.999686
0.810000	-790.130789
0.820000	-815.716622
0.830000	-837.065359
0.840000	-843.439622
0.850000	-831.398344
0.860000	-807.903297
0.870000	-784.122038
0.880000	-758.043651
0.890000	-732.572486
0.900000	-712.569674
0.910000	-707.750264
0.920000	-718.116718
0.930000	-733.949396
0.940000	-743.372919
0.950000	-739.210196
0.960000	-721.030093
0.970000	-696.877061
0.980000	-673.065639
0.990000	-659.938447
1.000000	-652.776938
1.010000	-652.064899
1.020000	-645.838480
1.030000	-631.602103
1.040000	-606.617749
1.050000	-574.207988
1.060000	-533.103412
1.070000	-488.551078
1.080000	-450.989605
1.090000	-422.925613
1.100000	-400.912970
1.110000	-373.331508
1.120000	-344.266901
1.130000	-312.443722
1.140000	-275.338730
1.150000	-229.608622
1.160000	-197.201905
1.170000	-203.839370
1.180000	-265.092967
1.190000	-363.702643
1.200000	-482.373570
1.210000	-602.284963
1.220000	-706.716781
1.230000	-778.924317
1.240000	-816.155786
1.250000	-837.681773
1.260000	-858.975561
1.270000	-874.439468
1.280000	-872.169702
1.290000	-861.313569
1.300000	-858.443051
1.310000	-872.224999
1.320000	-898.406843
1.330000	-927.180643
1.340000	-946.423959
1.350000	-948.541940
1.360000	-940.541259
1.370000	-934.978750
1.380000	-932.018309
1.390000	-926.461467
1.400000	-910.549134
1.410000	-885.697023
1.420000	-861.831135
1.430000	-844.983176
1.440000	-832.149762
1.450000	-816.319909
1.460000	-798.886532
1.470000	-784.728077
1.480000	-770.997408
1.490000	-750.185556
1.500000	-725.867628
1.510000	-704.045383
1.520000	-681.775741
1.530000	-647.611084
1.540000	-605.455351
1.550000	-582.302968
1.560000	-599.181429
1.570000	-665.358834
1.580000	-780.276883
1.590000	-928.771028
1.600000	-1081.396305
1.610000	-1198.217672
1.620000	-1262.643167
1.630000	-1281.124327
1.640000	-1270.314823
1.650000	-1251.440357
1.660000	-1229.004071
1.670000	-1206.149537
1.680000	-1184.753410
1.690000	-1176.616225
1.700000	-1180.530614
1.710000	-1193.474852
1.720000	-1214.711003
1.730000	-1237.714484
1.740000	-1255.954917
1.750000	-1263.686446
1.760000	-1270.303887
1.770000	-1283.717755
1.780000	-1292.997811
1.790000	-1284.805756
1.800000	-1250.768608
1.810000	-1205.352979
1.820000	-1168.952088
1.830000	-1141.908106
1.840000	-1113.501393
1.850000	-1077.872681
1.860000	-1043.820272
1.870000	-1017.559355
1.880000	-997.179229
1.890000	-975.627500
1.900000	-951.950388
1.910000	-930.772936
1.920000	-908.427249
1.930000	-874.294266
1.940000	-837.687007
1.950000	-837.290916
1.960000	-900.643950
1.970000	-1009.890508
1.980000	-1122.594143
1.990000	-1213.263877
2.000000	-1280.337092
2.010000	-1323.367139
2.020000	-1340.469370
2.030000	-1329.863742
2.040000	-1293.003352
2.050000	-1232.088316
2.060000	-1153.942369
2.070000	-1073.393622
2.080000	-1008.615727
2.090000	-962.715761
2.100000	-934.000505
2.110000	-912.071645
2.120000	-893.795934
2.130000	-874.480313
2.140000	-851.654235
2.150000	-824.282719
2.160000	-791.903592
2.170000	-757.817959
2.180000	-719.860110
2.190000	-682.426403
2.200000	-642.183580
2.210000	-602.440938
2.220000	-558.205084
2.230000	-514.871166
2.240000	-473.601775
2.250000	-432.679945
2.260000	-390.718810
2.270000	-345.204707
2.280000	-302.579159
2.290000	-262.763249
2.300000	-224.487561
2.310000	-184.701186
2.320000	-140.112554
2.330000	-87.690052
2.340000	-40.832519
2.350000	-24.092357
2.360000	-56.920904
2.370000	-134.810915
2.380000	-231.330756
2.390000	-325.592677
2.400000	-399.462439
2.410000	-450.798922
2.420000	-482.989485
2.430000	-502.727379
2.440000	-514.890960
2.450000	-514.674932
2.460000	-500.513303
2.470000	-478.020452
2.480000	-458.529201
2.490000	-446.725164
2.500000	-440.236094
2.510000	-436.472587
2.520000	-434.323280
2.530000	-431.258605
2.540000	-424.117474
2.550000	-413.764006
2.560000	-398.612850
2.570000	-377.979367
2.580000	-349.477280
2.590000	-315.247131
2.600000	-277.381120
2.610000	-238.889861
2.620000	-198.979854
2.630000	-158.575552
2.640000	-118.616436
2.650000	-79.965068
2.660000	-43.289415
2.670000	-4.043421
2.680000	35.649903
2.690000	79.525369
2.700000	123.866918
2.710000	171.076228
2.720000	218.034476
2.730000	267.275423
2.740000	323.173672
2.750000	382.420533
2.760000	426.572082
2.770000	431.517964
2.780000	389.650800
2.790000	313.305575
2.800000	228.402663
2.810000	153.041293
2.820000	94.762202
2.830000	44.368134
2.840000	-1.892456
2.850000	-40.647529
2.860000	-60.887789
2.870000	-56.036601
2.880000	-37.292762
2.890000	-17.457140
2.900000	-7.051456
2.910000	0.142066
2.920000	9.495046
2.930000	14.683758
2.940000	11.021069
2.950000	2.223974
2.960000	0.546401
2.970000	14.730826
2.980000	41.682585
2.990000	75.206278
3.000000	109.463952
3.010000	142.670814
3.020000	177.569456
3.030000	217.114718
3.040000	254.293450
3.050000	278.194197
3.060000	284.682753
3.070000	286.968419
3.080000	305.405866
3.090000	349.360383
3.100000	413.403344
3.110000	482.040102
3.120000	545.732989
3.130000	600.050049
3.140000	646.729514
3.150000	686.373870
3.160000	727.398214
3.170000	770.995624
3.180000	806.352085
3.190000	812.240638
3.200000	778.321423
3.210000	711.519002
3.220000	623.958005
3.230000	537.143114
3.240000	465.896570
3.250000	426.759300
3.260000	419.777531
3.270000	433.331486
3.280000	457.986207
3.290000	482.554244
3.300000	501.867135
3.310000	510.097911
3.320000	506.752423
3.330000	490.295425
3.340000	462.637537
3.350000	434.507839
3.360000	420.524328
3.370000	423.345382
3.380000	432.032060
3.390000	438.850323
3.400000	437.536064
3.410000	432.042529
3.420000	436.059645
3.430000	459.885218
3.440000	496.194921
3.450000	528.696996
3.460000	548.344101
3.470000	561.879772
3.480000	580.165835
3.490000	607.706608
3.500000	632.604315
3.510000	643.196157
3.520000	643.748884
3.530000	655.060377
3.540000	684.519485
3.550000	711.510799
3.560000	724.645462
3.570000	733.014419
3.580000	762.815617
3.590000	824.472144
3.600000	897.899648
3.610000	944.543701
3.620000	936.343954
3.630000	877.368506
3.640000	800.198456
3.650000	729.503673
3.660000	672.671116
3.670000	633.628495
3.680000	611.797416
3.690000	608.758786
3.700000	617.566683
3.710000	635.901684
3.720000	659.998724
3.730000	684.039192
3.740000	706.108572
3.750000	721.502953
3.760000	733.240372
3.770000	735.944558
3.780000	731.392868
3.790000	724.061436
3.800000	719.884039
3.810000	725.515103
3.820000	738.017140
3.830000	753.634926
3.840000	769.487836
3.850000	788.773424
3.860000	814.292871
3.870000	840.892276
3.880000	862.430838
3.890000	882.373253
3.900000	906.243631
3.910000	939.189119
3.920000	978.370498
3.930000	1015.325629
3.940000	1045.510954
3.950000	1071.484535
3.960000	1101.336221
3.970000	1137.297021
3.980000	1175.146820
3.990000	1210.111075
4.000000	1239.967553
4.010000	1261.592468
4.020000	1280.147541
4.030000	1305.757334
4.040000	1325.266768
4.050000	1317.570201
4.060000	1269.744962
4.070000	1194.790736
4.080000	1111.575712
4.090000	1020.296388
4.100000	933.443251
4.110000	856.452301
4.120000	797.654988
4.130000	749.233371
4.140000	705.876386
4.150000	664.021947
4.160000	621.437391
4.170000	576.815604
4.180000	528.667011
4.190000	484.970958
4.200000	448.551401
4.210000	423.130943
4.220000	406.087090
4.230000	392.954490
4.240000	376.283097
4.250000	349.448710
4.260000	316.844323
4.270000	288.961191
4.280000	268.385231
4.290000	262.488091
4.300000	270.571795
4.310000	283.659952
4.320000	289.082456
4.330000	291.881241
4.340000	299.934894
4.350000	313.080970
4.360000	324.770183
4.370000	338.308025
4.380000	362.955287
4.390000	395.835064
4.400000	425.449895
4.410000	448.049754
4.420000	465.960753
4.430000	488.950966
4.440000	510.760187
4.450000	530.198551
4.460000	557.255952
4.470000	603.114877
4.480000	665.379728
4.490000	720.638619
4.500000	744.499112
4.510000	719.512895
4.520000	652.683607
4.530000	551.385959
4.540000	436.903886
4.550000	327.915925
4.560000	237.773398
4.570000	161.392257
4.580000	87.957304
4.590000	26.586607
4.600000	-5.841075
4.610000	-2.584021
4.620000	15.280136
4.630000	30.250971
4.640000	30.078024
4.650000	17.121481
4.660000	-10.139561
4.670000	-54.683695
4.680000	-102.315194
4.690000	-153.534657
4.700000	-196.796699
4.710000	-228.078773
4.720000	-245.289534
4.730000	-261.336978
4.740000	-289.122107
4.750000	-314.193345
4.760000	-322.963870
4.770000	-320.106872
4.780000	-324.184313
4.790000	-333.973448
4.800000	-337.048228
4.810000	-318.173403
4.820000	-284.982900
4.830000	-258.418034
4.840000	-247.894221
4.850000	-244.955396
4.860000	-232.122751
4.870000	-204.870500
4.880000	-181.088520
4.890000	-165.090828
4.900000	-148.695983
4.910000	-130.673094
4.920000	-129.032644
4.930000	-173.631080
4.940000	-266.970859
4.950000	-390.207283
4.960000	-516.898552
4.970000	-623.802782
4.980000	-697.530640
4.990000	-737.444126
5.000000	-750.193722
5.010000	-746.440945
5.020000	-728.177593
5.030000	-702.797340
5.040000	-682.185342
5.050000	-679.167993
5.060000	-696.176338
5.070000	-725.522775
5.080000	-756.170171
5.090000	-777.223429
5.100000	-780.517092
5.110000	-771.306640
5.120000	-768.580860
5.130000	-777.364050
5.140000	-787.615896
5.150000	-778.738525
5.160000	-749.717526
5.170000	-712.829051
5.180000	-676.822421
5.190000	-640.906391
5.200000	-602.936678
5.210000	-565.677012
5.220000	-532.733101
5.230000	-501.777908
5.240000	-467.868955
5.250000	-429.902671
5.260000	-386.684588
5.270000	-339.714900
5.280000	-290.847959
5.290000	-247.556021
5.300000	-210.673255
5.310000	-175.395172
5.320000	-131.162957
5.330000	-72.595446
5.340000	-20.070331
5.350000	-4.504947
5.360000	-47.967033
5.370000	-137.665694
5.380000	-243.830778
5.390000	-341.520067
5.400000	-414.398547
5.410000	-462.767201
5.420000	-488.985722
5.430000	-501.377814
5.440000	-505.245040
5.450000	-500.654503
5.460000	-487.851972
5.470000	-470.955618
5.480000	-455.142269
5.490000	-447.275151
5.500000	-443.082427
5.510000	-440.949083
5.520000	-439.035725
5.530000	-434.300118
5.540000	-427.011840
5.550000	-414.322957
5.560000	-397.345843
5.570000	-375.354397
5.580000	-350.033421
5.590000	-321.729082
5.600000	-292.405666
5.610000	-259.772267
5.620000	-226.805860
5.630000	-191.816074
5.640000	-157.899269
5.650000	-122.858700
5.660000	-86.010145
5.670000	-46.915270
5.680000	-6.471245
5.690000	33.345353
5.700000	74.732658
5.710000	115.246810
5.720000	156.601610
5.730000	196.457476
5.740000	238.474095
5.750000	281.976670
5.760000	327.336595
5.770000	379.495600
5.780000	435.497961
5.790000	477.962170
5.800000	483.296232
5.810000	442.121774
5.820000	366.474010
5.830000	276.624720
5.840000	189.964618
5.850000	123.781482
5.860000	82.741346
5.870000	60.896565
5.880000	48.160864
5.890000	33.329418
5.900000	9.245693
5.910000	-27.907682
5.920000	-68.645381
5.930000	-97.808288
5.940000	-112.582769
5.950000	-125.764155
5.960000	-150.199337
5.970000	-183.691055
5.980000	-210.457594
5.990000	-216.635535
6.000000	-196.751184
6.010000	-156.957551
6.020000	-113.752098
6.030000	-83.959350
6.040000	-67.050876
6.050000	-59.632110
6.060000	-60.033196
6.070000	-68.656004
6.080000	-76.000401
6.090000	-73.026548
6.100000	-70.366996
6.110000	-65.372608
6.120000	-52.404008
6.130000	-33.752384
6.140000	-18.805749
6.150000	-8.454024
6.160000	8.814732
6.170000	37.145626
6.180000	66.384161
6.190000	91.414036
6.200000	111.955158
6.210000	135.024135
6.220000	164.840152
6.230000	191.249802
6.240000	202.375481
6.250000	182.787479
6.260000	133.945658
6.270000	65.335683
6.280000	-8.147466
6.290000	-75.805774
6.300000	-127.921393
6.310000	-160.307175
6.320000	-182.410833
6.330000	-197.135307
6.340000	-203.902058
6.350000	-197.963309
6.360000	-186.437166
6.370000	-176.469317
6.380000	-171.306133
6.390000	-177.328471
6.400000	-189.153961
6.410000	-202.869463
6.420000	-211.671620
6.430000	-214.102872
6.440000	-205.190653
6.450000	-187.367610
6.460000	-171.410222
6.470000	-158.951479
6.480000	-141.947415
6.490000	-111.209696
6.500000	-68.859785
6.510000	-23.830692
6.520000	15.552157
6.530000	49.895535
6.540000	78.616901
6.550000	106.292043
6.560000	136.668864
6.570000	176.018353
6.580000	219.346136
6.590000	252.375463
6.600000	273.380884
6.610000	293.089820
6.620000	323.074370
6.630000	361.423600
6.640000	396.731602
6.650000	412.733896
6.660000	388.031290
6.670000	322.759928
6.680000	240.050750
6.690000	168.791745
6.700000	125.024924
6.710000	94.396762
6.720000	69.675362
6.730000	48.003854
6.740000	41.690863
6.750000	61.597063
6.760000	99.978711
6.770000	142.829869
6.780000	163.221212
6.790000	161.795234
6.800000	148.813645
6.810000	143.107664
6.820000	149.691671
6.830000	154.691770
6.840000	154.254118
6.850000	149.613429
6.860000	149.494056
6.870000	149.823538
6.880000	148.730311
6.890000	148.702566
6.900000	151.287600
6.910000	156.567862
6.920000	161.158996
6.930000	166.436529
6.940000	158.311551
6.950000	130.316432
6.960000	92.165521
6.970000	71.235147
6.980000	77.629019
6.990000	104.096496
7.000000	135.059944
7.010000	168.986716
7.020000	213.840575
7.030000	254.804653
7.040000	286.972039
7.050000	310.961374
7.060000	347.482283
7.070000	390.367866
7.080000	403.901610
7.090000	371.818009
7.100000	302.378515
7.110000	214.955530
7.120000	120.823350
7.130000	31.082724
7.140000	-35.386992
7.150000	-74.841552
7.160000	-94.303499
7.170000	-112.474523
7.180000	-138.871420
7.190000	-169.413481
7.200000	-190.757256
7.210000	-189.696193
7.220000	-164.016686
7.230000	-114.664337
7.240000	-52.981446
7.250000	9.690730
7.260000	63.380747
7.270000	94.024395
7.280000	89.738751
7.290000	65.087166
7.300000	48.792097
7.310000	64.124731
7.320000	107.427896
7.330000	164.122024
7.340000	220.723077
7.350000	265.781258
7.360000	301.712673
7.370000	336.779522
7.380000	377.019109
7.390000	422.083172
7.400000	471.314255
7.410000	522.371727
7.420000	570.592518
7.430000	604.631389
7.440000	627.566482
7.450000	640.541780
7.460000	653.219837
7.470000	672.767927
7.480000	701.850045
7.490000	730.281279
7.500000	738.109191
7.510000	715.812312
7.520000	665.723186
7.530000	591.669666
7.540000	499.999571
7.550000	408.881536
7.560000	335.929725
7.570000	292.732056
7.580000	271.795914
7.590000	258.551482
7.600000	240.990717
7.610000	223.738067
7.620000	211.172889
7.630000	204.904985
7.640000	194.977795
7.650000	182.757396
7.660000	160.745975
7.670000	121.263484
7.680000	71.542515
7.690000	28.784243
7.700000	12.332119
7.710000	20.902081
7.720000	42.746606
7.730000	63.332444
7.740000	75.501413
7.750000	86.121281
7.760000	100.906222
7.770000	122.220642
7.780000	149.622934
7.790000	180.299649
7.800000	201.632094
7.810000	195.014808
7.820000	169.703588
7.830000	146.413802
7.840000	143.754870
7.850000	153.056654
7.860000	162.783611
7.870000	164.693759
7.880000	160.157168
7.890000	154.994712
7.900000	146.157863
7.910000	119.917701
7.920000	61.139272
7.930000	-19.102875
7.940000	-101.204907
7.950000	-166.140850
7.960000	-224.312519
7.970000	-289.203358
7.980000	-356.052887
7.990000	-405.909881
8.000000	-421.480924
8.010000	-405.354248
8.020000	-365.273144
8.030000	-311.154728
8.040000	-263.110288
8.050000	-235.289204
8.060000	-230.266122
8.070000	-236.401899
8.080000	-243.443128
8.090000	-259.582730
8.100000	-291.968173
8.110000	-328.060504
8.120000	-347.155239
8.130000	-334.906958
8.140000	-297.416441
8.150000	-243.445462
8.160000	-181.695646
8.170000	-123.008103
8.180000	-69.636283
8.190000	-21.917255
8.200000	24.751452
8.210000	69.138955
8.220000	109.786523
8.230000	148.184471
8.240000	183.797147
8.250000	219.219616
8.260000	256.119497
8.270000	293.561792
8.280000	331.090584
8.290000	369.889132
8.300000	418.729746
8.310000	469.818104
8.320000	500.976436
8.330000	488.723759
8.340000	431.931342
8.350000	348.996426
8.360000	264.549973
8.370000	190.881685
8.380000	133.128664
8.390000	91.065136
8.400000	61.010668
8.410000	36.888018
8.420000	17.217861
8.430000	3.698735
8.440000	-1.260678
8.450000	-6.208447
8.460000	-14.412641
8.470000	-26.128735
8.480000	-38.243521
8.490000	-48.740327
8.500000	-59.774272
8.510000	-68.025414
8.520000	-72.332942
8.530000	-70.663547
8.540000	-69.269932
8.550000	-74.323807
8.560000	-88.887516
8.570000	-104.976311
8.580000	-122.215373
8.590000	-134.970527
8.600000	-142.245576
8.610000	-146.664408
8.620000	-174.029278
8.630000	-225.313380
8.640000	-284.790513
8.650000	-330.635782
8.660000	-362.968979
8.670000	-395.352169
8.680000	-413.762186
8.690000	-417.462328
8.700000	-403.573557
8.710000	-390.321266
8.720000	-375.018403
8.730000	-358.881934
8.740000	-350.507950
8.750000	-363.146575
8.760000	-397.988987
8.770000	-455.767987
8.780000	-539.501080
8.790000	-631.356999
8.800000	-705.014795
8.810000	-752.020097
8.820000	-797.646231
8.830000	-848.991760
8.840000	-897.927722
8.850000	-931.308247
8.860000	-958.964308
8.870000	-984.299112
8.880000	-1003.673625
8.890000	-1016.657564
8.900000	-1036.780084
8.910000	-1067.681012
8.920000	-1092.856724
8.930000	-1102.414799
8.940000	-1109.020838
8.950000	-1118.154361
8.960000	-1129.193695
8.970000	-1138.578000
8.980000	-1147.070553
8.990000	-1155.025941
9.000000	-1154.282740
9.010000	-1150.203031
9.020000	-1140.164951
9.030000	-1124.078968
9.040000	-1109.426446
9.050000	-1107.991805
9.060000	-1115.669296
9.070000	-1111.550069
9.080000	-1081.622571
9.090000	-1038.539612
9.100000	-1003.290010
9.110000	-986.190997
9.120000	-975.922383
9.130000	-962.537053
9.140000	-938.585713
9.150000	-898.579114
9.160000	-835.602269
9.170000	-763.368154
9.180000	-712.355035
9.190000	-705.827379
9.200000	-747.410358
9.210000	-813.234078
9.220000	-881.494165
9.230000	-924.313393
9.240000	-932.317902
9.250000	-924.827097
9.260000	-925.174714
9.270000	-941.654672
9.280000	-964.002187
9.290000	-981.836680
9.300000	-996.549856
9.310000	-1004.024524
9.320000	-1004.129205
9.330000	-1002.248011
9.340000	-998.714930
9.350000	-1001.178247
9.360000	-1012.640964
9.370000	-1026.434722
9.380000	-1032.242841
9.390000	-1028.734798
9.400000	-1018.540899
9.410000	-999.038790
9.420000	-961.506918
9.430000	-903.377427
9.440000	-835.861549
9.450000	-773.074492
9.460000	-728.564754
9.470000	-694.729934
9.480000	-661.610959
9.490000	-628.760639
9.500000	-595.003962
9.510000	-555.128708
9.520000	-501.404820
9.530000	-435.537110
9.540000	-362.829628
9.550000	-292.302758
9.560000	-225.246549
9.570000	-163.415998
9.580000	-99.651601
9.590000	-28.212048
9.600000	48.575972
9.610000	114.274964
9.620000	144.437065
9.630000	133.469653
9.640000	91.998962
9.650000	41.350352
9.660000	-5.137421
9.670000	-38.791075
9.680000	-59.639986
9.690000	-70.949972
9.700000	-78.825229
9.710000	-84.102250
9.720000	-78.994271
9.730000	-63.950934
9.740000	-43.514636
