Time(s)	IR_denoised_wiener
0.000000	462.139368
0.010000	734.076596
0.020000	794.017515
0.030000	665.575326
0.040000	473.883492
0.050000	234.676641
0.060000	-30.868379
0.070000	-300.800714
0.080000	-561.548409
0.090000	-789.587616
0.100000	-962.126090
0.110000	-1069.369823
0.120000	-1128.087929
0.130000	-1156.756379
0.140000	-1168.938196
0.150000	-1160.981641
0.160000	-1147.927540
0.170000	-1136.433610
0.180000	-1132.848710
0.190000	-1124.840802
0.200000	-1105.406538
0.210000	-1079.490801
0.220000	-1052.581434
0.230000	-1032.784725
0.240000	-1013.183915
0.250000	-989.731158
0.260000	-955.622643
0.270000	-917.505709
0.280000	-883.820105
0.290000	-850.415531
0.300000	-806.069525
0.310000	-741.993598
0.320000	-671.204575
0.330000	-607.459211
0.340000	-553.720431
0.350000	-497.731442
0.360000	-430.479391
0.370000	-352.620771
0.380000	-277.317159
0.390000	-216.854274
0.400000	-183.728461
0.410000	-175.473351
0.420000	-183.350505
0.430000	-205.048050
0.440000	-237.106503
0.450000	-275.324470
0.460000	-304.280978
0.470000	-327.082284
0.480000	-351.859570
0.490000	-373.821619
0.500000	-374.189915
0.510000	-343.560146
0.520000	-295.482866
0.530000	-249.507725
0.540000	-213.220799
0.550000	-178.886836
0.560000	-136.352646
0.570000	-83.387114
0.580000	-27.061396
0.590000	22.456065
0.600000	63.632897
0.610000	96.439598
0.620000	122.685039
0.630000	139.747278
0.640000	148.205515
0.650000	147.279381
0.660000	129.241298
0.670000	95.420894
0.680000	47.938129
0.690000	2.188738
0.700000	-51.631529
0.710000	-116.236552
0.720000	-197.462723
0.730000	-288.611914
0.740000	-382.987027
0.750000	-481.278719
0.760000	-573.371456
0.770000	-662.612695
0.780000	-742.850732
0.790000	-816.148212
0.800000	-878.226472
0.810000	-930.321496
0.820000	-979.237946
0.830000	-1031.328219
0.840000	-1088.950838
0.850000	-1151.605829
0.860000	-1214.369903
0.870000	-1275.080091
0.880000	-1331.638180
0.890000	-1381.516977
0.900000	-1423.771293
0.910000	-1459.044353
0.920000	-1492.794140
0.930000	-1531.665719
0.940000	-1577.885160
0.950000	-1625.334349
0.960000	-1671.204696
0.970000	-1710.869759
0.980000	-1747.114818
0.990000	-1784.967160
1.000000	-1820.755074
1.010000	-1854.529567
1.020000	-1877.799298
1.030000	-1896.733241
1.040000	-1924.786030
1.050000	-1958.967230
1.060000	-2000.929663
1.070000	-2035.009894
1.080000	-2067.999833
1.090000	-2099.479331
1.100000	-2130.327977
1.110000	-2152.708767
1.120000	-2154.552783
1.130000	-2144.423214
1.140000	-2128.241387
1.150000	-2116.206514
1.160000	-2093.608618
1.170000	-2064.477000
1.180000	-2040.282100
1.190000	-2031.128274
1.200000	-2027.116956
1.210000	-2007.333091
1.220000	-1968.101649
1.230000	-1917.107019
1.240000	-1867.957111
1.250000	-1827.688862
1.260000	-1794.496132
1.270000	-1758.630673
1.280000	-1717.813079
1.290000	-1670.987077
1.300000	-1626.366398
1.310000	-1583.039312
1.320000	-1537.427163
1.330000	-1485.171810
1.340000	-1421.790073
1.350000	-1360.379354
1.360000	-1306.864306
1.370000	-1266.342551
1.380000	-1235.759846
1.390000	-1215.420996
1.400000	-1199.715906
1.410000	-1179.691624
1.420000	-1153.475435
1.430000	-1126.772639
1.440000	-1103.326779
1.450000	-1075.786187
1.460000	-1043.432743
1.470000	-1005.909310
1.480000	-968.904959
1.490000	-934.680147
1.500000	-905.491224
1.510000	-878.984794
1.520000	-846.828322
1.530000	-803.534525
1.540000	-748.869894
1.550000	-690.806643
1.560000	-634.463435
1.570000	-572.803527
1.580000	-486.895758
1.590000	-368.654545
1.600000	-224.537806
1.610000	-68.231306
1.620000	98.195052
1.630000	278.088940
1.640000	459.819565
1.650000	626.243663
1.660000	759.968979
1.670000	867.390904
1.680000	963.243417
1.690000	1051.783262
1.700000	1128.881824
1.710000	1182.096003
1.720000	1216.691276
1.730000	1239.268444
1.740000	1260.481716
1.750000	1288.164714
1.760000	1319.501464
1.770000	1354.592036
1.780000	1381.628759
1.790000	1405.623766
1.800000	1430.364174
1.810000	1460.613069
1.820000	1492.219184
1.830000	1515.296136
1.840000	1532.420620
1.850000	1546.032650
1.860000	1561.915933
1.870000	1575.987535
1.880000	1588.373466
1.890000	1597.535978
1.900000	1610.815107
1.910000	1626.076878
1.920000	1645.097853
1.930000	1662.733561
1.940000	1673.526447
1.950000	1680.477970
1.960000	1683.748276
1.970000	1694.321103
1.980000	1701.209252
1.990000	1696.885809
2.000000	1676.374218
2.010000	1640.625794
2.020000	1598.715263
2.030000	1551.123704
2.040000	1508.573793
2.050000	1470.695828
2.060000	1434.653064
2.070000	1400.415932
2.080000	1364.498251
2.090000	1333.096644
2.100000	1295.475472
2.110000	1252.969176
2.120000	1206.896987
2.130000	1166.114393
2.140000	1131.941567
2.150000	1095.875421
2.160000	1057.805857
2.170000	1023.667141
2.180000	1001.005733
2.190000	982.480262
2.200000	956.729653
2.210000	920.882696
2.220000	882.386773
2.230000	851.728325
2.240000	829.529925
2.250000	811.300473
2.260000	794.554956
2.270000	769.358878
2.280000	742.316259
2.290000	712.901073
2.300000	692.897202
2.310000	672.623275
2.320000	638.424527
2.330000	591.612848
2.340000	531.681723
2.350000	471.078520
2.360000	401.113217
2.370000	333.389973
2.380000	268.996630
2.390000	210.884461
2.400000	157.586087
2.410000	105.980506
2.420000	65.082260
2.430000	29.378994
2.440000	7.046781
2.450000	-6.582090
2.460000	-9.563228
2.470000	-6.873421
2.480000	1.013419
2.490000	15.216000
2.500000	29.148791
2.510000	37.459451
2.520000	31.529067
2.530000	20.723708
2.540000	12.044067
2.550000	19.946898
2.560000	39.933046
2.570000	67.415801
2.580000	98.077578
2.590000	129.915678
2.600000	165.946587
2.610000	190.324721
2.620000	207.175300
2.630000	216.721279
2.640000	236.187665
2.650000	260.893140
2.660000	282.084316
2.670000	295.205126
2.680000	300.686476
2.690000	307.010916
2.700000	312.571957
2.710000	320.401488
2.720000	327.982750
2.730000	335.698494
2.740000	341.263436
2.750000	344.226889
2.760000	344.761177
2.770000	343.420457
2.780000	343.706773
2.790000	351.621564
2.800000	364.588310
2.810000	382.046903
2.820000	394.287974
2.830000	409.334724
2.840000	432.170215
2.850000	467.939265
2.860000	511.974001
2.870000	547.677776
2.880000	575.176830
2.890000	594.946577
2.900000	613.606818
2.910000	625.450221
2.920000	625.117591
2.930000	617.867394
2.940000	609.819550
2.950000	608.030548
2.960000	608.868333
2.970000	606.362488
2.980000	595.100806
2.990000	577.358829
3.000000	572.605752
3.010000	599.524896
3.020000	662.540674
3.030000	739.158175
3.040000	803.852807
3.050000	847.940671
3.060000	875.514374
3.070000	886.755342
3.080000	876.756961
3.090000	846.654044
3.100000	810.788658
3.110000	779.020629
3.120000	753.713983
3.130000	728.049110
3.140000	693.896109
3.150000	651.053446
3.160000	594.422418
3.170000	529.489867
3.180000	455.392866
3.190000	378.335308
3.200000	296.574206
3.210000	199.162575
3.220000	86.626695
3.230000	-37.744386
3.240000	-158.336570
3.250000	-274.039184
3.260000	-386.066373
3.270000	-494.974104
3.280000	-601.331792
3.290000	-697.174781
3.300000	-782.513476
3.310000	-854.564462
3.320000	-923.642276
3.330000	-997.146075
3.340000	-1074.493155
3.350000	-1146.894441
3.360000	-1202.762983
3.370000	-1246.725218
3.380000	-1288.050215
3.390000	-1333.762279
3.400000	-1380.273293
3.410000	-1423.462216
3.420000	-1465.304231
3.430000	-1513.863903
3.440000	-1570.966518
3.450000	-1637.151165
3.460000	-1701.232741
3.470000	-1758.702499
3.480000	-1806.400263
3.490000	-1848.969177
3.500000	-1893.590380
3.510000	-1941.431122
3.520000	-1988.654033
3.530000	-2029.555855
3.540000	-2069.907200
3.550000	-2125.632024
3.560000	-2206.366337
3.570000	-2303.950649
3.580000	-2404.481656
3.590000	-2498.411482
3.600000	-2587.124993
3.610000	-2667.298331
3.620000	-2737.247114
3.630000	-2789.718288
3.640000	-2832.142966
3.650000	-2864.998444
3.660000	-2899.233617
3.670000	-2935.455906
3.680000	-2976.248635
3.690000	-3020.463440
3.700000	-3066.505737
3.710000	-3114.610369
3.720000	-3159.977201
3.730000	-3198.895428
3.740000	-3232.492618
3.750000	-3264.440239
3.760000	-3297.015069
3.770000	-3323.852392
3.780000	-3327.264845
3.790000	-3310.965572
3.800000	-3289.248831
3.810000	-3299.791356
3.820000	-3337.226772
3.830000	-3388.155519
3.840000	-3432.622255
3.850000	-3472.440663
3.860000	-3513.383662
3.870000	-3551.133982
3.880000	-3591.435074
3.890000	-3632.244236
3.900000	-3676.862083
3.910000	-3718.645314
3.920000	-3759.347395
3.930000	-3798.711709
3.940000	-3834.610661
3.950000	-3862.662034
3.960000	-3885.811416
3.970000	-3911.196124
3.980000	-3944.565865
3.990000	-3983.800879
4.000000	-4026.655803
4.010000	-4069.733073
4.020000	-4114.549920
4.030000	-4155.960157
4.040000	-4192.794452
4.050000	-4221.056848
4.060000	-4238.483257
4.070000	-4248.400876
4.080000	-4254.604194
4.090000	-4275.818955
4.100000	-4316.069193
4.110000	-4373.191359
4.120000	-4436.240109
4.130000	-4501.922885
4.140000	-4571.519902
4.150000	-4636.914708
4.160000	-4694.459342
4.170000	-4743.452039
4.180000	-4790.401869
4.190000	-4840.171544
4.200000	-4892.943316
4.210000	-4952.988676
4.220000	-5014.492957
4.230000	-5072.435043
4.240000	-5124.784156
4.250000	-5172.963273
4.260000	-5221.925611
4.270000	-5259.118353
4.280000	-5277.365603
4.290000	-5274.909254
4.300000	-5266.826378
4.310000	-5269.306741
4.320000	-5287.591583
4.330000	-5320.262377
4.340000	-5357.779650
4.350000	-5400.192359
4.360000	-5445.415517
4.370000	-5496.062408
4.380000	-5553.049498
4.390000	-5609.909208
4.400000	-5668.953361
4.410000	-5726.398702
4.420000	-5799.183451
4.430000	-5890.370252
4.440000	-5997.696670
4.450000	-6111.408576
4.460000	-6225.977886
4.470000	-6343.144435
4.480000	-6458.736708
4.490000	-6567.525574
4.500000	-6671.588848
4.510000	-6763.945727
4.520000	-6852.897944
4.530000	-6931.922876
4.540000	-7019.144355
4.550000	-7104.267124
4.560000	-7191.140754
4.570000	-7269.611409
4.580000	-7353.698814
4.590000	-7439.713105
4.600000	-7525.001028
4.610000	-7586.559093
4.620000	-7622.912064
4.630000	-7628.016606
4.640000	-7615.393172
4.650000	-7579.007430
4.660000	-7527.274909
4.670000	-7452.891736
4.680000	-7374.588199
4.690000	-7294.896691
4.700000	-7234.252888
4.710000	-7186.753924
4.720000	-7161.771807
4.730000	-7149.514475
4.740000	-7173.759888
4.750000	-7229.807848
4.760000	-7348.963437
4.770000	-7507.394058
4.780000	-7805.818278
4.790000	-8194.441741
4.800000	-8698.879714
4.810000	-9156.561894
4.820000	-9655.808941
4.830000	-10150.443003
4.840000	-10692.776528
4.850000	-11123.742155
4.860000	-11189.489727
4.870000	-10523.871832
4.880000	-8810.634932
4.890000	-5968.593352
4.900000	-1253.774141
4.910000	11994.041423
4.920000	17056.606414
4.930000	17113.692206
4.940000	10359.645521
4.950000	-3533.524425
4.960000	-4354.957053
4.970000	-1052.842828
4.980000	4939.091714
4.990000	7586.189235
5.000000	9108.101973
5.010000	9662.282702
5.020000	9511.091172
5.030000	7986.718918
5.040000	367.982214
5.050000	-14087.984919
5.060000	-14206.101000
5.070000	-10964.779180
5.080000	-5732.416116
5.090000	-3463.299260
5.100000	-2177.390346
5.110000	-1097.765100
5.120000	688.221834
5.130000	3063.853804
5.140000	5817.738952
5.150000	8263.817931
5.160000	10187.504051
5.170000	11355.118865
5.180000	11996.779885
5.190000	12159.824592
5.200000	12082.338944
5.210000	11720.386873
5.220000	11253.605506
5.230000	10667.088466
5.240000	10105.555656
5.250000	9478.420266
5.260000	8810.919500
5.270000	8018.362101
5.280000	7206.279868
5.290000	6389.884547
5.300000	5662.623643
5.310000	5007.866504
5.320000	4509.328862
5.330000	4141.645779
5.340000	3921.430247
5.350000	3685.287363
5.360000	3447.906739
5.370000	3137.888939
5.380000	2540.095172
5.390000	1548.666312
5.400000	206.712679
5.410000	-883.776682
5.420000	-1576.099609
5.430000	-1888.091721
5.440000	-2085.710058
5.450000	-2261.787758
5.460000	-2365.458789
5.470000	-2447.412985
5.480000	-2456.404139
5.490000	-2451.375853
5.500000	-2398.661148
5.510000	-2321.510356
5.520000	-2177.898606
5.530000	-2000.364532
5.540000	-1794.631896
5.550000	-1603.621696
5.560000	-1423.393673
5.570000	-1266.161247
5.580000	-1122.524969
5.590000	-1001.654817
5.600000	-896.370571
5.610000	-803.232672
5.620000	-706.157221
5.630000	-599.922112
5.640000	-482.959679
5.650000	-364.934666
5.660000	-246.807026
5.670000	-143.940815
5.680000	-67.935627
5.690000	-35.094725
5.700000	-27.276130
5.710000	-27.136467
5.720000	-23.485772
5.730000	-10.853629
5.740000	4.749647
5.750000	27.636564
5.760000	41.837202
5.770000	53.078579
5.780000	64.107127
5.790000	79.823042
5.800000	109.279208
5.810000	155.728496
5.820000	234.633483
5.830000	329.443034
5.840000	428.809917
5.850000	519.816884
5.860000	613.030274
5.870000	733.176044
5.880000	894.338891
5.890000	1098.616295
5.900000	1313.391470
5.910000	1510.466150
5.920000	1668.986069
5.930000	1788.941969
5.940000	1874.338678
5.950000	1937.656704
5.960000	1989.540900
5.970000	2035.214379
5.980000	2063.413940
5.990000	2067.349201
6.000000	2050.227730
6.010000	2034.711592
6.020000	2044.613948
6.030000	2092.254625
6.040000	2166.674401
6.050000	2250.350317
6.060000	2336.945827
6.070000	2426.860959
6.080000	2515.240473
6.090000	2589.496153
6.100000	2646.988783
6.110000	2688.104365
6.120000	2715.718214
6.130000	2725.083352
6.140000	2717.683905
6.150000	2692.920237
6.160000	2649.861424
6.170000	2592.219928
6.180000	2523.373380
6.190000	2444.289061
6.200000	2350.760239
6.210000	2245.635843
6.220000	2143.459635
6.230000	2056.219010
6.240000	1984.019966
6.250000	1918.685298
6.260000	1856.542447
6.270000	1806.270654
6.280000	1776.680815
6.290000	1766.753203
6.300000	1768.518351
6.310000	1770.065338
6.320000	1758.319931
6.330000	1727.278550
6.340000	1681.605870
6.350000	1636.645692
6.360000	1598.835098
6.370000	1569.758368
6.380000	1548.610282
6.390000	1531.525286
6.400000	1509.259527
6.410000	1477.444263
6.420000	1444.114047
6.430000	1412.136537
6.440000	1376.852885
6.450000	1327.607580
6.460000	1273.972238
6.470000	1226.908589
6.480000	1186.533044
6.490000	1146.116283
6.500000	1100.166713
6.510000	1054.898811
6.520000	1010.509673
6.530000	969.324640
6.540000	935.504151
6.550000	912.945771
6.560000	897.997692
6.570000	882.079279
6.580000	859.949277
6.590000	831.344499
6.600000	803.838113
6.610000	782.040608
6.620000	773.200854
6.630000	770.226129
6.640000	761.004359
6.650000	732.317564
6.660000	697.094902
6.670000	679.281499
6.680000	698.199879
6.690000	755.974285
6.700000	866.639534
6.710000	1042.381333
6.720000	1276.584702
6.730000	1544.648500
6.740000	1859.685166
6.750000	2308.849910
6.760000	2976.167074
6.770000	3901.234778
6.780000	4994.121541
6.790000	6122.154402
6.800000	7132.940433
6.810000	7952.949096
6.820000	8598.907425
6.830000	9131.095444
6.840000	9615.794127
6.850000	10069.417789
6.860000	10482.100710
6.870000	10827.772845
6.880000	11095.285076
6.890000	11292.581962
6.900000	11439.226304
6.910000	11550.610993
6.920000	11642.201874
6.930000	11722.627680
6.940000	11794.294909
6.950000	11852.970657
6.960000	11895.328192
6.970000	11913.544415
6.980000	11904.326500
6.990000	11867.058629
7.000000	11811.324880
7.010000	11735.216670
7.020000	11629.228148
7.030000	11488.890461
7.040000	11322.371608
7.050000	11137.944542
7.060000	10934.300921
7.070000	10699.432947
7.080000	10429.558750
7.090000	10110.247048
7.100000	9745.421704
7.110000	9347.383197
7.120000	8965.210165
7.130000	8619.196816
7.140000	8315.639340
7.150000	8028.675040
7.160000	7765.962173
7.170000	7508.969436
7.180000	7174.963970
7.190000	6748.154378
7.200000	6283.823979
7.210000	5960.877822
7.220000	5796.034201
7.230000	5733.948333
7.240000	5694.352406
7.250000	5655.071383
7.260000	5623.192502
7.270000	5577.985724
7.280000	5532.137218
7.290000	5488.782612
7.300000	5448.992851
7.310000	5397.640068
7.320000	5344.239213
7.330000	5300.206555
7.340000	5273.609390
7.350000	5250.902489
7.360000	5216.664074
7.370000	5163.105217
7.380000	5090.007097
7.390000	5005.591062
7.400000	4927.086986
7.410000	4856.110777
7.420000	4775.859544
7.430000	4664.941258
7.440000	4526.109188
7.450000	4383.329525
7.460000	4239.470768
7.470000	4093.352144
7.480000	3941.264052
7.490000	3795.444342
7.500000	3651.071949
7.510000	3492.002489
7.520000	3323.547069
7.530000	3148.845573
7.540000	2980.730975
7.550000	2805.275022
7.560000	2637.947303
7.570000	2484.378141
7.580000	2343.991000
7.590000	2204.808629
7.600000	2066.058523
7.610000	1933.215134
7.620000	1802.470784
7.630000	1664.752548
7.640000	1521.324714
7.650000	1380.149205
7.660000	1249.107324
7.670000	1124.858195
7.680000	999.448789
7.690000	867.953958
7.700000	719.999487
7.710000	559.717377
7.720000	384.407578
7.730000	224.131860
7.740000	76.411778
7.750000	-74.843607
7.760000	-257.100690
7.770000	-459.712450
7.780000	-630.176421
7.790000	-757.254236
7.800000	-863.683748
7.810000	-985.657830
7.820000	-1117.771159
7.830000	-1232.959867
7.840000	-1333.951136
7.850000	-1425.855755
7.860000	-1514.739513
7.870000	-1591.703492
7.880000	-1656.407102
7.890000	-1714.740324
7.900000	-1759.507895
7.910000	-1795.451308
7.920000	-1824.215137
7.930000	-1844.540859
7.940000	-1839.467419
7.950000	-1801.640750
7.960000	-1750.953623
7.970000	-1708.825066
7.980000	-1685.358563
7.990000	-1658.583787
8.000000	-1622.394055
8.010000	-1567.306204
8.020000	-1513.809246
8.030000	-1453.306912
8.040000	-1395.989464
8.050000	-1329.078267
8.060000	-1271.002343
8.070000	-1212.947365
8.080000	-1079.082901
8.090000	-854.303390
8.100000	-560.581010
8.110000	-354.900328
8.120000	-255.648825
8.130000	-227.035601
8.140000	-208.816911
8.150000	-175.530817
8.160000	-159.106214
8.170000	-140.917035
8.180000	-114.726830
8.190000	-66.321063
8.200000	-7.094622
8.210000	23.050949
8.220000	23.247010
8.230000	14.359585
8.240000	8.691944
8.250000	2.727843
8.260000	-27.837917
8.270000	-70.783635
8.280000	-130.774794
8.290000	-194.394796
8.300000	-262.220461
8.310000	-311.196005
8.320000	-349.943046
8.330000	-382.191478
8.340000	-428.864792
8.350000	-475.450187
8.360000	-531.690558
8.370000	-583.162768
8.380000	-556.850951
8.390000	-407.409478
8.400000	-144.189491
8.410000	76.583883
8.420000	188.864526
8.430000	184.154502
8.440000	123.633118
8.450000	52.002328
8.460000	-21.249839
8.470000	-90.249609
8.480000	-193.736265
8.490000	-333.383460
8.500000	-496.175304
8.510000	-635.873213
8.520000	-750.899099
8.530000	-836.226917
8.540000	-914.148617
8.550000	-977.314639
8.560000	-1040.674214
8.570000	-1092.838189
8.580000	-1141.119882
8.590000	-1175.980544
8.600000	-1215.305841
8.610000	-1248.924668
8.620000	-1280.370605
8.630000	-1285.140220
8.640000	-1284.702401
8.650000	-1270.645649
8.660000	-1270.899497
8.670000	-1263.139779
8.680000	-1266.748890
8.690000	-1253.676239
8.700000	-1257.221504
8.710000	-1257.936628
8.720000	-1302.980357
8.730000	-1345.635313
8.740000	-1415.035187
8.750000	-1455.438238
8.760000	-1522.977063
8.770000	-1577.688945
8.780000	-1670.628329
8.790000	-1723.622646
8.800000	-1780.974850
8.810000	-1778.562371
8.820000	-1812.578434
8.830000	-1806.266992
8.840000	-1843.331424
8.850000	-1810.738896
8.860000	-1827.385411
8.870000	-1775.024056
8.880000	-1794.957624
8.890000	-1738.127235
8.900000	-1775.189953
8.910000	-1722.697060
8.920000	-1746.126779
8.930000	-1609.848805
8.940000	-1533.189974
8.950000	-1306.853042
8.960000	-1227.223247
8.970000	-1026.889018
8.980000	-1294.791301
8.990000	-2389.020910
9.000000	-15627.875688
9.010000	-21326.569091
9.020000	-22104.104083
9.030000	-21193.100169
9.040000	-20790.270812
9.050000	-22204.412725
9.060000	-25395.504506
9.070000	-26680.865291
9.080000	-22095.175106
9.090000	-12643.145328
9.100000	-6882.682678
9.110000	-3753.429365
9.120000	-1812.035049
9.130000	-823.822318
9.140000	-563.850018
9.150000	-570.230134
9.160000	-739.189401
9.170000	-842.590250
9.180000	-900.598391
9.190000	-817.481784
9.200000	-725.982423
9.210000	-595.867192
9.220000	-559.192642
9.230000	-547.002342
9.240000	-645.270983
9.250000	-734.571600
9.260000	-878.208399
9.270000	-959.556824
9.280000	-1097.331480
9.290000	-1230.714655
9.300000	-1507.841745
9.310000	-1816.714954
9.320000	-2247.578278
9.330000	-2647.680689
9.340000	-3122.139122
9.350000	-3536.130489
9.360000	-4031.110155
9.370000	-4475.638145
9.380000	-5389.318833
9.390000	-7396.703042
9.400000	-12370.808925
9.410000	-14196.679984
