Time(s)	IR_denoised_wiener
0.000000	-626.183469
0.010000	-699.201423
0.020000	-641.009571
0.030000	-588.978255
0.040000	-531.024953
0.050000	-471.509279
0.060000	-407.394960
0.070000	-339.759106
0.080000	-276.824666
0.090000	-221.366607
0.100000	-198.019609
0.110000	-223.991468
0.120000	-320.596147
0.130000	-471.215017
0.140000	-631.130939
0.150000	-756.475545
0.160000	-836.122858
0.170000	-873.809974
0.180000	-886.851021
0.190000	-885.155556
0.200000	-878.275556
0.210000	-856.812302
0.220000	-815.741172
0.230000	-767.879634
0.240000	-733.254014
0.250000	-715.595474
0.260000	-712.108024
0.270000	-714.654904
0.280000	-711.309040
0.290000	-701.769501
0.300000	-683.192121
0.310000	-663.602147
0.320000	-633.046491
0.330000	-595.158578
0.340000	-549.575486
0.350000	-502.751795
0.360000	-447.417303
0.370000	-388.394533
0.380000	-325.928638
0.390000	-267.070500
0.400000	-209.093434
0.410000	-146.083807
0.420000	-71.936239
0.430000	5.520305
0.440000	73.864929
0.450000	134.486494
0.460000	186.317726
0.470000	243.152767
0.480000	301.717136
0.490000	370.178186
0.500000	436.723612
0.510000	495.549605
0.520000	553.428347
0.530000	586.167244
0.540000	569.799182
0.550000	462.067674
0.560000	303.731923
0.570000	132.293926
0.580000	0.040909
0.590000	-31.785392
0.600000	-22.310001
0.610000	11.255305
0.620000	7.891197
0.630000	9.585547
0.640000	32.696158
0.650000	55.151930
0.660000	89.605712
0.670000	127.002107
0.680000	176.910702
0.690000	231.148670
0.700000	287.244051
0.710000	345.984388
0.720000	405.584729
0.730000	460.491675
0.740000	515.971232
0.750000	566.987629
0.760000	616.731475
0.770000	668.836793
0.780000	726.175795
0.790000	783.350251
0.800000	835.308913
0.810000	888.584202
0.820000	945.118929
0.830000	1002.830753
0.840000	1064.299555
0.850000	1128.760066
0.860000	1192.163915
0.870000	1248.711451
0.880000	1310.438267
0.890000	1370.305567
0.900000	1397.677034
0.910000	1349.228162
0.920000	1217.378060
0.930000	1044.987467
0.940000	894.164193
0.950000	796.696475
0.960000	743.204292
0.970000	716.418240
0.980000	705.296639
0.990000	708.535940
1.000000	724.758679
1.010000	758.373464
1.020000	795.541898
1.030000	820.577902
1.040000	822.711298
1.050000	810.876490
1.060000	792.584163
1.070000	773.544850
1.080000	758.830659
1.090000	754.926472
1.100000	760.432206
1.110000	777.695750
1.120000	799.385178
1.130000	829.207337
1.140000	857.681226
1.150000	898.495826
1.160000	936.612264
1.170000	991.593872
1.180000	1038.469456
1.190000	1094.857978
1.200000	1140.605926
1.210000	1186.590938
1.220000	1224.406983
1.230000	1266.098202
1.240000	1304.540776
1.250000	1355.387310
1.260000	1387.933763
1.270000	1433.567362
1.280000	1464.551983
1.290000	1368.904180
1.300000	1249.482302
1.310000	1126.402948
1.320000	1124.423076
1.330000	1138.661221
1.340000	1152.329861
1.350000	1191.093970
1.360000	1218.791861
1.370000	1254.069421
1.380000	1273.531028
1.390000	1308.922754
1.400000	1327.152328
1.410000	1351.992933
1.420000	1358.367221
1.430000	1393.656986
1.440000	1434.449618
1.450000	1502.841725
1.460000	1553.743576
1.470000	1616.961992
1.480000	1654.247484
1.490000	1555.413357
1.500000	1116.644214
1.510000	976.809410
1.520000	959.323275
1.530000	988.938344
1.540000	1005.480401
1.550000	1032.362832
1.560000	1025.518481
1.570000	1015.057662
1.580000	987.169509
1.590000	969.266262
1.600000	951.452244
1.610000	948.944968
1.620000	948.391253
1.630000	960.758829
1.640000	971.662588
1.650000	986.027950
1.660000	1002.318655
1.670000	1030.732031
1.680000	1056.308607
1.690000	1088.573245
1.700000	1126.005004
1.710000	1175.507943
1.720000	1223.047791
1.730000	1266.546256
1.740000	1301.488200
1.750000	1342.040394
1.760000	1375.258851
1.770000	1420.695336
1.780000	1455.986102
1.790000	1497.194376
1.800000	1528.029871
1.810000	1563.184036
1.820000	1589.402548
1.830000	1614.971984
1.840000	1592.695412
1.850000	1509.593264
1.860000	1341.697546
1.870000	1142.500166
1.880000	952.069095
1.890000	722.906252
1.900000	526.507224
1.910000	356.504962
1.920000	285.903219
1.930000	242.110370
1.940000	208.860550
1.950000	197.531715
1.960000	187.804212
1.970000	192.116467
1.980000	195.412501
1.990000	216.200254
2.000000	247.691535
2.010000	286.700864
2.020000	317.676902
2.030000	350.344563
2.040000	386.046278
2.050000	421.382301
2.060000	449.814128
2.070000	479.200035
2.080000	510.971469
2.090000	543.082049
2.100000	562.840091
2.110000	586.450630
2.120000	609.058080
2.130000	640.266144
2.140000	667.288464
2.150000	700.218392
2.160000	707.144034
2.170000	666.272314
2.180000	539.361630
2.190000	295.199187
2.200000	32.620243
2.210000	-144.566034
2.220000	-175.889730
2.230000	-209.383701
2.240000	-251.269800
2.250000	-282.725531
2.260000	-305.967293
2.270000	-302.938003
2.280000	-296.369826
2.290000	-138.608856
2.300000	26.834897
2.310000	206.539464
2.320000	246.338388
2.330000	285.567496
2.340000	320.188329
2.350000	363.048798
2.360000	401.709023
2.370000	437.307582
2.380000	413.812860
2.390000	243.800638
2.400000	-57.077232
2.410000	-212.080180
2.420000	-227.483404
2.430000	-247.983495
2.440000	-279.639780
2.450000	-292.715184
2.460000	-309.866780
2.470000	-306.577382
2.480000	-305.483388
2.490000	-281.903068
2.500000	-264.506667
2.510000	-230.012884
2.520000	-203.589850
2.530000	-166.930138
2.540000	-138.367196
2.550000	-87.640796
2.560000	-45.906771
2.570000	6.193734
2.580000	40.830483
2.590000	-67.165987
2.600000	-196.682740
2.610000	-321.379595
2.620000	-307.160261
2.630000	-273.215806
2.640000	-247.313616
2.650000	-207.843335
2.660000	-173.170371
2.670000	-127.971940
2.680000	-87.036765
2.690000	-38.955523
2.700000	4.439410
2.710000	58.542084
2.720000	107.235453
2.730000	159.515083
2.740000	201.374743
2.750000	243.629349
2.760000	279.538913
2.770000	317.525021
2.780000	359.424763
2.790000	409.500451
2.800000	457.677661
2.810000	502.907088
2.820000	548.014279
2.830000	588.032054
2.840000	588.342510
2.850000	520.914812
2.860000	372.785135
2.870000	188.361465
2.880000	7.621886
2.890000	-127.446768
2.900000	-211.235045
2.910000	-256.900345
2.920000	-281.362808
2.930000	-294.261117
2.940000	-294.722255
2.950000	-282.885251
2.960000	-265.360081
2.970000	-240.413765
2.980000	-211.606429
2.990000	-170.837590
3.000000	-127.829081
3.010000	-82.160930
3.020000	-39.997203
3.030000	5.290130
3.040000	51.549811
3.050000	99.822525
3.060000	140.473394
3.070000	191.169115
3.080000	238.049578
3.090000	192.382572
3.100000	84.358217
3.110000	-49.313590
3.120000	-116.441639
3.130000	-142.259833
3.140000	-157.517560
3.150000	-149.347215
3.160000	-131.260222
3.170000	-97.977293
3.180000	-63.650576
3.190000	-40.529816
3.200000	-39.966147
3.210000	-57.299397
3.220000	-84.199354
3.230000	-103.305237
3.240000	-114.741661
3.250000	-115.563736
3.260000	-106.889562
3.270000	-90.752528
3.280000	-67.293389
3.290000	-37.203969
3.300000	-0.289259
3.310000	38.402368
3.320000	74.455446
3.330000	117.118394
3.340000	163.238240
3.350000	212.915497
3.360000	257.402194
3.370000	305.833836
3.380000	350.592237
3.390000	336.694172
3.400000	254.645961
3.410000	128.385051
3.420000	25.892689
3.430000	-37.998033
3.440000	-73.524118
3.450000	-87.967701
3.460000	-89.872446
3.470000	-81.849153
3.480000	-61.468365
3.490000	-40.029770
3.500000	-26.987358
3.510000	-30.133988
3.520000	-39.719686
3.530000	-56.862929
3.540000	-76.028632
3.550000	-92.856675
3.560000	-96.247331
3.570000	-92.827391
3.580000	-81.038516
3.590000	-61.398796
3.600000	-29.745181
3.610000	2.057424
3.620000	38.999412
3.630000	77.227635
3.640000	128.525217
3.650000	175.388991
3.660000	230.204677
3.670000	270.526225
3.680000	321.753745
3.690000	461.210912
3.700000	563.484131
3.710000	600.902182
3.720000	515.870431
3.730000	462.914126
3.740000	464.298169
3.750000	474.477824
3.760000	470.860239
3.770000	426.768219
3.780000	369.976401
3.790000	310.414089
3.800000	273.873903
3.810000	245.352292
3.820000	223.212445
3.830000	190.318862
3.840000	164.384244
3.850000	155.334864
3.860000	163.934968
3.870000	187.746097
3.880000	216.869164
3.890000	254.263209
3.900000	290.506520
3.910000	326.545898
3.920000	358.534406
3.930000	367.524069
3.940000	359.367294
3.950000	302.803785
3.960000	216.741373
3.970000	93.747811
3.980000	-59.776648
3.990000	-207.155181
4.000000	-318.242867
4.010000	-333.240398
4.020000	-269.852377
4.030000	-139.572389
4.040000	40.258141
4.050000	236.789037
4.060000	421.115431
4.070000	572.575631
4.080000	704.802699
4.090000	807.699418
4.100000	874.568257
4.110000	878.168983
4.120000	819.480094
4.130000	704.721619
4.140000	567.535820
4.150000	436.328337
4.160000	316.596981
4.170000	211.998235
4.180000	122.048222
4.190000	61.110243
4.200000	12.816267
4.210000	-37.037384
4.220000	-121.065291
4.230000	-243.706784
4.240000	-389.157195
4.250000	-525.598272
4.260000	-641.905461
4.270000	-752.827131
4.280000	-847.850770
4.290000	-919.664649
4.300000	-929.643380
4.310000	-900.938584
4.320000	-833.973736
4.330000	-739.507832
4.340000	-605.174253
4.350000	-461.461877
4.360000	-338.307084
4.370000	-252.647456
4.380000	-208.003704
4.390000	-234.172574
4.400000	-304.813573
4.410000	-361.209599
4.420000	-369.292032
4.430000	-362.031704
4.440000	-353.319094
4.450000	-352.107978
4.460000	-344.217062
4.470000	-347.205931
4.480000	-330.250020
4.490000	-301.345099
4.500000	-242.813767
4.510000	-209.284205
4.520000	-191.470021
4.530000	-241.326272
4.540000	-289.060012
4.550000	-351.875448
4.560000	-365.360703
4.570000	-392.375748
4.580000	-381.950344
4.590000	-295.670332
4.600000	692.935850
4.610000	848.293223
4.620000	918.864403
4.630000	942.174956
4.640000	977.639136
4.650000	998.885946
4.660000	1051.008313
4.670000	1084.401624
4.680000	1135.344770
4.690000	1150.402226
4.700000	1165.324110
4.710000	1132.571923
4.720000	1080.910796
4.730000	1005.045752
4.740000	916.273971
4.750000	791.823490
4.760000	644.131221
4.770000	505.386068
4.780000	435.461647
4.790000	438.525993
4.800000	516.850415
4.810000	635.961751
4.820000	758.293977
4.830000	834.428105
4.840000	872.291388
4.850000	881.628984
4.860000	899.092080
4.870000	898.051952
4.880000	874.350218
4.890000	825.541856
4.900000	794.461446
4.910000	793.008676
4.920000	805.558772
4.930000	812.191874
4.940000	826.810310
4.950000	866.444784
4.960000	929.404678
4.970000	1003.730195
4.980000	1082.072202
4.990000	1171.448673
5.000000	1275.122794
5.010000	1386.199065
5.020000	1485.866901
5.030000	1556.344942
5.040000	1603.067174
5.050000	1630.881347
5.060000	1648.670391
5.070000	1651.103623
5.080000	1629.656116
5.090000	1583.738669
5.100000	1537.767847
5.110000	1503.729908
5.120000	1482.238339
5.130000	1424.307906
5.140000	1310.178397
5.150000	1145.344200
5.160000	969.266976
5.170000	822.772422
5.180000	711.981362
5.190000	640.915610
5.200000	598.040019
5.210000	574.118375
5.220000	570.513976
5.230000	570.991915
5.240000	579.762783
5.250000	579.858897
5.260000	565.426636
5.270000	528.437332
5.280000	486.544691
5.290000	448.374201
5.300000	420.372892
5.310000	393.985555
5.320000	384.314651
5.330000	378.568431
5.340000	382.688885
5.350000	387.156078
5.360000	412.860095
5.370000	434.329388
5.380000	472.538079
5.390000	647.152511
5.400000	823.562627
5.410000	954.593602
5.420000	895.362829
5.430000	760.791806
5.440000	585.986875
5.450000	385.643193
5.460000	218.774733
5.470000	83.702809
5.480000	-9.697913
5.490000	-84.955385
5.500000	-128.695771
5.510000	-142.615366
5.520000	-104.589095
5.530000	-39.699731
5.540000	32.905328
5.550000	66.845388
5.560000	51.869438
5.570000	5.503424
5.580000	-37.750362
5.590000	-52.160329
5.600000	-43.087090
5.610000	-17.460418
5.620000	8.250795
5.630000	22.954577
5.640000	12.613744
5.650000	-25.566893
5.660000	-66.915705
5.670000	-92.739783
5.680000	-86.753927
5.690000	-67.644716
5.700000	-39.856183
5.710000	-8.521854
5.720000	38.785655
5.730000	105.605296
5.740000	181.417087
5.750000	261.442596
5.760000	328.708911
5.770000	400.066184
5.780000	475.647715
5.790000	538.000531
5.800000	551.562004
5.810000	480.291618
5.820000	339.307684
5.830000	153.633613
5.840000	-21.172917
5.850000	-145.044264
5.860000	-195.680160
5.870000	-203.177748
5.880000	-197.833494
5.890000	-198.592781
5.900000	-193.214411
5.910000	-178.011727
5.920000	-161.275821
5.930000	-149.072667
5.940000	-153.335293
5.950000	-169.403823
5.960000	-212.766401
5.970000	-260.947513
5.980000	-310.233012
5.990000	-337.756409
6.000000	-354.778335
6.010000	-353.832685
6.020000	-347.030072
6.030000	-324.835983
6.040000	-302.336398
6.050000	-267.752956
6.060000	-236.371672
6.070000	-195.915995
6.080000	-164.479283
6.090000	-115.612769
6.100000	-79.064465
6.110000	-24.802392
6.120000	6.832882
6.130000	58.243911
6.140000	87.172553
6.150000	145.890883
6.160000	174.544816
6.170000	235.547078
6.180000	248.865432
6.190000	186.876445
6.200000	-873.573862
6.210000	-955.940135
6.220000	-962.979099
6.230000	-929.962925
6.240000	-917.565616
6.250000	-866.653765
6.260000	-845.499636
6.270000	-794.658520
6.280000	-757.380870
6.290000	-689.756150
6.300000	-643.858445
6.310000	-592.970525
6.320000	-554.123097
6.330000	-500.398208
6.340000	-459.204738
6.350000	-410.697638
6.360000	-372.725193
6.370000	-329.908178
6.380000	-292.986840
6.390000	-252.399488
6.400000	-230.005062
6.410000	-249.232461
6.420000	-348.736193
6.430000	-511.918509
6.440000	-716.791085
6.450000	-900.163694
6.460000	-1046.315721
6.470000	-1136.740986
6.480000	-1192.957097
6.490000	-1248.023840
6.500000	-1289.481018
6.510000	-1319.688668
6.520000	-1314.273142
6.530000	-1297.495722
6.540000	-1277.697195
6.550000	-1244.260031
6.560000	-1206.853285
6.570000	-1159.324188
6.580000	-1114.739112
6.590000	-1068.684255
6.600000	-1019.643782
6.610000	-968.729379
6.620000	-920.235316
6.630000	-873.773376
6.640000	-832.515299
6.650000	-788.465637
6.660000	-743.501593
6.670000	-697.498516
6.680000	-652.841146
6.690000	-632.267241
6.700000	-662.204351
6.710000	-767.378380
6.720000	-927.457789
6.730000	-1100.109972
6.740000	-1245.398913
6.750000	-1342.909834
6.760000	-1391.407579
6.770000	-1406.771769
6.780000	-1406.101522
6.790000	-1398.293288
6.800000	-1371.086311
6.810000	-1330.547604
6.820000	-1294.118292
6.830000	-1278.148360
6.840000	-1286.465459
6.850000	-1301.373045
6.860000	-1324.214762
6.870000	-1340.571061
6.880000	-1351.356250
6.890000	-1346.422200
6.900000	-1331.224194
6.910000	-1305.274032
6.920000	-1278.471098
6.930000	-1246.102898
6.940000	-1212.426530
6.950000	-1171.587937
6.960000	-1123.414892
6.970000	-1075.444847
6.980000	-1022.719659
6.990000	-969.009813
7.000000	-914.030720
7.010000	-858.595236
7.020000	-810.712327
7.030000	-758.142490
7.040000	-706.460300
7.050000	-648.672653
7.060000	-600.955986
7.070000	-587.241505
7.080000	-635.480078
7.090000	-758.452693
7.100000	-935.596557
7.110000	-1121.278957
7.120000	-1268.727129
7.130000	-1358.196632
7.140000	-1405.973782
7.150000	-1426.459519
7.160000	-1435.240680
7.170000	-1434.368806
7.180000	-1419.172599
7.190000	-1395.991724
7.200000	-1361.761972
7.210000	-1346.388363
7.220000	-1342.264697
7.230000	-1355.839851
7.240000	-1375.400310
7.250000	-1391.647262
7.260000	-1405.245754
7.270000	-1405.104683
7.280000	-1397.821909
7.290000	-1377.877431
7.300000	-1349.774008
7.310000	-1318.332601
7.320000	-1278.045746
7.330000	-1227.814336
7.340000	-1178.698443
7.350000	-1126.601771
7.360000	-1078.395017
7.370000	-1019.677622
7.380000	-961.173847
7.390000	-900.062591
7.400000	-845.331162
7.410000	-790.083044
7.420000	-742.542171
7.430000	-682.704511
7.440000	-638.897512
7.450000	-583.851234
7.460000	-549.092000
7.470000	-527.903610
7.480000	-585.828667
7.490000	-781.033459
7.500000	-1200.975537
7.510000	-1334.201279
7.520000	-1343.169843
7.530000	-1350.488249
7.540000	-1375.935156
7.550000	-1388.309964
7.560000	-1400.161705
7.570000	-1398.401973
7.580000	-1384.100811
7.590000	-1361.175091
7.600000	-1330.370775
7.610000	-1299.974756
7.620000	-1257.255103
7.630000	-1212.509351
7.640000	-1158.094746
7.650000	-1110.113322
7.660000	-1051.847969
7.670000	-1005.494109
7.680000	-940.124774
7.690000	-747.665365
7.700000	-606.189402
7.710000	-566.822709
7.720000	-732.062742
7.730000	-907.498373
7.740000	-1026.954945
7.750000	-1114.421174
7.760000	-1149.056355
7.770000	-1178.864897
7.780000	-1177.618540
7.790000	-1179.137693
7.800000	-1150.327227
7.810000	-1123.252553
7.820000	-1075.548975
7.830000	-1060.904979
7.840000	-1043.519731
7.850000	-1060.418335
7.860000	-1038.180819
7.870000	-1030.607550
7.880000	-968.162349
7.890000	-828.099680
7.900000	108.636932
7.910000	267.789893
7.920000	372.517208
7.930000	452.723376
7.940000	555.408323
7.950000	616.363045
7.960000	695.652989
7.970000	747.391186
7.980000	829.195336
7.990000	903.170975
8.000000	956.821999
8.010000	909.779475
8.020000	751.322317
8.030000	500.820212
8.040000	258.394571
8.050000	79.422083
8.060000	10.126263
8.070000	8.800907
8.080000	38.222603
8.090000	48.163561
8.100000	62.542686
8.110000	95.520049
8.120000	155.534905
8.130000	218.475525
8.140000	275.591584
8.150000	339.512534
8.160000	419.328560
8.170000	503.516818
8.180000	590.784729
8.190000	673.194479
8.200000	774.353031
8.210000	878.122331
8.220000	993.015582
8.230000	1092.982313
8.240000	1191.480889
8.250000	1271.453227
8.260000	1348.063277
8.270000	1398.849874
8.280000	1414.711917
8.290000	1464.156378
8.300000	1516.117576
8.310000	1572.250379
8.320000	1562.357297
8.330000	1488.574902
8.340000	1376.694268
8.350000	1248.253780
8.360000	1168.517783
8.370000	1157.842834
8.380000	1203.283747
8.390000	1320.879128
8.400000	1507.698960
8.410000	1713.152908
8.420000	1871.775403
8.430000	1953.225601
8.440000	2020.811845
8.450000	2092.877913
8.460000	2155.128747
8.470000	2188.220103
8.480000	2202.564753
8.490000	2214.950793
8.500000	2217.303730
8.510000	2207.402405
8.520000	2194.780078
8.530000	2189.560954
8.540000	2199.622449
8.550000	2221.059535
8.560000	2245.491773
8.570000	2280.641762
8.580000	2315.683060
8.590000	2352.966568
8.600000	2369.511288
8.610000	2366.731677
8.620000	2360.753321
8.630000	2359.848702
8.640000	2360.670329
8.650000	2349.644589
8.660000	2335.020933
8.670000	2329.158780
8.680000	2338.729610
8.690000	2358.012630
8.700000	2376.799640
8.710000	2365.520281
8.720000	2285.551742
8.730000	2148.873789
8.740000	1965.338132
8.750000	1746.271392
8.760000	1492.468871
8.770000	1234.457148
8.780000	1018.348787
8.790000	842.217197
8.800000	708.948014
8.810000	591.935523
8.820000	486.312739
8.830000	378.000846
8.840000	298.173890
8.850000	259.387003
8.860000	266.051143
8.870000	302.088519
8.880000	368.680595
8.890000	448.443666
8.900000	512.984254
8.910000	562.581835
8.920000	593.313793
8.930000	622.816454
8.940000	655.644453
8.950000	715.808036
8.960000	808.292859
8.970000	900.399245
8.980000	988.724661
8.990000	1085.736764
9.000000	1200.850585
9.010000	1308.346736
9.020000	1389.029820
9.030000	1447.056003
9.040000	1499.947348
9.050000	1558.113733
9.060000	1627.219579
9.070000	1690.811516
9.080000	1726.509386
9.090000	1725.580347
9.100000	1686.184724
9.110000	1602.370839
9.120000	1474.911164
9.130000	1342.297231
9.140000	1253.698894
9.150000	1237.197312
9.160000	1263.359910
9.170000	1297.447035
9.180000	1316.082646
9.190000	1326.143310
9.200000	1332.496267
9.210000	1327.835486
9.220000	1307.278808
9.230000	1266.892113
9.240000	1200.750638
9.250000	1123.365862
9.260000	1066.296508
9.270000	1038.470893
9.280000	1036.835787
9.290000	1082.000104
9.300000	1187.046451
9.310000	1360.876078
9.320000	1527.715650
9.330000	1657.234141
9.340000	1727.096925
9.350000	1771.102652
9.360000	1788.405470
9.370000	1763.954043
9.380000	1660.674888
9.390000	1489.625104
9.400000	1287.033690
9.410000	1100.680902
9.420000	954.011420
9.430000	861.396960
9.440000	825.976214
9.450000	843.108970
9.460000	892.915864
9.470000	950.489937
9.480000	995.884621
9.490000	1027.268854
9.500000	1026.155195
9.510000	1008.155023
9.520000	948.995849
9.530000	901.933104
9.540000	864.361399
9.550000	866.478947
9.560000	859.186151
9.570000	850.190476
9.580000	829.638322
9.590000	706.053593
9.600000	159.226337
9.610000	33.727558
9.620000	29.359188
9.630000	65.634140
9.640000	64.468371
9.650000	74.225497
9.660000	78.068589
9.670000	104.276850
9.680000	106.800038
9.690000	93.811815
