Time(s)	RED_denoised_wiener
0.000000	-197.260069
0.010000	-294.258292
0.020000	-289.622313
0.030000	-279.977145
0.040000	-270.525834
0.050000	-260.541551
0.060000	-248.956047
0.070000	-228.281745
0.080000	-206.955872
0.090000	-192.210285
0.100000	-177.441805
0.110000	-161.009011
0.120000	-147.132846
0.130000	-142.669761
0.140000	-144.650798
0.150000	-146.506966
0.160000	-139.013576
0.170000	-126.900394
0.180000	-114.559098
0.190000	-109.150877
0.200000	-122.298763
0.210000	-143.187391
0.220000	-175.591935
0.230000	-200.005832
0.240000	-228.483433
0.250000	-254.283394
0.260000	-272.222390
0.270000	-278.406779
0.280000	-282.840899
0.290000	-307.403253
0.300000	-333.186959
0.310000	-357.282329
0.320000	-366.676359
0.330000	-373.066120
0.340000	-381.650512
0.350000	-394.342571
0.360000	-406.440597
0.370000	-409.107512
0.380000	-402.420761
0.390000	-393.723745
0.400000	-378.532179
0.410000	-358.519702
0.420000	-336.475207
0.430000	-317.482908
0.440000	-298.890327
0.450000	-281.614990
0.460000	-261.115249
0.470000	-234.575665
0.480000	-207.519315
0.490000	-187.363507
0.500000	-165.366681
0.510000	-135.645933
0.520000	-104.733932
0.530000	-82.422142
0.540000	-77.248287
0.550000	-92.667320
0.560000	-118.206364
0.570000	-140.385261
0.580000	-156.674586
0.590000	-154.889127
0.600000	-152.368725
0.610000	-138.125724
0.620000	-133.628249
0.630000	-126.745323
0.640000	-121.071957
0.650000	-117.163272
0.660000	-115.989209
0.670000	-116.714370
0.680000	-114.699828
0.690000	-112.086941
0.700000	-110.878618
0.710000	-116.603450
0.720000	-125.498511
0.730000	-133.585022
0.740000	-134.242505
0.750000	-133.398113
0.760000	-134.442284
0.770000	-137.330219
0.780000	-134.749584
0.790000	-127.076619
0.800000	-109.501510
0.810000	-88.645647
0.820000	-63.021424
0.830000	-48.718905
0.840000	-43.947202
0.850000	-52.595098
0.860000	-73.980119
0.870000	-94.888925
0.880000	-108.815867
0.890000	-106.625627
0.900000	-99.489844
0.910000	-91.123325
0.920000	-84.609251
0.930000	-74.711025
0.940000	-57.845071
0.950000	-44.448127
0.960000	-32.155645
0.970000	-23.307080
0.980000	-14.892811
0.990000	-13.633060
1.000000	-13.367254
1.010000	-1.379374
1.020000	22.018495
1.030000	48.749942
1.040000	67.961222
1.050000	80.142670
1.060000	92.823181
1.070000	108.087996
1.080000	130.259816
1.090000	149.229859
1.100000	167.635280
1.110000	182.260448
1.120000	197.604376
1.130000	216.192369
1.140000	232.124728
1.150000	249.393494
1.160000	266.539783
1.170000	288.188642
1.180000	308.504390
1.190000	328.582076
1.200000	348.045171
1.210000	371.236320
1.220000	398.156170
1.230000	423.458981
1.240000	443.522629
1.250000	444.237855
1.260000	431.530084
1.270000	407.593398
1.280000	392.173611
1.290000	385.484104
1.300000	388.074479
1.310000	397.290033
1.320000	406.556210
1.330000	417.711632
1.340000	427.952016
1.350000	441.413385
1.360000	460.271122
1.370000	476.349649
1.380000	490.211424
1.390000	498.540042
1.400000	512.122828
1.410000	523.279657
1.420000	537.337477
1.430000	554.941506
1.440000	572.476420
1.450000	590.217603
1.460000	604.208197
1.470000	620.794015
1.480000	637.856298
1.490000	700.440425
1.500000	771.553750
1.510000	841.437185
1.520000	869.442786
1.530000	891.588472
1.540000	918.540346
1.550000	940.295333
1.560000	970.984054
1.570000	987.848253
1.580000	994.448264
1.590000	1009.391552
1.600000	1040.833646
1.610000	1080.507112
1.620000	1111.814333
1.630000	1132.614705
1.640000	1153.783897
1.650000	1166.956708
1.660000	1186.102851
1.670000	1207.873303
1.680000	1230.047840
1.690000	1248.073860
1.700000	1266.976928
1.710000	1289.894441
1.720000	1316.188268
1.730000	1338.322768
1.740000	1360.058050
1.750000	1384.711349
1.760000	1418.230572
1.770000	1445.003598
1.780000	1468.418859
1.790000	1492.929701
1.800000	1521.568181
1.810000	1551.471888
1.820000	1578.012250
1.830000	1601.327413
1.840000	1625.434522
1.850000	1648.134041
1.860000	1674.846522
1.870000	1705.227576
1.880000	1738.226587
1.890000	1773.627328
1.900000	1792.860748
1.910000	1794.044648
1.920000	1779.144433
1.930000	1766.145470
1.940000	1759.363944
1.950000	1758.875201
1.960000	1760.880550
1.970000	1767.596355
1.980000	1775.690640
1.990000	1782.963152
2.000000	1793.494317
2.010000	1811.975084
2.020000	1838.596202
2.030000	1861.932782
2.040000	1880.704041
2.050000	1896.209404
2.060000	1912.799162
2.070000	1928.447803
2.080000	1945.552763
2.090000	1963.992646
2.100000	1983.954257
2.110000	2001.841152
2.120000	2014.671820
2.130000	2026.690867
2.140000	2036.020901
2.150000	2047.541095
2.160000	2058.999294
2.170000	2077.064990
2.180000	2094.589149
2.190000	2111.591562
2.200000	2127.159657
2.210000	2148.122825
2.220000	2174.361372
2.230000	2200.289555
2.240000	2224.558710
2.250000	2246.776391
2.260000	2270.417630
2.270000	2299.582701
2.280000	2329.235998
2.290000	2323.622616
2.300000	2308.207246
2.310000	2298.620332
2.320000	2323.866765
2.330000	2356.113521
2.340000	2376.201724
2.350000	2395.007504
2.360000	2414.831432
2.370000	2438.220452
2.380000	2469.116567
2.390000	2498.382365
2.400000	2531.092232
2.410000	2563.170570
2.420000	2601.081514
2.430000	2642.251851
2.440000	2683.720843
2.450000	2718.640095
2.460000	2758.394405
2.470000	2791.616501
2.480000	2836.800449
2.490000	2943.328003
2.500000	3053.562600
2.510000	3150.801736
2.520000	3176.860359
2.530000	3192.584998
2.540000	3208.000838
2.550000	3224.326060
2.560000	3249.140444
2.570000	3274.004422
2.580000	3299.619412
2.590000	3325.326241
2.600000	3356.093948
2.610000	3397.629760
2.620000	3446.188405
2.630000	3490.892428
2.640000	3531.289734
2.650000	3567.801878
2.660000	3611.062952
2.670000	3652.301304
2.680000	3691.837162
2.690000	3721.085013
2.700000	3743.953801
2.710000	3755.150907
2.720000	3764.084261
2.730000	3768.825072
2.740000	3777.882072
2.750000	3789.107904
2.760000	3793.297661
2.770000	3803.755593
2.780000	3819.309035
2.790000	3837.367424
2.800000	3853.281927
2.810000	3858.936011
2.820000	3869.617799
2.830000	3876.068270
2.840000	3887.969158
2.850000	3900.122137
2.860000	3911.292870
2.870000	3921.473135
2.880000	3936.258009
2.890000	3956.101634
2.900000	3970.817769
2.910000	3983.054764
2.920000	3995.332064
2.930000	4016.980307
2.940000	4043.427338
2.950000	4072.530455
2.960000	4101.805017
2.970000	4131.369815
2.980000	4156.450007
2.990000	4178.171467
3.000000	4197.372267
3.010000	4220.598807
3.020000	4244.542724
3.030000	4267.972343
3.040000	4289.317949
3.050000	4317.980217
3.060000	4349.992484
3.070000	4381.589792
3.080000	4411.941320
3.090000	4441.133198
3.100000	4471.826917
3.110000	4488.220594
3.120000	4486.672268
3.130000	4481.615618
3.140000	4480.086880
3.150000	4491.939528
3.160000	4504.024337
3.170000	4515.213995
3.180000	4520.199331
3.190000	4525.768836
3.200000	4546.641351
3.210000	4571.829719
3.220000	4597.678191
3.230000	4613.109582
3.240000	4629.346961
3.250000	4641.580710
3.260000	4652.603169
3.270000	4664.948919
3.280000	4682.090945
3.290000	4705.872815
3.300000	4736.131181
3.310000	4771.682997
3.320000	4810.054709
3.330000	4847.708146
3.340000	4882.531071
3.350000	4913.282267
3.360000	4946.238959
3.370000	4981.380902
3.380000	5018.485674
3.390000	5055.344337
3.400000	5089.265494
3.410000	5123.522728
3.420000	5157.564161
3.430000	5193.902972
3.440000	5228.702871
3.450000	5257.469575
3.460000	5285.052729
3.470000	5308.865187
3.480000	5334.605364
3.490000	5361.754297
3.500000	5392.339420
3.510000	5416.448861
3.520000	5430.258896
3.530000	5431.312964
3.540000	5428.706271
3.550000	5426.991112
3.560000	5431.312112
3.570000	5445.820322
3.580000	5468.050490
3.590000	5495.463587
3.600000	5514.904147
3.610000	5535.308784
3.620000	5558.208834
3.630000	5592.976966
3.640000	5629.257496
3.650000	5659.447545
3.660000	5685.122846
3.670000	5707.037286
3.680000	5735.799922
3.690000	5761.685706
3.700000	5791.633795
3.710000	5816.062911
3.720000	5845.961421
3.730000	5873.154465
3.740000	5912.114588
3.750000	5954.275733
3.760000	5992.360570
3.770000	6028.508389
3.780000	6066.693325
3.790000	6142.238384
3.800000	6221.243325
3.810000	6299.119021
3.820000	6347.126524
3.830000	6392.883325
3.840000	6429.305943
3.850000	6452.042602
3.860000	6459.208841
3.870000	6464.289991
3.880000	6478.480500
3.890000	6496.863963
3.900000	6518.797135
3.910000	6539.121138
3.920000	6557.484908
3.930000	6572.061145
3.940000	6590.547972
3.950000	6617.670986
3.960000	6651.934111
3.970000	6692.284329
3.980000	6729.629200
3.990000	6768.260838
4.000000	6801.281959
4.010000	6841.608789
4.020000	6877.178379
4.030000	6909.969447
4.040000	6930.345532
4.050000	6952.025338
4.060000	6968.750646
4.070000	6985.733928
4.080000	6991.392481
4.090000	6989.428963
4.100000	6979.629590
4.110000	6985.122331
4.120000	6991.358923
4.130000	7002.457443
4.140000	6995.599476
4.150000	6996.505759
4.160000	6990.637314
4.170000	6999.889937
4.180000	6996.769845
4.190000	7007.646912
4.200000	6993.609061
4.210000	6990.155338
4.220000	6970.151039
4.230000	6990.764434
4.240000	7000.591564
4.250000	7040.818833
4.260000	7053.611990
4.270000	7114.084413
4.280000	7122.993681
4.290000	7120.233024
4.300000	7047.935114
4.310000	7167.748109
4.320000	7385.047522
4.330000	7685.961721
4.340000	7671.572957
4.350000	7282.906736
4.360000	5860.908374
4.370000	2000.253925
4.380000	-4836.707125
4.390000	-21584.902500
4.400000	-49113.078352
4.410000	-67209.694234
4.420000	-73081.034375
4.430000	-75505.043021
4.440000	-74375.522807
4.450000	-71194.077062
4.460000	-67237.995530
4.470000	-63893.013464
4.480000	-61303.333144
4.490000	-59192.071437
4.500000	-57449.076337
4.510000	-55789.599982
4.520000	-55177.534563
4.530000	-55208.658192
4.540000	-54881.975726
4.550000	-53216.394130
4.560000	-50492.505971
4.570000	-47844.766066
4.580000	-45622.169733
4.590000	-42388.525415
4.600000	-37413.762206
4.610000	-30419.100617
4.620000	-22886.385749
4.630000	-16316.878175
4.640000	-10921.584763
4.650000	-6318.852970
4.660000	-2947.128048
4.670000	-526.860345
4.680000	358.346645
4.690000	-2425.401768
4.700000	-4946.794245
4.710000	-6580.294943
4.720000	-5058.696395
4.730000	-3826.811533
4.740000	-3229.350121
4.750000	-2613.185021
4.760000	-2328.688832
4.770000	-1819.327665
4.780000	-1544.408897
4.790000	-1201.968570
4.800000	-1095.044329
4.810000	-914.513004
4.820000	-845.620308
4.830000	-653.484093
4.840000	-547.662045
4.850000	-375.035301
4.860000	-300.818843
4.870000	-159.249341
4.880000	-68.658975
4.890000	42.824831
4.900000	91.842519
4.910000	130.039970
4.920000	106.501330
4.930000	114.425456
4.940000	134.628179
4.950000	225.135224
4.960000	309.165836
4.970000	409.234288
4.980000	470.275833
4.990000	541.741337
5.000000	599.974801
5.010000	679.199287
5.020000	747.285625
5.030000	804.876842
5.040000	864.427306
5.050000	927.658821
5.060000	999.714435
5.070000	1066.526230
5.080000	1134.197294
5.090000	1284.744601
5.100000	1378.883583
5.110000	1416.826143
5.120000	1352.926060
5.130000	1322.221524
5.140000	1302.690160
5.150000	1263.748475
5.160000	1234.441860
5.170000	1242.096597
5.180000	1284.607341
5.190000	1323.842438
5.200000	1341.325519
5.210000	1367.891129
5.220000	1418.168629
5.230000	1500.427145
5.240000	1585.081239
5.250000	1662.861096
5.260000	1745.896754
5.270000	1835.778877
5.280000	1919.854563
5.290000	1982.538648
5.300000	2021.367069
5.310000	2050.531427
5.320000	2078.386063
5.330000	2104.023199
5.340000	2122.252962
5.350000	2143.084938
5.360000	2163.948735
5.370000	2189.699023
5.380000	2204.788941
5.390000	2212.567307
5.400000	2215.497501
5.410000	2200.933351
5.420000	2185.159909
5.430000	2178.492497
5.440000	2185.684971
5.450000	2195.554217
5.460000	2180.379363
5.470000	2149.601146
5.480000	2096.915362
5.490000	1972.749118
5.500000	1852.683338
5.510000	1761.982128
5.520000	1754.755438
5.530000	1775.808132
5.540000	1807.157923
5.550000	1846.573868
5.560000	1860.037852
5.570000	1859.365173
5.580000	1862.502563
5.590000	1883.715889
5.600000	1905.450966
5.610000	1926.350402
5.620000	1946.310333
5.630000	1976.257598
5.640000	2007.025085
5.650000	2034.758134
5.660000	2048.968527
5.670000	2061.902839
5.680000	2075.132514
5.690000	2081.274272
5.700000	2069.874167
5.710000	2056.638421
5.720000	2062.552605
5.730000	2072.493753
5.740000	2062.465088
5.750000	2029.332852
5.760000	1995.040948
5.770000	1947.006306
5.780000	1883.243109
5.790000	1815.649754
5.800000	1764.066929
5.810000	1721.821529
5.820000	1687.173407
5.830000	1666.285405
5.840000	1657.195905
5.850000	1639.304350
5.860000	1623.913543
5.870000	1618.588452
5.880000	1625.225600
5.890000	1623.756767
5.900000	1618.550526
5.910000	1613.537500
5.920000	1624.522878
5.930000	1640.861578
5.940000	1669.828277
5.950000	1692.398411
5.960000	1719.167837
5.970000	1735.152266
5.980000	1753.874101
5.990000	1904.179059
6.000000	2103.289761
6.010000	2345.709840
6.020000	2496.308851
6.030000	2625.432195
6.040000	2722.400343
6.050000	2771.436532
6.060000	2780.186507
6.070000	2747.381066
6.080000	2708.372260
6.090000	2657.847225
6.100000	2639.660660
6.110000	2640.458131
6.120000	2670.984718
6.130000	2693.573110
6.140000	2729.107522
6.150000	2779.942665
6.160000	2847.868435
6.170000	2896.514578
6.180000	2921.023889
6.190000	2896.674056
6.200000	2840.603898
6.210000	2783.514464
6.220000	2751.816554
6.230000	2734.229849
6.240000	2704.968584
6.250000	2669.343888
6.260000	2651.151977
6.270000	2690.483940
6.280000	2775.507998
6.290000	2871.878023
6.300000	2938.161037
6.310000	2979.383456
6.320000	3011.160817
6.330000	3029.486547
6.340000	3042.847004
6.350000	3058.906664
6.360000	3085.185916
6.370000	3108.590435
6.380000	3126.206865
6.390000	3138.270707
6.400000	3157.583942
6.410000	3173.207798
6.420000	3187.987958
6.430000	3198.450310
6.440000	3221.103321
6.450000	3286.722134
6.460000	3372.060746
6.470000	3429.584637
6.480000	3410.338595
6.490000	3336.634121
6.500000	3278.739629
6.510000	3261.884909
6.520000	3271.690397
6.530000	3269.059833
6.540000	3254.742769
6.550000	3254.963680
6.560000	3260.690699
6.570000	3270.881946
6.580000	3279.283516
6.590000	3301.853799
6.600000	3340.496999
6.610000	3388.795395
6.620000	3441.038339
6.630000	3471.340789
6.640000	3476.300575
6.650000	3467.586639
6.660000	3432.488143
6.670000	3370.190663
6.680000	3299.387975
6.690000	3210.709454
6.700000	3107.982383
6.710000	2974.162369
6.720000	2860.422039
6.730000	2772.815666
6.740000	2713.174130
6.750000	2682.791236
6.760000	2697.289018
6.770000	2759.053576
6.780000	2858.694348
6.790000	2969.591025
6.800000	3074.447348
6.810000	3191.882122
6.820000	3298.405956
6.830000	3374.839224
6.840000	3385.305759
6.850000	3379.016610
6.860000	3386.139356
6.870000	3407.097891
6.880000	3426.247209
6.890000	3448.887873
6.900000	3494.711856
6.910000	3549.568241
6.920000	3600.495825
6.930000	3649.605422
6.940000	3711.963468
6.950000	3791.258763
6.960000	3862.666166
6.970000	3931.306995
6.980000	3987.640482
6.990000	4039.046147
7.000000	4086.908646
7.010000	4135.770124
7.020000	4192.157564
7.030000	4256.117396
7.040000	4324.705126
7.050000	4392.096021
7.060000	4450.552410
7.070000	4502.740549
7.080000	4559.725748
7.090000	4631.350333
7.100000	4689.763109
7.110000	4729.989407
7.120000	4745.762256
7.130000	4766.022700
7.140000	4791.981576
7.150000	4821.007233
7.160000	4842.138573
7.170000	4852.974561
7.180000	4839.555140
7.190000	4801.268538
7.200000	4761.325765
7.210000	4733.824723
7.220000	4727.367112
7.230000	4703.201884
7.240000	4676.840382
7.250000	4656.172825
7.260000	4657.951166
7.270000	4673.351795
7.280000	4704.368338
7.290000	4744.449013
7.300000	4778.034166
7.310000	4799.511932
7.320000	4822.021494
7.330000	4848.147452
7.340000	4869.244461
7.350000	4880.056962
7.360000	4884.421914
7.370000	4899.931900
7.380000	4924.805240
7.390000	4954.723701
7.400000	4970.736920
7.410000	4977.834476
7.420000	4978.914057
7.430000	4986.554329
7.440000	4999.968229
7.450000	5024.201838
7.460000	5045.881302
7.470000	5074.486103
7.480000	5093.628445
7.490000	5034.195101
7.500000	4953.958037
7.510000	4885.733875
7.520000	4887.252041
7.530000	4899.512337
7.540000	4897.196458
7.550000	4907.323361
7.560000	4919.257149
7.570000	4935.721625
7.580000	4951.845011
7.590000	4975.700934
7.600000	5001.938918
7.610000	5023.215077
7.620000	5031.234552
7.630000	5032.638581
7.640000	5035.733731
7.650000	5047.922510
7.660000	5074.420384
7.670000	5118.057240
7.680000	5166.586824
7.690000	5218.740460
7.700000	5252.879433
7.710000	5289.719204
7.720000	5310.907649
7.730000	5347.674052
7.740000	5373.614476
7.750000	5406.584314
7.760000	5486.211873
7.770000	5594.831529
7.780000	5706.277084
7.790000	5755.459817
7.800000	5760.722869
7.810000	5737.896032
7.820000	5707.660181
7.830000	5688.801920
7.840000	5677.005552
7.850000	5698.927653
7.860000	5733.685027
7.870000	5794.608562
7.880000	5828.639856
7.890000	5853.939233
7.900000	5858.629428
7.910000	5878.848744
7.920000	5896.914486
7.930000	5929.625918
7.940000	5947.174096
7.950000	5986.685740
7.960000	6014.668083
7.970000	6078.391888
7.980000	6117.620757
7.990000	6180.813295
8.000000	6208.021791
8.010000	6282.035525
8.020000	6346.111015
8.030000	6460.646859
8.040000	6516.464410
8.050000	6613.892740
8.060000	6651.986592
8.070000	6751.464818
8.080000	6770.835040
8.090000	6850.854258
8.100000	6846.603318
8.110000	6935.829998
8.120000	6924.044857
8.130000	7004.562032
8.140000	6944.669593
8.150000	7019.370625
8.160000	6942.764576
8.170000	7028.833001
8.180000	6878.569418
8.190000	6857.057408
8.200000	6457.304325
8.210000	6039.316892
8.220000	4892.748361
8.230000	3610.800704
8.240000	1681.796857
8.250000	-67.070719
8.260000	-2619.833504
8.270000	-5256.638151
8.280000	-9186.810019
8.290000	-13879.478501
8.300000	-20565.831018
8.310000	-34337.122233
8.320000	-48473.563300
8.330000	-56068.801327
8.340000	-58136.391913
8.350000	-54819.841291
8.360000	-50699.154878
8.370000	-44936.978829
8.380000	-38073.100757
8.390000	-32639.482126
8.400000	-72091.546600
8.410000	-65379.625402
8.420000	-53822.232388
8.430000	-46063.873157
8.440000	-40562.592739
8.450000	-36246.268509
8.460000	-34624.677003
8.470000	-33605.629277
8.480000	-34121.172616
8.490000	-34135.944791
8.500000	-35054.888602
8.510000	-35679.213081
8.520000	-37152.474745
8.530000	-37642.410492
8.540000	-37870.509546
8.550000	-36680.550469
8.560000	-35345.982487
8.570000	-33838.879113
8.580000	-33345.217063
8.590000	-32841.230437
8.600000	-31945.638976
8.610000	-29221.101168
8.620000	-25224.956446
8.630000	-20130.664756
8.640000	-15034.218282
8.650000	-10401.905912
8.660000	-6926.505694
8.670000	-4347.929769
8.680000	-2445.631102
8.690000	-823.530436
8.700000	328.579260
8.710000	1252.335951
8.720000	1882.566228
8.730000	2426.239610
8.740000	2789.687802
8.750000	3131.132607
8.760000	3371.458840
8.770000	3602.801092
8.780000	3743.394510
8.790000	3897.961138
8.800000	4004.856348
8.810000	4125.445870
8.820000	4184.600487
8.830000	4234.942351
8.840000	4239.429541
8.850000	4242.664546
8.860000	4204.029600
8.870000	4190.022916
8.880000	4153.997747
8.890000	3988.563481
8.900000	3790.880231
8.910000	3625.704368
8.920000	3583.860409
8.930000	3563.010902
8.940000	3529.395181
8.950000	3536.259353
8.960000	3526.666956
8.970000	3529.118754
8.980000	3521.846927
8.990000	3547.872313
9.000000	3570.861752
9.010000	3597.132393
9.020000	3598.842019
9.030000	3603.273001
9.040000	3609.811295
9.050000	3607.453854
9.060000	3597.887333
9.070000	3578.364208
9.080000	3584.145860
9.090000	3586.513324
9.100000	3596.598032
9.110000	3610.374686
9.120000	3639.851109
9.130000	3664.907648
9.140000	3695.616565
9.150000	3733.850467
9.160000	3771.456433
9.170000	3780.844731
9.180000	3780.864868
9.190000	3858.804148
9.200000	3909.524787
9.210000	3902.751960
9.220000	3781.897975
9.230000	3666.973089
9.240000	3570.099164
9.250000	3475.912408
9.260000	3388.483412
9.270000	3307.973315
9.280000	3236.006629
9.290000	3148.100066
9.300000	3063.456631
9.310000	3006.717780
9.320000	2978.318718
9.330000	2942.383520
9.340000	2878.038937
9.350000	2807.988358
9.360000	2749.566288
9.370000	2699.026289
9.380000	2658.937744
9.390000	2627.882439
9.400000	2609.487961
9.410000	2589.857741
9.420000	2578.271480
9.430000	2571.637726
9.440000	2556.868536
9.450000	2530.621119
9.460000	2506.357355
9.470000	2491.435639
9.480000	2480.996108
9.490000	2464.420086
9.500000	2440.515399
9.510000	2418.623668
9.520000	2414.244011
9.530000	2430.654951
9.540000	2456.128180
9.550000	2477.882275
9.560000	2478.199871
9.570000	2458.030747
9.580000	2398.087971
9.590000	2304.456326
9.600000	2205.580323
9.610000	2124.745980
9.620000	2076.261649
9.630000	2053.527213
9.640000	2051.498281
9.650000	2057.507221
9.660000	2051.937542
9.670000	2047.466297
9.680000	2051.253998
9.690000	2062.631512
9.700000	2067.095385
9.710000	2066.740514
9.720000	2103.613292
9.730000	2162.594541
9.740000	2223.688405
9.750000	2249.640318
9.760000	2254.478728
9.770000	2264.629697
9.780000	2277.768146
9.790000	2294.206210
9.800000	2307.621048
9.810000	2330.751923
9.820000	2352.995134
9.830000	2378.592146
9.840000	2390.232189
9.850000	2373.029604
9.860000	2321.086233
9.870000	2239.424408
9.880000	2187.686011
9.890000	2170.599124
9.900000	2197.230114
9.910000	2250.970722
9.920000	2312.703033
9.930000	2362.276826
9.940000	2391.481035
9.950000	2414.250981
9.960000	2445.871556
9.970000	2476.098738
9.980000	2503.230814
9.990000	2518.874934
10.000000	2540.944000
10.010000	2552.839529
10.020000	2548.637855
10.030000	2512.396102
10.040000	2457.700439
10.050000	2403.924311
10.060000	2365.707194
10.070000	2341.032027
10.080000	2319.985586
10.090000	2286.417325
10.100000	2251.301230
10.110000	2210.391596
10.120000	2177.966536
10.130000	2155.631176
10.140000	2160.308681
10.150000	2178.423055
10.160000	2214.003201
10.170000	2244.112838
10.180000	2285.780715
10.190000	2456.720300
10.200000	2631.867130
10.210000	2781.232488
10.220000	2798.388396
10.230000	2819.389993
10.240000	2848.528251
10.250000	2847.411910
10.260000	2841.158648
10.270000	2842.049131
10.280000	2869.794449
10.290000	2889.856764
10.300000	2904.184270
10.310000	2915.655140
10.320000	2937.257745
10.330000	2940.329347
10.340000	2935.430168
10.350000	2936.672171
10.360000	2966.618956
10.370000	2997.203355
10.380000	3010.831517
10.390000	2994.409473
10.400000	2981.836605
10.410000	2975.861018
10.420000	2976.833608
10.430000	2971.273899
10.440000	2975.913722
10.450000	3008.022510
10.460000	3039.203435
10.470000	3038.098765
10.480000	2996.225819
10.490000	2935.930249
10.500000	2861.202373
10.510000	2785.793805
10.520000	2713.156559
10.530000	2668.724297
10.540000	2649.372828
10.550000	2649.656203
10.560000	2636.855904
10.570000	2613.694404
10.580000	2588.029260
10.590000	2520.947530
10.600000	2458.446403
10.610000	2397.075927
10.620000	2391.367704
10.630000	2392.265196
10.640000	2394.087318
10.650000	2399.490323
10.660000	2402.128933
10.670000	2413.110526
10.680000	2407.084624
10.690000	2392.170587
10.700000	2368.700561
10.710000	2363.986742
10.720000	2362.547964
10.730000	2365.196978
10.740000	2383.441046
10.750000	2423.074794
10.760000	2468.625939
10.770000	2498.619948
10.780000	2516.563519
10.790000	2514.818804
10.800000	2493.874621
10.810000	2453.032473
10.820000	2402.901712
10.830000	2352.259550
10.840000	2303.596803
10.850000	2272.541454
10.860000	2279.323410
10.870000	2312.756062
10.880000	2361.067502
10.890000	2394.607413
10.900000	2417.590527
10.910000	2438.824021
10.920000	2446.743622
10.930000	2449.447350
10.940000	2439.540226
10.950000	2433.823195
10.960000	2436.321117
10.970000	2446.873556
10.980000	2461.443990
10.990000	2480.288272
11.000000	2510.605087
11.010000	2561.393660
11.020000	2626.075684
11.030000	2684.814794
11.040000	2736.616718
11.050000	2778.248308
11.060000	2812.860307
11.070000	2834.341212
11.080000	2842.471366
11.090000	2853.497069
11.100000	2871.065306
11.110000	2894.324463
11.120000	2914.989108
11.130000	2928.512106
11.140000	2948.311920
11.150000	2963.315147
11.160000	2977.692250
11.170000	2980.425085
11.180000	2986.492207
11.190000	2997.178563
11.200000	3026.006501
11.210000	3053.187500
11.220000	3073.239909
11.230000	3085.221576
11.240000	3078.458760
11.250000	3054.634575
11.260000	3001.985122
11.270000	2959.865196
11.280000	2922.731479
11.290000	2891.121902
11.300000	2868.828876
11.310000	2862.060043
11.320000	2872.253993
11.330000	2878.276336
11.340000	2873.391454
11.350000	2865.204109
11.360000	2872.230254
11.370000	2889.738662
11.380000	2907.724442
11.390000	2971.761631
11.400000	3045.328117
11.410000	3125.210241
11.420000	3161.804372
11.430000	3193.900776
11.440000	3229.861996
11.450000	3245.499292
11.460000	3261.372335
11.470000	3262.662855
11.480000	3263.289535
11.490000	3258.769507
11.500000	3247.874983
11.510000	3234.548657
11.520000	3224.121512
11.530000	3220.312931
11.540000	3222.009914
11.550000	3214.694443
11.560000	3208.953546
11.570000	3204.029943
11.580000	3193.198117
11.590000	3150.963385
11.600000	3073.483792
11.610000	2995.984552
11.620000	2936.033497
11.630000	2893.267748
11.640000	2843.160176
11.650000	2799.631935
11.660000	2765.229700
11.670000	2734.948143
11.680000	2692.573195
11.690000	2623.238118
11.700000	2567.704837
11.710000	2533.738100
11.720000	2534.149570
11.730000	2534.405850
11.740000	2544.345875
11.750000	2565.345267
11.760000	2583.125959
11.770000	2584.245599
11.780000	2571.574633
11.790000	2547.099102
11.800000	2504.955812
11.810000	2429.879295
11.820000	2361.438547
11.830000	2315.209622
11.840000	2290.825260
11.850000	2269.769593
11.860000	2253.210567
11.870000	2241.603830
11.880000	2231.192205
11.890000	2176.262397
11.900000	2090.608500
11.910000	1948.415026
11.920000	1809.862131
11.930000	1689.374738
11.940000	1590.015572
11.950000	1467.801172
11.960000	1368.008355
11.970000	1288.690317
11.980000	1261.350316
11.990000	1161.740533
12.000000	999.313222
12.010000	702.486778
12.020000	345.927929
12.030000	-203.422540
12.040000	-957.879241
12.050000	-1948.806175
12.060000	-2928.009062
12.070000	-3843.153374
12.080000	-4584.074132
12.090000	-5287.608180
12.100000	-5749.633688
12.110000	-6072.671218
12.120000	-6087.548060
12.130000	-6127.884585
12.140000	-6030.535691
12.150000	-5737.158381
12.160000	-4981.058532
12.170000	-4133.292781
12.180000	-2928.945079
12.190000	-1932.149464
12.200000	-1514.750144
12.210000	-3575.314132
12.220000	-8461.082091
12.230000	-17509.994083
12.240000	-32454.482696
12.250000	-47492.574210
12.260000	-63073.027494
12.270000	-70357.233606
12.280000	-73088.794612
12.290000	-69888.044112
12.300000	-63695.439352
12.310000	-59071.771168
12.320000	-55991.255478
12.330000	-53070.058941
12.340000	-49357.677890
12.350000	-46317.425697
12.360000	-42136.883382
12.370000	-37800.919440
12.380000	-31403.636163
12.390000	-22466.940390
12.400000	4423.255953
12.410000	6038.836142
12.420000	6464.183849
12.430000	6089.623867
12.440000	6431.889601
12.450000	6122.739352
12.460000	6410.704518
12.470000	6175.942319
12.480000	6410.917141
12.490000	6210.867497
12.500000	6400.483200
12.510000	6239.100259
12.520000	6371.799126
12.530000	6185.825597
12.540000	6229.922633
12.550000	6043.733561
12.560000	6074.830744
12.570000	5941.658513
12.580000	5992.039703
12.590000	5908.055780
12.600000	5962.508506
12.610000	5899.307650
12.620000	5951.965774
12.630000	5922.688421
12.640000	5984.090332
12.650000	5952.744274
12.660000	5990.820084
12.670000	5956.624499
12.680000	5992.993203
12.690000	5973.095516
12.700000	6000.800935
12.710000	5982.695142
12.720000	5988.396361
12.730000	5967.641499
12.740000	5971.950045
12.750000	5943.301705
12.760000	5913.768517
12.770000	5851.138625
12.780000	5816.866753
12.790000	5783.757085
12.800000	5778.139514
12.810000	5730.809784
12.820000	5677.065008
12.830000	5598.416179
12.840000	5556.915482
12.850000	5522.475581
12.860000	5504.917248
12.870000	5470.459147
12.880000	5418.723549
12.890000	5338.461146
12.900000	5226.602747
12.910000	5102.911720
12.920000	4996.562391
12.930000	4913.688981
12.940000	4836.849253
12.950000	4753.206169
12.960000	4674.934033
12.970000	4585.041051
12.980000	4508.868098
12.990000	4449.884063
13.000000	4426.580117
13.010000	4370.226005
13.020000	4273.868739
13.030000	4178.107220
13.040000	4103.512735
13.050000	4059.035252
13.060000	4021.147929
13.070000	3973.732332
13.080000	3917.245626
13.090000	3850.844402
13.100000	3808.525805
13.110000	3791.621747
13.120000	3764.126604
13.130000	3733.944352
13.140000	3697.455210
13.150000	3675.428175
13.160000	3660.468780
13.170000	3647.682576
13.180000	3626.899610
13.190000	3605.083803
13.200000	3586.758162
13.210000	3597.311401
13.220000	3634.644894
13.230000	3672.912043
13.240000	3699.006123
13.250000	3698.282513
13.260000	3685.556844
13.270000	3652.699707
13.280000	3598.570983
13.290000	3537.605022
13.300000	3480.019986
13.310000	3437.294653
13.320000	3407.547536
13.330000	3381.413337
13.340000	3347.185942
13.350000	3297.328415
13.360000	3272.743303
13.370000	3260.549299
13.380000	3250.763079
13.390000	3224.868776
13.400000	3200.672198
13.410000	3179.934636
13.420000	3150.333931
13.430000	3114.500352
13.440000	3083.478371
13.450000	3071.869556
13.460000	3080.379128
13.470000	3098.001828
13.480000	3105.720508
13.490000	3104.986992
13.500000	3105.882954
13.510000	3117.433957
13.520000	3135.474523
13.530000	3162.699082
13.540000	3190.167402
13.550000	3217.454788
13.560000	3232.295525
13.570000	3246.745616
13.580000	3260.191037
13.590000	3285.542961
13.600000	3318.843412
13.610000	3335.754666
13.620000	3334.361493
13.630000	3309.094220
13.640000	3278.751468
13.650000	3228.814287
13.660000	3153.638209
13.670000	3094.134965
13.680000	3094.674185
13.690000	3145.112635
13.700000	3187.385547
13.710000	3194.315750
13.720000	3182.023356
13.730000	3175.684831
13.740000	3173.394753
13.750000	3187.568073
13.760000	3210.519277
13.770000	3226.571186
13.780000	3233.155091
13.790000	3231.393168
13.800000	3225.942773
13.810000	3223.362602
13.820000	3226.195038
13.830000	3237.475705
13.840000	3254.908317
13.850000	3277.066848
13.860000	3300.759034
13.870000	3319.123487
13.880000	3323.747661
13.890000	3332.059846
13.900000	3340.152992
13.910000	3361.519166
13.920000	3391.650572
13.930000	3423.780462
13.940000	3451.624129
13.950000	3474.197421
13.960000	3497.424195
13.970000	3533.438714
13.980000	3558.265414
13.990000	3519.742623
14.000000	3458.166949
14.010000	3395.803032
14.020000	3379.942884
14.030000	3376.445051
14.040000	3375.256509
14.050000	3388.619403
14.060000	3396.284874
14.070000	3392.971703
14.080000	3380.803253
14.090000	3358.784601
14.100000	3351.193003
14.110000	3352.316532
14.120000	3367.747958
14.130000	3382.926666
14.140000	3396.806300
14.150000	3412.681015
14.160000	3423.300645
14.170000	3433.599778
14.180000	3438.564575
14.190000	3446.685147
14.200000	3440.887058
14.210000	3429.969578
14.220000	3414.982130
14.230000	3404.735054
14.240000	3403.857949
14.250000	3400.914445
14.260000	3394.217709
14.270000	3385.559657
14.280000	3382.381669
14.290000	3386.309974
14.300000	3382.955089
14.310000	3367.204905
14.320000	3324.955275
14.330000	3249.236538
14.340000	3168.502148
14.350000	3102.693120
14.360000	3054.448744
14.370000	3000.859000
14.380000	2956.276031
14.390000	2934.467144
14.400000	2919.464353
14.410000	2885.155618
14.420000	2839.854221
14.430000	2819.692942
14.440000	2828.259239
14.450000	2839.585711
14.460000	2829.771949
14.470000	2796.973117
14.480000	2748.743227
14.490000	2717.526982
14.500000	2701.049232
14.510000	2692.831365
14.520000	2679.095878
14.530000	2672.634685
14.540000	2679.882949
14.550000	2684.130895
14.560000	2672.435384
14.570000	2659.122226
14.580000	2656.066502
14.590000	2670.183857
14.600000	2680.369741
14.610000	2681.035660
14.620000	2673.772042
14.630000	2666.315462
14.640000	2636.167511
14.650000	2573.705245
14.660000	2509.412812
14.670000	2464.808453
14.680000	2483.789321
14.690000	2527.753154
14.700000	2586.978231
14.710000	2625.356775
14.720000	2672.076165
14.730000	2723.932730
14.740000	2778.903571
14.750000	2802.143011
14.760000	2818.283712
14.770000	2828.676933
14.780000	2855.105750
14.790000	2967.727677
14.800000	3084.892955
14.810000	3177.636716
14.820000	3171.934784
14.830000	3152.023583
14.840000	3155.222322
14.850000	3172.656210
14.860000	3195.213223
14.870000	3213.322951
14.880000	3240.634610
14.890000	3276.648864
14.900000	3302.702105
14.910000	3319.388277
14.920000	3327.796159
14.930000	3341.184221
14.940000	3351.185139
14.950000	3353.343093
14.960000	3362.309961
14.970000	3386.165096
14.980000	3432.445609
14.990000	3485.600448
15.000000	3530.590517
15.010000	3571.761298
15.020000	3608.725733
15.030000	3648.276199
15.040000	3682.485857
15.050000	3719.163971
15.060000	3752.535950
15.070000	3788.408432
15.080000	3816.865318
15.090000	3792.542214
15.100000	3760.761311
15.110000	3731.895060
15.120000	3739.032238
15.130000	3749.042701
15.140000	3757.021463
15.150000	3765.181416
15.160000	3770.632254
15.170000	3780.981917
15.180000	3808.218706
15.190000	3835.998885
15.200000	3840.743533
15.210000	3834.736541
15.220000	3838.243054
15.230000	3857.385351
15.240000	3875.293292
15.250000	3883.334500
15.260000	3895.012528
15.270000	3898.486033
15.280000	3897.376670
15.290000	3894.568392
15.300000	3896.680981
15.310000	3897.542559
15.320000	3887.232279
15.330000	3866.801128
15.340000	3821.992763
15.350000	3776.077599
15.360000	3771.718252
15.370000	3816.499692
15.380000	3880.914025
15.390000	3923.123590
15.400000	3950.477380
15.410000	3967.636051
15.420000	3979.601053
15.430000	3996.050816
15.440000	4013.909206
15.450000	4020.655847
15.460000	3995.407263
15.470000	3961.926356
15.480000	3925.728007
15.490000	3899.419076
15.500000	3870.178214
15.510000	3845.831021
15.520000	3825.797704
15.530000	3807.091889
15.540000	3800.975000
15.550000	3796.807728
15.560000	3799.707120
15.570000	3800.325119
15.580000	3804.986613
15.590000	3816.333075
15.600000	3833.419936
15.610000	3856.504317
15.620000	3889.686750
15.630000	3924.460125
15.640000	3957.784007
15.650000	3963.163152
15.660000	3979.869726
15.670000	4037.978237
15.680000	4112.604620
15.690000	4122.768820
15.700000	4034.928797
15.710000	3898.241594
15.720000	3703.878130
15.730000	3377.982866
15.740000	2893.733061
15.750000	2424.045119
15.760000	2045.090603
15.770000	1783.067704
15.780000	1538.195632
15.790000	1273.351780
15.800000	996.844054
15.810000	706.354495
15.820000	469.428052
15.830000	220.063305
15.840000	-46.751689
15.850000	-377.610825
15.860000	-641.382839
15.870000	-856.305563
15.880000	-1000.518354
15.890000	-1046.603678
15.900000	-888.727935
15.910000	-198.584324
15.920000	1083.359917
15.930000	2757.087008
15.940000	4092.686442
15.950000	3860.408763
15.960000	370.769394
15.970000	-6509.087902
15.980000	-19889.316073
15.990000	-38307.147000
16.000000	-58963.870039
16.010000	-72708.767476
16.020000	-74816.965037
16.030000	-72889.793467
16.040000	-69174.758632
16.050000	-65797.464825
16.060000	-62783.132642
16.070000	-60255.758391
16.080000	-58753.663431
16.090000	-59276.003976
16.100000	-60658.940139
16.110000	-62149.732173
16.120000	-62839.140204
16.130000	-62891.093762
16.140000	-62287.190940
16.150000	-61286.567638
16.160000	-59171.907946
16.170000	-56231.816963
16.180000	-52838.531327
16.190000	-50120.817862
16.200000	-47635.507659
16.210000	-44580.165418
16.220000	-40343.672237
16.230000	-35184.894312
16.240000	-29029.334476
16.250000	-22203.624558
16.260000	-15983.435072
16.270000	-11061.978230
16.280000	-7117.185432
16.290000	-2111.750209
16.300000	2673.444408
16.310000	5848.835675
16.320000	6035.608694
16.330000	6006.129963
16.340000	6133.582702
16.350000	6067.173860
16.360000	6134.496779
16.370000	6036.244822
16.380000	6024.345781
16.390000	5903.847967
16.400000	5891.423526
16.410000	5816.156671
16.420000	5822.141776
16.430000	5769.465805
16.440000	5797.078222
16.450000	5776.832049
16.460000	5807.767762
16.470000	5796.136249
16.480000	5818.063000
16.490000	5799.505412
16.500000	5810.235564
16.510000	5804.377483
16.520000	5843.194452
16.530000	5870.423626
16.540000	5926.921724
16.550000	5966.403469
16.560000	6037.086297
16.570000	6105.006667
16.580000	6186.242010
16.590000	6256.356880
16.600000	6337.722449
16.610000	6421.488688
16.620000	6524.478554
16.630000	6598.986182
16.640000	6652.266257
16.650000	6667.302010
16.660000	6700.812456
16.670000	6736.310350
16.680000	6762.604340
16.690000	6764.877391
16.700000	6758.384958
16.710000	6739.636518
16.720000	6701.737193
16.730000	6635.641389
16.740000	6571.786832
16.750000	6514.500775
16.760000	6490.828992
16.770000	6482.503011
16.780000	6472.813220
16.790000	6445.782147
16.800000	6413.486455
16.810000	6405.391354
16.820000	6408.328556
16.830000	6397.591775
16.840000	6345.455505
16.850000	6287.262089
16.860000	6234.483722
16.870000	6194.558269
16.880000	6153.760838
16.890000	6102.843809
16.900000	6056.751464
16.910000	6003.372066
16.920000	5968.499821
16.930000	5936.443217
16.940000	5899.931326
16.950000	5849.504858
16.960000	5798.759093
16.970000	5757.558933
16.980000	5710.523235
16.990000	5660.672262
17.000000	5607.623040
17.010000	5565.172475
17.020000	5522.673204
17.030000	5476.712914
17.040000	5428.091446
17.050000	5372.264639
17.060000	5316.236792
17.070000	5267.181601
17.080000	5216.038341
17.090000	5146.114380
17.100000	5036.534467
17.110000	4909.540906
17.120000	4794.427839
17.130000	4679.568775
17.140000	4570.083436
17.150000	4473.321463
17.160000	4402.810464
17.170000	4342.382795
17.180000	4275.595986
17.190000	4217.592476
17.200000	4186.119252
17.210000	4157.755307
17.220000	4104.030475
17.230000	4031.752435
17.240000	3968.070524
17.250000	3926.453807
17.260000	3895.787037
17.270000	3864.232656
17.280000	3834.959680
17.290000	3798.059262
17.300000	3743.885459
17.310000	3689.380020
17.320000	3645.217173
17.330000	3630.148113
17.340000	3630.888025
17.350000	3639.693840
17.360000	3650.661608
17.370000	3660.680158
17.380000	3667.539137
17.390000	3667.432096
17.400000	3661.869782
17.410000	3663.655377
17.420000	3689.653704
17.430000	3722.227791
17.440000	3741.209651
17.450000	3738.614369
17.460000	3731.951358
17.470000	3710.039563
17.480000	3644.765633
17.490000	3546.023188
17.500000	3446.431310
17.510000	3377.795147
17.520000	3334.787134
17.530000	3297.320249
17.540000	3262.652468
17.550000	3235.328737
17.560000	3229.341937
17.570000	3241.757044
17.580000	3250.780698
17.590000	3226.298337
17.600000	3191.837364
17.610000	3159.613850
17.620000	3146.714054
17.630000	3133.971113
17.640000	3115.770609
17.650000	3097.502541
17.660000	3072.606230
17.670000	3059.248371
17.680000	3042.164423
17.690000	3025.195626
17.700000	3005.521139
17.710000	2991.324445
17.720000	2987.354262
17.730000	2989.917063
17.740000	3004.701268
17.750000	3028.975783
17.760000	3047.504245
17.770000	3059.565762
17.780000	3058.784134
17.790000	3073.410994
17.800000	3104.483773
17.810000	3125.676563
17.820000	3136.751533
17.830000	3128.080435
17.840000	3124.946882
17.850000	3079.783503
17.860000	3022.521941
17.870000	3004.713683
17.880000	3026.123357
17.890000	3079.126339
17.900000	3100.742996
17.910000	3121.299664
17.920000	3122.400667
17.930000	3120.073485
17.940000	3147.612458
17.950000	3199.915938
17.960000	3271.999369
17.970000	3318.489612
17.980000	3347.375662
17.990000	3363.564957
18.000000	3388.976106
18.010000	3419.747529
18.020000	3452.088698
18.030000	3479.100747
18.040000	3499.396152
18.050000	3519.656374
18.060000	3537.526200
18.070000	3558.414550
18.080000	3571.125656
18.090000	3578.058846
18.100000	3587.256469
18.110000	3612.902926
18.120000	3640.157510
18.130000	3662.286232
18.140000	3681.600677
18.150000	3686.482191
18.160000	3671.913166
18.170000	3615.147569
18.180000	3564.606128
18.190000	3531.562803
18.200000	3531.830291
18.210000	3535.036754
18.220000	3546.337739
18.230000	3567.353487
18.240000	3597.357998
18.250000	3621.818295
18.260000	3652.636914
18.270000	3683.418927
18.280000	3712.782353
18.290000	3814.746058
18.300000	3916.711128
18.310000	4011.772928
18.320000	4017.952926
18.330000	4014.428201
18.340000	4017.541119
18.350000	4011.514070
18.360000	4011.065035
18.370000	4012.066599
18.380000	4014.785875
18.390000	3986.379449
18.400000	3923.104284
18.410000	3829.231644
18.420000	3742.364573
18.430000	3672.190474
18.440000	3618.112875
18.450000	3576.657251
18.460000	3539.362905
18.470000	3503.989418
18.480000	3469.798225
18.490000	3455.890077
18.500000	3470.049281
18.510000	3482.533946
18.520000	3475.177849
18.530000	3453.755372
18.540000	3433.176037
18.550000	3416.788950
18.560000	3397.990146
18.570000	3380.359755
18.580000	3359.958835
18.590000	3297.006638
18.600000	3234.662446
18.610000	3183.069208
18.620000	3175.602127
18.630000	3171.767023
18.640000	3162.799609
18.650000	3176.067228
18.660000	3190.031734
18.670000	3204.928663
18.680000	3197.366165
18.690000	3177.047281
18.700000	3136.819653
18.710000	3058.299451
18.720000	2979.257470
18.730000	2915.319902
18.740000	2890.546541
18.750000	2877.358921
18.760000	2871.726302
18.770000	2866.547788
18.780000	2873.448024
18.790000	2918.265122
18.800000	2968.497822
18.810000	3013.863986
18.820000	3025.315426
18.830000	3034.781838
18.840000	3046.206477
18.850000	3052.819367
18.860000	3065.627557
18.870000	3083.971473
18.880000	3115.550279
18.890000	3185.649277
18.900000	3252.431401
18.910000	3290.513702
18.920000	3266.764655
18.930000	3205.006602
18.940000	3152.967562
18.950000	3106.827175
18.960000	3092.720569
18.970000	3081.295057
18.980000	3080.039676
18.990000	3084.526968
19.000000	3105.863368
19.010000	3165.915495
19.020000	3237.344098
19.030000	3311.145002
19.040000	3368.252899
19.050000	3410.218569
19.060000	3447.973276
19.070000	3470.014686
19.080000	3492.552265
19.090000	3515.881239
19.100000	3533.892769
19.110000	3545.873318
19.120000	3551.008616
19.130000	3567.357745
19.140000	3597.520719
19.150000	3627.232748
19.160000	3652.830327
19.170000	3675.220160
19.180000	3698.245972
19.190000	3717.280367
19.200000	3737.783453
19.210000	3766.101851
19.220000	3795.374856
19.230000	3828.371311
19.240000	3859.362422
19.250000	3896.429488
19.260000	3929.047599
19.270000	3957.931822
19.280000	3976.791364
19.290000	3986.529600
19.300000	4008.331015
19.310000	4045.817126
19.320000	4086.896608
19.330000	4116.496652
19.340000	4127.214520
19.350000	4116.585363
19.360000	4063.207055
19.370000	3986.176262
19.380000	3922.971994
19.390000	3891.098485
19.400000	3860.991419
19.410000	3826.466238
19.420000	3785.400847
19.430000	3757.938160
19.440000	3743.126168
19.450000	3724.405169
19.460000	3721.319372
19.470000	3712.459161
19.480000	3708.296995
19.490000	3678.762683
19.500000	3649.786654
19.510000	3636.057538
19.520000	3639.928602
19.530000	3640.973269
19.540000	3630.450003
19.550000	3625.638387
19.560000	3622.922469
19.570000	3628.669897
19.580000	3634.022579
19.590000	3639.727721
19.600000	3640.102072
19.610000	3644.821867
19.620000	3656.152416
19.630000	3667.880977
19.640000	3674.189115
19.650000	3678.948976
19.660000	3689.213801
19.670000	3707.313540
19.680000	3729.862591
19.690000	3758.662393
19.700000	3785.116417
19.710000	3807.661019
19.720000	3829.009284
19.730000	3842.257342
19.740000	3850.550654
19.750000	3863.489060
19.760000	3871.319948
19.770000	3847.285201
19.780000	3775.393306
19.790000	3697.845671
19.800000	3643.698371
19.810000	3623.954324
19.820000	3611.158844
19.830000	3595.034436
19.840000	3569.886072
19.850000	3550.755538
19.860000	3562.554286
19.870000	3599.970663
19.880000	3632.727429
19.890000	3642.120852
19.900000	3638.546861
19.910000	3616.456676
19.920000	3573.601159
19.930000	3502.667417
19.940000	3422.947018
19.950000	3332.701862
19.960000	3246.883133
19.970000	3169.914743
19.980000	3104.016790
19.990000	3012.554058
20.000000	2934.888536
20.010000	2901.360804
20.020000	2918.215810
20.030000	2954.917720
20.040000	2969.024371
20.050000	2956.089092
20.060000	2886.937875
20.070000	2794.934495
20.080000	2681.595565
20.090000	2565.654883
20.100000	2439.003245
20.110000	2323.276690
20.120000	2183.069968
20.130000	1939.925267
20.140000	1593.826447
20.150000	1303.814296
20.160000	1170.889705
20.170000	1138.399095
20.180000	1434.526655
20.190000	1639.658606
20.200000	312.808163
20.210000	-2472.476370
20.220000	-4453.790187
20.230000	-4538.386394
20.240000	-4854.468378
20.250000	-8574.973185
20.260000	-17475.394270
20.270000	-33392.502986
20.280000	-52505.323989
20.290000	-68867.832326
20.300000	-76061.814255
20.310000	-77827.945782
20.320000	-74127.824670
20.330000	-67840.539591
20.340000	-60791.355602
20.350000	-55277.573596
20.360000	-51914.706258
20.370000	-50261.003876
20.380000	-49189.540610
20.390000	-48153.297560
20.400000	-46949.256789
20.410000	-45820.419317
20.420000	-44023.532945
20.430000	-41425.484454
20.440000	-38670.877920
20.450000	-36337.965009
20.460000	-34648.506068
20.470000	-33395.528054
20.480000	-32905.857881
20.490000	-32863.914840
20.500000	-32682.047669
20.510000	-31261.814141
20.520000	-27528.882451
20.530000	-21848.460762
20.540000	-15238.812368
20.550000	-9354.663365
20.560000	-4427.103322
20.570000	-812.622890
20.580000	1441.983328
20.590000	2606.736614
20.600000	3397.079785
20.610000	3984.392446
20.620000	4396.242759
20.630000	4712.992298
20.640000	4935.323397
20.650000	5180.386011
20.660000	5419.815776
20.670000	5640.303217
20.680000	5793.364394
20.690000	5918.619258
20.700000	6015.296228
20.710000	6103.490700
20.720000	6177.993880
20.730000	6254.258066
20.740000	6331.489909
20.750000	6409.874899
20.760000	6484.489095
20.770000	6551.014291
20.780000	6601.669995
20.790000	6637.706667
20.800000	6641.664605
20.810000	6624.679557
20.820000	6610.566178
20.830000	6613.501575
20.840000	6610.578246
20.850000	6589.234403
20.860000	6556.195684
20.870000	6511.838816
20.880000	6432.639754
20.890000	6339.126377
20.900000	6259.670696
20.910000	6208.610519
20.920000	6176.541314
20.930000	6174.057528
20.940000	6243.409831
20.950000	6410.373215
20.960000	6626.992710
20.970000	6823.883140
20.980000	6958.572127
20.990000	7029.430681
21.000000	7035.080445
21.010000	6978.588040
21.020000	6864.192279
21.030000	6724.091799
21.040000	6581.551783
21.050000	6464.215682
21.060000	6352.726144
21.070000	6243.997345
21.080000	6137.523113
21.090000	6058.133180
21.100000	5991.165222
21.110000	5947.963035
21.120000	5925.058187
21.130000	5932.122761
21.140000	5967.215239
21.150000	6027.912652
21.160000	6104.318717
21.170000	6191.351478
21.180000	6270.021764
21.190000	6279.648913
21.200000	6243.931664
21.210000	6191.603881
21.220000	6190.260571
21.230000	6202.584837
21.240000	6200.932004
21.250000	6178.607746
21.260000	6152.989041
21.270000	6139.947721
21.280000	6127.960370
21.290000	6055.140536
21.300000	5967.554292
21.310000	5893.612507
21.320000	5873.509744
21.330000	5858.169934
21.340000	5840.913729
21.350000	5834.781684
21.360000	5823.572262
21.370000	5808.443978
21.380000	5760.819952
21.390000	5695.898593
21.400000	5593.978434
21.410000	5500.205819
21.420000	5414.688869
21.430000	5351.561676
21.440000	5300.342888
21.450000	5253.270576
21.460000	5213.707386
21.470000	5170.286597
21.480000	5139.496918
21.490000	5111.579974
21.500000	5082.318668
21.510000	5047.223789
21.520000	5005.502579
21.530000	4964.576297
21.540000	4925.355500
21.550000	4894.632580
21.560000	4874.884886
21.570000	4865.034750
21.580000	4852.405367
21.590000	4828.471881
21.600000	4806.008481
21.610000	4796.262831
21.620000	4792.921889
21.630000	4788.075070
21.640000	4780.880845
21.650000	4782.948063
21.660000	4787.817128
21.670000	4791.187638
21.680000	4785.772861
21.690000	4770.806413
21.700000	4755.785018
21.710000	4749.785849
21.720000	4741.436371
21.730000	4720.463857
21.740000	4674.109937
21.750000	4610.561894
21.760000	4517.088649
21.770000	4401.412108
21.780000	4290.817133
21.790000	4195.244072
21.800000	4124.909082
21.810000	4073.393010
21.820000	4048.736675
21.830000	4030.158621
21.840000	4008.625584
21.850000	3997.681814
21.860000	4000.849034
21.870000	4010.870609
21.880000	4003.387163
21.890000	3991.523767
21.900000	3972.242036
21.910000	3958.247678
21.920000	3949.422211
21.930000	3935.971861
21.940000	3928.016893
21.950000	3922.352195
21.960000	3927.669916
21.970000	3927.689163
21.980000	3926.737632
21.990000	3927.378882
22.000000	3933.833647
22.010000	3962.458473
22.020000	4004.550142
22.030000	4047.215275
22.040000	4073.610560
22.050000	4092.396256
22.060000	4104.001838
22.070000	4114.612489
22.080000	4122.055555
22.090000	4139.889916
22.100000	4159.732894
22.110000	4169.841207
22.120000	4178.815051
22.130000	4167.397419
22.140000	4150.003586
22.150000	4106.538510
22.160000	4059.654941
22.170000	4019.656813
22.180000	3999.657502
22.190000	3995.068988
22.200000	4000.332194
22.210000	4021.854447
22.220000	4057.322278
22.230000	4095.286391
22.240000	4117.965423
22.250000	4139.140996
22.260000	4164.588041
22.270000	4180.274796
22.280000	4191.262133
22.290000	4190.372767
22.300000	4203.690753
22.310000	4210.671202
22.320000	4214.511787
22.330000	4206.930622
22.340000	4209.739942
22.350000	4227.131368
22.360000	4259.278682
22.370000	4280.581481
22.380000	4294.215126
22.390000	4363.848232
22.400000	4446.507617
22.410000	4533.188994
22.420000	4572.997503
22.430000	4604.753659
22.440000	4637.046866
22.450000	4658.571175
22.460000	4655.729055
22.470000	4622.379889
22.480000	4553.717191
22.490000	4491.617308
22.500000	4447.587247
22.510000	4429.474822
22.520000	4432.049647
22.530000	4437.925305
22.540000	4446.181693
22.550000	4443.296966
22.560000	4447.354343
22.570000	4460.242594
22.580000	4483.809949
22.590000	4511.111731
22.600000	4525.852094
22.610000	4542.007439
22.620000	4554.449701
22.630000	4579.233742
22.640000	4606.245634
22.650000	4629.740000
22.660000	4651.661707
22.670000	4663.480873
22.680000	4677.730017
22.690000	4688.429597
22.700000	4701.754685
22.710000	4708.590217
22.720000	4714.738438
22.730000	4713.632502
22.740000	4714.679197
22.750000	4716.221666
22.760000	4721.541557
22.770000	4723.688170
22.780000	4718.648138
22.790000	4707.736145
22.800000	4701.678058
22.810000	4702.989682
22.820000	4692.206312
22.830000	4679.547352
22.840000	4674.953606
22.850000	4677.625835
22.860000	4674.548134
22.870000	4664.614932
22.880000	4659.720019
22.890000	4636.713154
22.900000	4572.761846
22.910000	4498.490935
22.920000	4445.669852
22.930000	4418.720247
22.940000	4403.383442
22.950000	4388.144200
22.960000	4382.004013
22.970000	4373.359020
22.980000	4364.841280
22.990000	4360.752798
23.000000	4354.152118
23.010000	4335.975252
23.020000	4306.653568
23.030000	4277.388484
23.040000	4244.605605
23.050000	4200.277269
23.060000	4151.750907
23.070000	4107.984739
23.080000	4074.698107
23.090000	4042.457892
23.100000	4009.804323
23.110000	3976.066786
23.120000	3942.044579
23.130000	3915.487846
23.140000	3897.723316
23.150000	3893.704681
23.160000	3892.139578
23.170000	3894.401424
23.180000	3896.983840
23.190000	3908.235055
23.200000	3924.896787
23.210000	3943.163959
23.220000	3959.904544
23.230000	3973.853779
23.240000	3980.321484
23.250000	3978.636009
23.260000	3973.831556
23.270000	3962.802737
23.280000	3930.043795
23.290000	3864.046017
23.300000	3804.792356
23.310000	3787.667527
23.320000	3799.795163
23.330000	3809.954704
23.340000	3805.895349
23.350000	3801.354403
23.360000	3796.662368
23.370000	3790.448909
23.380000	3801.847645
23.390000	3811.796223
23.400000	3817.430879
23.410000	3805.798352
23.420000	3798.788042
23.430000	3790.732036
23.440000	3783.836396
23.450000	3777.656971
23.460000	3769.205233
23.470000	3758.914360
23.480000	3756.585083
23.490000	3765.133662
23.500000	3780.589018
23.510000	3818.043817
23.520000	3857.463768
23.530000	3896.632313
23.540000	3916.584006
23.550000	3930.930504
23.560000	3943.960895
23.570000	3951.148752
23.580000	3958.974275
23.590000	3964.275409
23.600000	3968.597415
23.610000	3974.664048
23.620000	3982.132770
23.630000	3989.966616
23.640000	4000.254387
23.650000	4016.178348
23.660000	4023.897200
23.670000	4034.354538
23.680000	4024.337658
23.690000	3984.455198
23.700000	3950.116031
23.710000	3935.039486
23.720000	3946.080391
23.730000	3941.356372
23.740000	3927.038116
23.750000	3925.574250
23.760000	3927.760063
23.770000	3928.984089
23.780000	3919.976722
23.790000	3918.303275
23.800000	3919.630322
23.810000	3926.466428
23.820000	3921.716650
23.830000	3926.549283
23.840000	3940.218747
23.850000	3971.796379
23.860000	4008.459286
23.870000	4047.196944
23.880000	4075.461397
23.890000	4101.771025
23.900000	4124.880212
23.910000	4152.140081
23.920000	4173.684248
23.930000	4194.978211
23.940000	4209.877791
23.950000	4222.928165
23.960000	4229.456190
23.970000	4245.339087
23.980000	4266.378301
23.990000	4114.666053
24.000000	3920.200184
24.010000	3684.688996
24.020000	3598.917268
24.030000	3523.174292
24.040000	3447.354579
24.050000	3357.674558
24.060000	3263.875704
24.070000	3155.131642
24.080000	3054.497281
24.090000	2936.791033
24.100000	2853.992961
24.110000	2753.151755
24.120000	2685.090539
24.130000	2585.841393
24.140000	2511.823608
24.150000	2376.437013
24.160000	2251.618179
24.170000	2037.179875
24.180000	1841.934020
24.190000	1579.661539
24.200000	1361.727560
24.210000	1018.968267
24.220000	684.941970
24.230000	291.972230
24.240000	-29.388713
24.250000	-453.623974
24.260000	-752.381500
24.270000	-1093.081876
24.280000	-1100.330908
24.290000	-929.451084
24.300000	-1272.882010
24.310000	-2719.668912
24.320000	-3428.563526
24.330000	-2695.488247
24.340000	-1417.125938
24.350000	-2651.400637
24.360000	-7122.346111
24.370000	-14577.363861
24.380000	-28312.848884
24.390000	-45926.978378
24.400000	-48348.933697
24.410000	-48068.743105
24.420000	-45818.843286
24.430000	-42785.637583
24.440000	-39796.976160
24.450000	-37444.429091
24.460000	-35769.816071
24.470000	-34596.842563
24.480000	-33752.222436
24.490000	-33348.268911
24.500000	-33096.760541
24.510000	-33434.588512
24.520000	-34121.008774
24.530000	-34717.940169
24.540000	-34867.386901
24.550000	-35160.811849
24.560000	-35218.010650
24.570000	-35058.698215
24.580000	-33677.737523
24.590000	-31054.207223
24.600000	-26274.265924
24.610000	-19931.615433
24.620000	-13059.013469
24.630000	-7446.812353
24.640000	-3764.859706
24.650000	-2406.768988
24.660000	-2829.833714
24.670000	-4362.296367
24.680000	-5998.817089
24.690000	-5684.199503
24.700000	-4482.293425
24.710000	-2822.286058
24.720000	-2533.542293
24.730000	-2455.755003
24.740000	-2223.234276
24.750000	-2193.136810
24.760000	-2033.294006
24.770000	-1979.005085
24.780000	-1843.455740
24.790000	-1860.289698
24.800000	-1817.321292
24.810000	-1846.113556
24.820000	-1756.231011
24.830000	-1710.503012
24.840000	-1585.282654
24.850000	-1500.490276
24.860000	-1357.663395
24.870000	-1247.592967
24.880000	-1097.523955
24.890000	-695.280206
