Time(s)	GREEN_denoised_wiener
0.000000	-447.655992
0.010000	-692.985736
0.020000	-795.166784
0.030000	-903.484651
0.040000	-1009.325984
0.050000	-1098.038356
0.060000	-1152.884418
0.070000	-1172.372474
0.080000	-1170.223414
0.090000	-1162.786155
0.100000	-1146.580518
0.110000	-1108.579737
0.120000	-1050.384128
0.130000	-984.810660
0.140000	-916.572209
0.150000	-844.432163
0.160000	-781.874493
0.170000	-732.767872
0.180000	-698.577631
0.190000	-665.134932
0.200000	-624.371980
0.210000	-568.577582
0.220000	-499.266435
0.230000	-420.101050
0.240000	-332.229048
0.250000	-246.392747
0.260000	-190.647899
0.270000	-191.756382
0.280000	-249.735590
0.290000	-340.128562
0.300000	-437.229085
0.310000	-534.295532
0.320000	-629.478850
0.330000	-721.540472
0.340000	-804.124313
0.350000	-870.527669
0.360000	-909.834863
0.370000	-923.291705
0.380000	-916.968875
0.390000	-905.155291
0.400000	-887.807262
0.410000	-864.428129
0.420000	-831.715188
0.430000	-790.790446
0.440000	-744.037312
0.450000	-689.886039
0.460000	-628.107315
0.470000	-559.060840
0.480000	-491.611655
0.490000	-431.638465
0.500000	-379.846192
0.510000	-335.289342
0.520000	-294.150668
0.530000	-248.339681
0.540000	-191.872164
0.550000	-118.132889
0.560000	-40.058664
0.570000	11.947929
0.580000	9.682841
0.590000	-46.637925
0.600000	-130.915994
0.610000	-218.973849
0.620000	-307.984962
0.630000	-395.054437
0.640000	-481.811236
0.650000	-561.189385
0.660000	-626.717407
0.670000	-668.727171
0.680000	-683.050319
0.690000	-675.704584
0.700000	-657.140399
0.710000	-637.091692
0.720000	-613.610057
0.730000	-584.890859
0.740000	-547.152608
0.750000	-505.793550
0.760000	-459.755725
0.770000	-410.447962
0.780000	-355.426519
0.790000	-293.183180
0.800000	-223.846685
0.810000	-147.997820
0.820000	-69.687868
0.830000	11.789153
0.840000	93.716796
0.850000	175.838160
0.860000	257.709592
0.870000	332.458186
0.880000	378.250005
0.890000	374.002347
0.900000	321.776082
0.910000	243.189013
0.920000	161.562319
0.930000	83.251250
0.940000	2.905260
0.950000	-81.087369
0.960000	-166.485658
0.970000	-243.817216
0.980000	-301.949753
0.990000	-332.632694
1.000000	-339.858503
1.010000	-336.550373
1.020000	-331.500220
1.030000	-323.518257
1.040000	-310.550488
1.050000	-291.900762
1.060000	-266.009242
1.070000	-233.366391
1.080000	-194.211428
1.090000	-149.912535
1.100000	-101.824285
1.110000	-49.531152
1.120000	5.480342
1.130000	65.115631
1.140000	128.700678
1.150000	198.693855
1.160000	273.833676
1.170000	352.861674
1.180000	428.874130
1.190000	477.237129
1.200000	476.178816
1.210000	426.597921
1.220000	355.812499
1.230000	281.522093
1.240000	198.974339
1.250000	87.325248
1.260000	-66.586183
1.270000	-252.885105
1.280000	-440.832824
1.290000	-590.814480
1.300000	-682.876847
1.310000	-714.869439
1.320000	-710.067361
1.330000	-677.628918
1.340000	-623.659412
1.350000	-557.808011
1.360000	-490.998132
1.370000	-444.759354
1.380000	-426.708373
1.390000	-450.135959
1.400000	-480.697398
1.410000	-483.921775
1.420000	-428.437762
1.430000	-317.545577
1.440000	-172.637172
1.450000	-26.276013
1.460000	105.466172
1.470000	217.949149
1.480000	296.131891
1.490000	318.748231
1.500000	276.421357
1.510000	199.915393
1.520000	113.952128
1.530000	33.647475
1.540000	-48.989193
1.550000	-130.998932
1.560000	-209.673031
1.570000	-292.414873
1.580000	-395.121892
1.590000	-506.832000
1.600000	-599.933242
1.610000	-658.355640
1.620000	-685.539580
1.630000	-692.976048
1.640000	-693.557673
1.650000	-691.313259
1.660000	-678.283898
1.670000	-651.070620
1.680000	-614.105822
1.690000	-572.570791
1.700000	-524.314919
1.710000	-468.815963
1.720000	-412.282916
1.730000	-355.787317
1.740000	-296.981692
1.750000	-239.180934
1.760000	-182.745602
1.770000	-126.643846
1.780000	-62.896754
1.790000	8.799305
1.800000	80.189197
1.810000	125.454962
1.820000	125.888888
1.830000	78.414562
1.840000	5.586786
1.850000	-73.707972
1.860000	-154.492112
1.870000	-236.582136
1.880000	-325.993032
1.890000	-412.817433
1.900000	-494.251525
1.910000	-554.755677
1.920000	-589.276608
1.930000	-598.781435
1.940000	-591.057925
1.950000	-579.560108
1.960000	-567.548444
1.970000	-554.732739
1.980000	-536.764700
1.990000	-510.980048
2.000000	-474.049015
2.010000	-427.978397
2.020000	-375.738854
2.030000	-320.379662
2.040000	-263.828132
2.050000	-209.186495
2.060000	-157.313406
2.070000	-105.385187
2.080000	-50.199426
2.090000	6.668065
2.100000	65.852549
2.110000	126.315496
2.120000	173.466265
2.130000	181.865615
2.140000	135.371523
2.150000	45.758601
2.160000	-59.747740
2.170000	-165.781092
2.180000	-273.311796
2.190000	-383.387400
2.200000	-492.596490
2.210000	-602.072222
2.220000	-706.930499
2.230000	-792.462375
2.240000	-846.670741
2.250000	-872.625830
2.260000	-890.523066
2.270000	-908.153384
2.280000	-927.089598
2.290000	-943.731126
2.300000	-954.386717
2.310000	-957.044084
2.320000	-947.407931
2.330000	-927.103422
2.340000	-903.842398
2.350000	-876.534864
2.360000	-842.000474
2.370000	-795.023130
2.380000	-736.905262
2.390000	-671.246234
2.400000	-598.195487
2.410000	-522.209125
2.420000	-441.529645
2.430000	-367.602315
2.440000	-321.283387
2.450000	-322.051823
2.460000	-362.356020
2.470000	-419.185029
2.480000	-478.178259
2.490000	-545.099044
2.500000	-625.057261
2.510000	-716.386019
2.520000	-804.959964
2.530000	-877.065053
2.540000	-927.944536
2.550000	-956.143422
2.560000	-971.683891
2.570000	-975.252399
2.580000	-970.153002
2.590000	-954.068145
2.600000	-929.356803
2.610000	-900.277253
2.620000	-866.602723
2.630000	-824.864846
2.640000	-773.574415
2.650000	-716.520215
2.660000	-658.936293
2.670000	-598.540755
2.680000	-532.348315
2.690000	-460.956135
2.700000	-384.811177
2.710000	-305.425276
2.720000	-224.324496
2.730000	-147.957933
2.740000	-83.890449
2.750000	-51.906631
2.760000	-66.824815
2.770000	-124.518253
2.780000	-197.409302
2.790000	-262.857540
2.800000	-323.443402
2.810000	-389.264050
2.820000	-467.181429
2.830000	-548.674021
2.840000	-626.969537
2.850000	-695.128368
2.860000	-742.458398
2.870000	-767.318189
2.880000	-778.352342
2.890000	-788.228768
2.900000	-797.589170
2.910000	-800.162479
2.920000	-793.879186
2.930000	-778.809907
2.940000	-751.867889
2.950000	-712.504514
2.960000	-664.575075
2.970000	-613.241938
2.980000	-560.646022
2.990000	-504.004061
3.000000	-441.758053
3.010000	-376.147157
3.020000	-304.894377
3.030000	-226.996597
3.040000	-141.065304
3.050000	-55.574937
3.060000	10.700859
3.070000	40.817648
3.080000	25.788636
3.090000	-20.760716
3.100000	-81.479220
3.110000	-146.057095
3.120000	-212.802232
3.130000	-283.727948
3.140000	-358.816772
3.150000	-433.750235
3.160000	-495.169202
3.170000	-526.124853
3.180000	-525.593696
3.190000	-504.560241
3.200000	-478.390809
3.210000	-452.327868
3.220000	-425.864965
3.230000	-397.785829
3.240000	-365.694281
3.250000	-327.268508
3.260000	-281.217053
3.270000	-230.452804
3.280000	-178.430822
3.290000	-120.971744
3.300000	-53.331424
3.310000	24.140840
3.320000	105.398404
3.330000	186.906967
3.340000	271.125233
3.350000	360.988842
3.360000	450.810046
3.370000	531.042349
3.380000	584.122295
3.390000	601.437117
3.400000	584.780356
3.410000	547.514775
3.420000	504.761574
3.430000	456.202229
3.440000	401.729447
3.450000	335.527282
3.460000	264.385753
3.470000	196.844815
3.480000	142.031876
3.490000	103.803267
3.500000	82.323782
3.510000	75.077469
3.520000	77.600643
3.530000	84.673757
3.540000	93.876542
3.550000	106.939985
3.560000	124.140842
3.570000	145.866099
3.580000	174.738051
3.590000	208.439268
3.600000	245.331600
3.610000	283.339562
3.620000	322.927634
3.630000	367.243248
3.640000	413.838170
3.650000	459.140897
3.660000	504.760490
3.670000	558.386642
3.680000	626.678546
3.690000	706.270586
3.700000	782.899567
3.710000	834.800648
3.720000	842.794899
3.730000	809.725555
3.740000	740.363699
3.750000	659.707998
3.760000	577.225620
3.770000	499.685941
3.780000	424.732514
3.790000	351.672280
3.800000	282.918887
3.810000	218.322977
3.820000	162.790992
3.830000	123.652620
3.840000	101.651076
3.850000	80.608971
3.860000	58.557141
3.870000	37.249613
3.880000	33.846695
3.890000	48.518540
3.900000	77.133157
3.910000	109.446512
3.920000	141.112089
3.930000	173.399955
3.940000	205.763183
3.950000	239.034780
3.960000	276.766438
3.970000	321.344868
3.980000	379.126161
3.990000	452.991410
4.000000	537.810308
4.010000	626.980767
4.020000	704.816789
4.030000	760.664985
4.040000	783.503715
4.050000	765.038564
4.060000	713.585208
4.070000	644.447354
4.080000	577.361963
4.090000	515.828361
4.100000	456.470373
4.110000	394.890823
4.120000	330.273262
4.130000	273.002411
4.140000	230.085615
4.150000	205.792263
4.160000	199.236636
4.170000	203.919898
4.180000	213.073824
4.190000	220.068526
4.200000	226.621588
4.210000	240.922948
4.220000	264.506121
4.230000	294.788148
4.240000	333.758996
4.250000	378.663127
4.260000	426.367340
4.270000	471.889893
4.280000	519.023673
4.290000	575.150760
4.300000	634.668937
4.310000	689.763825
4.320000	734.678470
4.330000	783.456899
4.340000	843.362005
4.350000	913.821413
4.360000	987.052355
4.370000	1057.886713
4.380000	1105.727583
4.390000	1104.631559
4.400000	1057.175678
4.410000	986.795190
4.420000	926.010511
4.430000	879.243715
4.440000	843.186456
4.450000	807.702769
4.460000	767.404990
4.470000	727.888462
4.480000	694.987576
4.490000	677.111540
4.500000	673.575744
4.510000	675.676727
4.520000	673.525024
4.530000	670.643353
4.540000	674.850936
4.550000	688.961286
4.560000	707.853664
4.570000	731.324884
4.580000	758.219480
4.590000	786.719238
4.600000	815.285509
4.610000	842.814430
4.620000	869.387966
4.630000	895.611083
4.640000	922.190910
4.650000	950.777376
4.660000	978.013992
4.670000	1005.324186
4.680000	1034.204825
4.690000	1067.910191
4.700000	1104.749926
4.710000	1129.159414
4.720000	1117.307113
4.730000	1056.808328
4.740000	965.983674
4.750000	875.526379
4.760000	800.987241
4.770000	731.874933
4.780000	658.027169
4.790000	581.626274
4.800000	512.791199
4.810000	455.396183
4.820000	409.915020
4.830000	373.526247
4.840000	346.416380
4.850000	324.681089
4.860000	303.618298
4.870000	280.210038
4.880000	258.542606
4.890000	247.120728
4.900000	251.160881
4.910000	263.701025
4.920000	277.147200
4.930000	292.006741
4.940000	311.176637
4.950000	334.340236
4.960000	357.900385
4.970000	385.062451
4.980000	418.994112
4.990000	458.476075
5.000000	500.787212
5.010000	542.257296
5.020000	573.601799
5.030000	573.375388
5.040000	527.807766
5.050000	443.920914
5.060000	346.098433
5.070000	256.831609
5.080000	181.713070
5.090000	114.413289
5.100000	41.344849
5.110000	-41.274345
5.120000	-121.944301
5.130000	-178.896667
5.140000	-205.905687
5.150000	-218.875976
5.160000	-238.175523
5.170000	-267.438835
5.180000	-298.375436
5.190000	-320.625490
5.200000	-335.570391
5.210000	-343.438420
5.220000	-341.052079
5.230000	-326.551030
5.240000	-297.160625
5.250000	-254.304512
5.260000	-197.560079
5.270000	-128.024784
5.280000	-52.604734
5.290000	21.959521
5.300000	91.729129
5.310000	153.650448
5.320000	208.444253
5.330000	247.018687
5.340000	249.166477
5.350000	202.445917
5.360000	116.319891
5.370000	25.647290
5.380000	-49.195386
5.390000	-111.511929
5.400000	-173.697824
5.410000	-239.609859
5.420000	-305.809024
5.430000	-368.000875
5.440000	-415.531495
5.450000	-443.035120
5.460000	-457.917714
5.470000	-473.714832
5.480000	-495.576157
5.490000	-511.308790
5.500000	-516.217024
5.510000	-510.544764
5.520000	-499.165670
5.530000	-484.402072
5.540000	-468.743055
5.550000	-452.882668
5.560000	-432.936017
5.570000	-403.320018
5.580000	-364.105856
5.590000	-320.733386
5.600000	-273.556256
5.610000	-226.116631
5.620000	-174.948445
5.630000	-132.504554
5.640000	-117.652458
5.650000	-147.515140
5.660000	-212.243090
5.670000	-285.775148
5.680000	-352.155339
5.690000	-414.715236
5.700000	-477.028600
5.710000	-541.278425
5.720000	-603.846085
5.730000	-659.798063
5.740000	-699.610923
5.750000	-722.301010
5.760000	-734.356025
5.770000	-746.107476
5.780000	-758.033575
5.790000	-762.517764
5.800000	-759.357415
5.810000	-745.880398
5.820000	-725.991643
5.830000	-698.187024
5.840000	-671.948080
5.850000	-646.423823
5.860000	-617.854926
5.870000	-578.273968
5.880000	-532.755667
5.890000	-483.407202
5.900000	-434.620419
5.910000	-389.494447
5.920000	-350.774918
5.930000	-336.581122
5.940000	-364.217534
5.950000	-437.253577
5.960000	-527.529655
5.970000	-610.224997
5.980000	-680.185395
5.990000	-746.190762
6.000000	-811.448370
6.010000	-875.435286
6.020000	-933.321645
6.030000	-979.967542
6.040000	-1007.475712
6.050000	-1019.152042
6.060000	-1023.933154
6.070000	-1028.952597
6.080000	-1035.996674
6.090000	-1039.018820
6.100000	-1031.679649
6.110000	-1009.710728
6.120000	-980.681532
6.130000	-953.024459
6.140000	-929.954926
6.150000	-903.593269
6.160000	-871.194348
6.170000	-831.450988
6.180000	-784.054500
6.190000	-733.606539
6.200000	-679.852009
6.210000	-626.055466
6.220000	-578.608158
6.230000	-560.165453
6.240000	-584.288719
6.250000	-642.163036
6.260000	-707.871020
6.270000	-766.472471
6.280000	-822.120451
6.290000	-880.400175
6.300000	-941.636077
6.310000	-997.250378
6.320000	-1039.767980
6.330000	-1064.721717
6.340000	-1077.873807
6.350000	-1083.801910
6.360000	-1088.261250
6.370000	-1096.826257
6.380000	-1108.240843
6.390000	-1114.108154
6.400000	-1102.487445
6.410000	-1073.700047
6.420000	-1038.705817
6.430000	-1007.899162
6.440000	-984.847099
6.450000	-952.984191
6.460000	-906.291429
6.470000	-853.048776
6.480000	-800.673200
6.490000	-752.374471
6.500000	-700.631013
6.510000	-646.328286
6.520000	-597.880708
6.530000	-569.234669
6.540000	-582.088567
6.550000	-627.660368
6.560000	-686.536417
6.570000	-738.017884
6.580000	-785.652358
6.590000	-838.658619
6.600000	-897.344276
6.610000	-949.197399
6.620000	-980.298381
6.630000	-996.054775
6.640000	-1005.527484
6.650000	-1010.489880
6.660000	-1002.325238
6.670000	-979.541176
6.680000	-946.401518
6.690000	-912.201763
6.700000	-878.050201
6.710000	-850.471528
6.720000	-818.578098
6.730000	-776.347759
6.740000	-714.021563
6.750000	-641.536642
6.760000	-570.393927
6.770000	-505.966010
6.780000	-453.021326
6.790000	-405.622038
6.800000	-363.252384
6.810000	-326.535997
6.820000	-309.440926
6.830000	-323.028832
6.840000	-358.160202
6.850000	-394.075328
6.860000	-420.493189
6.870000	-445.088757
6.880000	-482.094488
6.890000	-530.643697
6.900000	-580.251696
6.910000	-615.433238
6.920000	-632.020997
6.930000	-633.156529
6.940000	-621.702539
6.950000	-602.129903
6.960000	-574.951533
6.970000	-543.689186
6.980000	-506.429226
6.990000	-465.168815
7.000000	-423.821095
7.010000	-383.549111
7.020000	-342.445387
7.030000	-297.165618
7.040000	-253.333766
7.050000	-208.331571
7.060000	-162.133979
7.070000	-105.041623
7.080000	-40.540367
7.090000	33.026532
7.100000	105.786370
7.110000	167.191669
7.120000	201.866057
7.130000	202.813413
7.140000	183.101818
7.150000	155.536108
7.160000	129.096121
7.170000	92.639955
7.180000	46.224973
7.190000	-5.472349
7.200000	-48.849796
7.210000	-76.495756
7.220000	-84.494228
7.230000	-79.440727
7.240000	-69.033679
7.250000	-61.946327
7.260000	-56.435100
7.270000	-51.009163
7.280000	-44.727201
7.290000	-35.958571
7.300000	-23.240855
7.310000	-3.791404
7.320000	18.674633
7.330000	44.501273
7.340000	70.696024
7.350000	99.256765
7.360000	129.493180
7.370000	164.473099
7.380000	206.740122
7.390000	253.794176
7.400000	304.777540
7.410000	351.548583
7.420000	383.595819
7.430000	386.747672
7.440000	363.916451
7.450000	334.448021
7.460000	309.337630
7.470000	281.556372
7.480000	240.874880
7.490000	195.173342
7.500000	154.210185
7.510000	121.901176
7.520000	107.354010
7.530000	116.749245
7.540000	151.279757
7.550000	197.353003
7.560000	254.705756
7.570000	322.085029
7.580000	389.572951
7.590000	449.288318
7.600000	505.941069
7.610000	570.977117
7.620000	640.401120
7.630000	711.471033
7.640000	780.661353
7.650000	851.788101
7.660000	921.371856
7.670000	990.923162
7.680000	1061.887107
7.690000	1128.510684
7.700000	1189.554281
7.710000	1242.234113
7.720000	1277.010331
7.730000	1287.106506
7.740000	1274.632762
7.750000	1261.174957
7.760000	1259.373777
7.770000	1266.010244
7.780000	1276.254665
7.790000	1280.310080
7.800000	1281.985000
7.810000	1290.771484
7.820000	1319.872022
7.830000	1368.006802
7.840000	1421.539317
7.850000	1472.739735
7.860000	1524.718280
7.870000	1578.616318
7.880000	1635.045333
7.890000	1698.654011
7.900000	1770.513047
7.910000	1845.492284
7.920000	1919.802500
7.930000	2002.183461
7.940000	2091.216302
7.950000	2178.341018
7.960000	2252.442813
7.970000	2323.042031
7.980000	2395.812577
7.990000	2468.207975
8.000000	2537.335912
8.010000	2592.841606
8.020000	2624.013430
8.030000	2622.303306
8.040000	2599.903655
8.050000	2574.603052
8.060000	2554.256188
8.070000	2534.692928
8.080000	2509.425730
8.090000	2478.624665
8.100000	2450.106702
8.110000	2432.382238
8.120000	2432.608042
8.130000	2444.594043
8.140000	2460.596128
8.150000	2473.966649
8.160000	2488.771522
8.170000	2510.501129
8.180000	2538.755427
8.190000	2574.530847
8.200000	2616.557877
8.210000	2665.724608
8.220000	2714.495306
8.230000	2760.089528
8.240000	2803.601443
8.250000	2851.627577
8.260000	2908.860296
8.270000	2968.959853
8.280000	3026.613061
8.290000	3080.126375
8.300000	3122.843026
8.310000	3137.755139
8.320000	3109.902442
8.330000	3052.618579
8.340000	2990.482827
8.350000	2936.941287
8.360000	2886.500785
8.370000	2830.076781
8.380000	2770.707731
8.390000	2716.715504
8.400000	2673.729004
8.410000	2645.838043
8.420000	2632.224480
8.430000	2625.095396
8.440000	2618.545382
8.450000	2608.176722
8.460000	2601.384746
8.470000	2601.733151
8.480000	2610.369305
8.490000	2624.095670
8.500000	2643.515167
8.510000	2668.606829
8.520000	2701.817637
8.530000	2743.260866
8.540000	2788.924170
8.550000	2840.077565
8.560000	2894.167762
8.570000	2953.721833
8.580000	3010.193932
8.590000	3042.811531
8.600000	3030.363910
8.610000	2974.441516
8.620000	2897.066967
8.630000	2817.874516
8.640000	2733.849988
8.650000	2632.088429
8.660000	2512.475444
8.670000	2381.460215
8.680000	2253.261276
8.690000	2143.306872
8.700000	2055.486127
8.710000	1985.601176
8.720000	1922.494186
8.730000	1860.712596
8.740000	1800.317947
8.750000	1736.610593
8.760000	1669.954353
8.770000	1600.639533
8.780000	1531.060079
8.790000	1469.814777
8.800000	1413.594738
8.810000	1365.802460
8.820000	1321.566367
8.830000	1291.290810
8.840000	1277.641126
8.850000	1279.224731
8.860000	1291.162013
8.870000	1290.898129
8.880000	1260.482544
8.890000	1186.703839
8.900000	1084.665765
8.910000	973.638197
8.920000	861.600793
8.930000	745.323519
8.940000	618.976029
8.950000	484.476399
8.960000	347.473374
8.970000	222.096684
8.980000	122.413575
8.990000	48.453686
9.000000	-9.565660
9.010000	-66.429961
9.020000	-117.720148
9.030000	-158.541392
9.040000	-185.107863
9.050000	-201.572566
9.060000	-211.058443
9.070000	-208.815565
9.080000	-195.257741
9.090000	-173.301057
9.100000	-149.035794
9.110000	-124.680369
9.120000	-98.040598
9.130000	-68.637676
9.140000	-33.278979
9.150000	7.485962
9.160000	50.231552
9.170000	71.644040
9.180000	50.168231
9.190000	-17.728142
9.200000	-105.393026
9.210000	-193.702920
9.220000	-290.945904
9.230000	-406.598374
9.240000	-534.708228
9.250000	-658.717596
9.260000	-771.082614
9.270000	-862.085888
9.280000	-926.391808
9.290000	-966.065007
9.300000	-993.320437
9.310000	-1013.283928
9.320000	-1023.822781
9.330000	-1024.435351
9.340000	-1016.927181
9.350000	-1003.183739
9.360000	-980.951311
9.370000	-948.866684
9.380000	-908.249260
9.390000	-862.155182
9.400000	-808.802365
9.410000	-748.050959
9.420000	-680.628269
9.430000	-610.560526
9.440000	-538.049373
9.450000	-463.343562
9.460000	-387.079180
9.470000	-314.080036
9.480000	-263.758616
9.490000	-257.098008
9.500000	-297.334116
9.510000	-361.991121
9.520000	-429.191304
9.530000	-495.883605
9.540000	-568.690335
9.550000	-645.702208
9.560000	-723.803214
9.570000	-796.462867
9.580000	-856.199179
9.590000	-893.170340
9.600000	-907.242695
9.610000	-908.862009
9.620000	-908.575877
9.630000	-909.490201
9.640000	-910.522085
9.650000	-903.724969
9.660000	-887.445230
9.670000	-862.259733
9.680000	-829.999904
9.690000	-792.423254
9.700000	-749.512866
9.710000	-709.239405
9.720000	-669.964319
9.730000	-628.684213
9.740000	-578.705560
9.750000	-518.778072
9.760000	-451.091190
9.770000	-376.838309
9.780000	-303.129689
9.790000	-250.573067
9.800000	-244.151817
9.810000	-282.207091
9.820000	-341.421057
9.830000	-397.479134
9.840000	-450.398706
9.850000	-507.747650
9.860000	-571.002845
9.870000	-638.651989
9.880000	-703.903998
9.890000	-755.188857
9.900000	-784.127040
9.910000	-794.071877
9.920000	-798.693139
9.930000	-805.921312
9.940000	-816.890201
9.950000	-825.066768
9.960000	-827.080471
9.970000	-815.854003
9.980000	-796.623953
9.990000	-771.619796
10.000000	-738.475721
10.010000	-701.726200
10.020000	-658.629909
10.030000	-615.179737
10.040000	-567.079719
10.050000	-518.648216
10.060000	-471.179902
10.070000	-422.433050
10.080000	-379.298625
10.090000	-366.260380
10.100000	-401.728895
10.110000	-475.671864
10.120000	-558.434923
10.130000	-635.455159
10.140000	-712.862184
10.150000	-799.243641
10.160000	-889.918805
10.170000	-976.354704
10.180000	-1049.307323
10.190000	-1098.798284
10.200000	-1128.735859
10.210000	-1145.584768
10.220000	-1158.842606
10.230000	-1167.345841
10.240000	-1170.288188
10.250000	-1166.110008
10.260000	-1152.738158
10.270000	-1128.214251
10.280000	-1100.221659
10.290000	-1072.649068
10.300000	-1043.697809
10.310000	-1004.740666
10.320000	-953.534290
10.330000	-895.195864
10.340000	-834.714382
10.350000	-769.976093
10.360000	-696.566598
10.370000	-619.795369
10.380000	-561.811297
10.390000	-550.310000
10.400000	-588.335627
10.410000	-659.118095
10.420000	-744.872265
10.430000	-829.947689
10.440000	-896.084574
10.450000	-938.831913
10.460000	-966.014495
10.470000	-983.394888
10.480000	-978.579480
10.490000	-930.619807
10.500000	-858.941297
10.510000	-794.563007
10.520000	-742.585523
10.530000	-700.171822
10.540000	-660.239318
10.550000	-640.202960
10.560000	-628.168124
10.570000	-608.580024
10.580000	-580.827749
10.590000	-553.004562
10.600000	-530.838234
10.610000	-508.755872
10.620000	-482.209794
10.630000	-444.860965
10.640000	-399.966856
10.650000	-346.313362
10.660000	-289.435812
10.670000	-231.115905
10.680000	-179.616790
10.690000	-157.652790
10.700000	-188.160124
10.710000	-270.152812
10.720000	-372.650343
10.730000	-476.381353
10.740000	-577.546506
10.750000	-688.016802
10.760000	-805.100289
10.770000	-920.668686
10.780000	-1023.009338
10.790000	-1097.010082
10.800000	-1141.322104
10.810000	-1159.063387
10.820000	-1167.039155
10.830000	-1176.134170
10.840000	-1187.430059
10.850000	-1193.549529
10.860000	-1188.860590
10.870000	-1174.017335
10.880000	-1154.673712
10.890000	-1133.847094
10.900000	-1107.503655
10.910000	-1066.699877
10.920000	-1012.063376
10.930000	-946.262061
10.940000	-881.018730
10.950000	-820.842154
10.960000	-774.022482
10.970000	-743.779951
10.980000	-744.094358
10.990000	-789.090323
11.000000	-874.822381
11.010000	-978.722254
11.020000	-1068.229260
11.030000	-1136.130356
11.040000	-1185.705088
11.050000	-1228.601815
11.060000	-1263.185034
11.070000	-1297.139701
11.080000	-1329.682769
11.090000	-1357.043973
11.100000	-1371.878811
11.110000	-1374.343831
11.120000	-1374.811414
11.130000	-1370.984236
11.140000	-1355.104534
11.150000	-1312.982650
11.160000	-1252.835018
11.170000	-1188.706372
11.180000	-1128.591654
11.190000	-1065.431641
11.200000	-993.394676
11.210000	-915.223586
11.220000	-841.261806
11.230000	-779.385420
11.240000	-726.141244
11.250000	-679.594939
11.260000	-649.763772
11.270000	-662.558454
11.280000	-718.694183
11.290000	-796.838568
11.300000	-869.986233
11.310000	-933.223307
11.320000	-993.688727
11.330000	-1056.981206
11.340000	-1120.078310
11.350000	-1171.760733
11.360000	-1201.848255
11.370000	-1208.273408
11.380000	-1203.034384
11.390000	-1196.158233
11.400000	-1189.910093
11.410000	-1176.392707
11.420000	-1152.175622
11.430000	-1117.681965
11.440000	-1076.494001
11.450000	-1029.006608
11.460000	-975.857145
11.470000	-918.711462
11.480000	-860.267123
11.490000	-803.795166
11.500000	-751.050144
11.510000	-700.914786
11.520000	-651.875808
11.530000	-613.107411
11.540000	-608.117739
11.550000	-649.647271
11.560000	-725.334110
11.570000	-810.530007
11.580000	-888.615719
11.590000	-960.503978
11.600000	-1029.279600
11.610000	-1093.842645
11.620000	-1149.309155
11.630000	-1191.225097
11.640000	-1216.718860
11.650000	-1230.671172
11.660000	-1242.516585
11.670000	-1254.472780
11.680000	-1262.004286
11.690000	-1255.970090
11.700000	-1234.553610
11.710000	-1199.518552
11.720000	-1149.468710
11.730000	-1083.776710
11.740000	-1003.094698
11.750000	-911.083622
11.760000	-812.764688
11.770000	-712.094310
11.780000	-609.464685
11.790000	-511.829242
11.800000	-428.878177
11.810000	-380.631606
11.820000	-389.002342
11.830000	-460.764276
11.840000	-578.765754
11.850000	-711.896641
11.860000	-834.247886
11.870000	-928.423220
11.880000	-988.131079
11.890000	-1002.975476
11.900000	-963.720793
11.910000	-872.595599
11.920000	-751.734599
11.930000	-643.975032
11.940000	-573.064784
11.950000	-539.659541
11.960000	-524.374779
11.970000	-511.388366
11.980000	-497.420098
11.990000	-480.153724
12.000000	-452.485825
12.010000	-411.630832
12.020000	-362.940124
12.030000	-308.130511
12.040000	-239.066241
12.050000	-147.996450
12.060000	-44.605104
12.070000	61.439807
12.080000	164.168689
12.090000	262.859990
12.100000	343.542616
12.110000	378.211831
12.120000	355.265474
12.130000	286.933351
12.140000	206.016060
12.150000	133.594247
12.160000	68.343677
12.170000	6.554159
12.180000	-52.681772
12.190000	-97.477887
12.200000	-121.081417
12.210000	-119.878317
12.220000	-100.869647
12.230000	-74.647706
12.240000	-52.351472
12.250000	-33.744275
12.260000	-14.847774
12.270000	9.805494
12.280000	39.949428
12.290000	74.997307
12.300000	114.724218
12.310000	157.161259
12.320000	205.824672
12.330000	260.626245
12.340000	323.909741
12.350000	391.384612
12.360000	461.648008
12.370000	527.439152
12.380000	568.663616
12.390000	564.805448
12.400000	512.372549
12.410000	436.564099
12.420000	362.394841
12.430000	294.581176
12.440000	228.372284
12.450000	162.923775
12.460000	104.350605
12.470000	59.249764
12.480000	34.980052
12.490000	30.535446
12.500000	37.572315
12.510000	44.127792
12.520000	50.515198
12.530000	58.708568
12.540000	72.112848
12.550000	92.937195
12.560000	123.361852
12.570000	160.804474
12.580000	203.932987
12.590000	251.992331
12.600000	305.827808
12.610000	363.826354
12.620000	425.044344
12.630000	489.650266
12.640000	553.235433
12.650000	598.091728
12.660000	600.063173
12.670000	554.909195
12.680000	479.938348
12.690000	401.406425
12.700000	325.747873
12.710000	249.532284
12.720000	169.881571
12.730000	93.340274
12.740000	27.340884
12.750000	-17.853859
12.760000	-36.889589
12.770000	-36.757949
12.780000	-27.136561
12.790000	-15.999556
12.800000	-2.033294
12.810000	15.749595
12.820000	38.061130
12.830000	66.493335
12.840000	103.149388
12.850000	145.884765
12.860000	194.235209
12.870000	246.933861
12.880000	302.981894
12.890000	364.318076
12.900000	429.379599
12.910000	499.370780
12.920000	569.756011
12.930000	625.054808
12.940000	641.437786
12.950000	608.437404
12.960000	540.516808
12.970000	464.182082
12.980000	390.883712
12.990000	316.546911
13.000000	238.250132
13.010000	159.592887
13.020000	88.625565
13.030000	34.305023
13.040000	6.333599
13.050000	1.311944
13.060000	7.015044
13.070000	14.325266
13.080000	21.046914
13.090000	33.694138
13.100000	51.390328
13.110000	77.740711
13.120000	111.385711
13.130000	150.451690
13.140000	194.049831
13.150000	240.493390
13.160000	289.718197
13.170000	342.537500
13.180000	398.717230
13.190000	459.586320
13.200000	525.714799
13.210000	594.627599
13.220000	657.696492
13.230000	687.953059
13.240000	670.713337
13.250000	609.663909
13.260000	532.798729
13.270000	459.352667
13.280000	388.497828
13.290000	314.363224
13.300000	237.216272
13.310000	165.732865
13.320000	108.938499
13.330000	76.440422
13.340000	69.307090
13.350000	78.122497
13.360000	89.668714
13.370000	98.161960
13.380000	108.062271
13.390000	125.209171
13.400000	149.109221
13.410000	179.929141
13.420000	215.487492
13.430000	256.662109
13.440000	303.534996
13.450000	353.058052
13.460000	405.931187
13.470000	462.123868
13.480000	522.000490
13.490000	586.195935
13.500000	651.732189
13.510000	717.946821
13.520000	774.777334
13.530000	799.000957
13.540000	775.517645
13.550000	711.455794
13.560000	634.654608
13.570000	558.878522
13.580000	482.422408
13.590000	401.970256
13.600000	322.219083
13.610000	249.406523
13.620000	189.689267
13.630000	151.857180
13.640000	136.811704
13.650000	134.953007
13.660000	135.605288
13.670000	135.409789
13.680000	139.763871
13.690000	153.205248
13.700000	174.247031
13.710000	204.350015
13.720000	239.055229
13.730000	280.186753
13.740000	326.195629
13.750000	376.367331
13.760000	429.008299
13.770000	482.556642
13.780000	539.172975
13.790000	600.753748
13.800000	668.678154
13.810000	738.276229
13.820000	801.181901
13.830000	833.431315
13.840000	816.041493
13.850000	754.328689
13.860000	672.628917
13.870000	592.226646
13.880000	512.164251
13.890000	426.787400
13.900000	338.731410
13.910000	252.696239
13.920000	179.323991
13.930000	125.938417
13.940000	98.923128
13.950000	91.486896
13.960000	91.516816
13.970000	90.387471
13.980000	90.149023
13.990000	96.306746
14.000000	109.777852
14.010000	130.900331
14.020000	157.074525
14.030000	190.182148
14.040000	229.038710
14.050000	273.810285
14.060000	322.004879
14.070000	374.456847
14.080000	430.643280
14.090000	491.784159
14.100000	557.285998
14.110000	625.116815
14.120000	693.939913
14.130000	753.768325
14.140000	779.561750
14.150000	752.446019
14.160000	677.592189
14.170000	584.533159
14.180000	492.269537
14.190000	398.905373
14.200000	300.951605
14.210000	198.295916
14.220000	100.335468
14.230000	14.356290
14.240000	-51.603020
14.250000	-94.254182
14.260000	-118.221086
14.270000	-129.860642
14.280000	-135.162753
14.290000	-134.442840
14.300000	-126.759003
14.310000	-112.018785
14.320000	-90.681560
14.330000	-62.584524
14.340000	-28.264251
14.350000	12.192719
14.360000	57.825694
14.370000	108.313379
14.380000	162.922794
14.390000	221.443718
14.400000	283.360589
14.410000	347.580627
14.420000	416.816947
14.430000	488.711671
14.440000	560.948098
14.450000	611.128857
14.460000	616.753538
14.470000	569.927338
14.480000	488.972103
14.490000	401.759769
14.500000	315.809082
14.510000	227.569373
14.520000	134.656769
14.530000	43.076111
14.540000	-39.149319
14.550000	-103.408267
14.560000	-141.282080
14.570000	-157.588557
14.580000	-162.422302
14.590000	-166.430075
14.600000	-167.186410
14.610000	-161.930538
14.620000	-149.949416
14.630000	-130.424058
14.640000	-105.046070
14.650000	-70.564160
14.660000	-29.485438
14.670000	17.640814
14.680000	67.741225
14.690000	120.526327
14.700000	175.974780
14.710000	235.087399
14.720000	297.209802
14.730000	362.991327
14.740000	431.780452
14.750000	502.566728
14.760000	571.014350
14.770000	616.770435
14.780000	616.244905
14.790000	564.363794
14.800000	480.882359
14.810000	395.656839
14.820000	316.798601
14.830000	237.580873
14.840000	153.726545
14.850000	69.867578
14.860000	-2.989909
14.870000	-56.849328
14.880000	-87.378549
14.890000	-99.253206
14.900000	-101.441317
14.910000	-101.983648
14.920000	-100.476778
14.930000	-92.365346
14.940000	-75.849238
14.950000	-50.413444
14.960000	-17.556870
14.970000	21.542929
14.980000	64.736310
14.990000	112.509921
15.000000	164.029137
15.010000	222.156907
15.020000	284.644323
15.030000	352.148166
15.040000	420.916920
15.050000	492.824284
15.060000	565.848114
15.070000	640.509905
15.080000	705.415646
15.090000	732.485307
15.100000	707.356341
15.110000	635.851508
15.120000	552.043182
15.130000	472.170481
15.140000	396.354031
15.150000	316.468271
15.160000	232.020496
15.170000	150.121446
15.180000	83.703968
15.190000	41.764672
15.200000	23.360847
15.210000	18.049021
15.220000	15.685612
15.230000	15.024715
15.240000	19.022001
15.250000	31.335598
15.260000	50.677910
15.270000	75.980030
15.280000	107.336472
15.290000	144.623162
15.300000	187.660692
15.310000	234.594010
15.320000	283.316379
15.330000	332.900094
15.340000	384.977600
15.350000	441.873084
15.360000	506.973247
15.370000	577.493796
15.380000	650.299097
15.390000	717.432261
15.400000	758.254263
15.410000	751.365938
15.420000	692.921421
15.430000	604.031752
15.440000	509.929964
15.450000	417.309843
15.460000	321.236226
15.470000	223.602810
15.480000	125.870545
15.490000	34.572074
15.500000	-42.830428
15.510000	-94.785488
15.520000	-120.900321
15.530000	-131.845253
15.540000	-137.974709
15.550000	-139.549537
15.560000	-135.384244
15.570000	-125.596732
15.580000	-110.801350
15.590000	-87.973681
15.600000	-57.567966
15.610000	-18.352830
15.620000	27.649444
15.630000	78.928851
15.640000	134.861840
15.650000	192.529906
15.660000	254.748788
15.670000	319.108536
15.680000	387.305400
15.690000	456.332425
15.700000	526.863419
15.710000	589.854036
15.720000	619.700151
15.730000	595.378872
15.740000	521.932222
15.750000	427.624345
15.760000	333.467667
15.770000	239.134260
15.780000	140.649245
15.790000	37.977574
15.800000	-62.830125
15.810000	-153.851878
15.820000	-223.978890
15.830000	-267.039948
15.840000	-287.836424
15.850000	-297.925445
15.860000	-305.697703
15.870000	-308.794095
15.880000	-305.908120
15.890000	-294.672980
15.900000	-273.801547
15.910000	-243.235514
15.920000	-204.379493
15.930000	-159.815340
15.940000	-110.300044
15.950000	-55.740671
15.960000	0.755889
15.970000	61.333469
15.980000	126.124459
15.990000	195.058327
16.000000	268.144303
16.010000	342.091619
16.020000	420.500347
16.030000	495.410210
16.040000	547.809528
16.050000	548.350338
16.060000	489.829224
16.070000	396.693522
16.080000	298.846456
16.090000	204.960704
16.100000	105.796556
16.110000	-1.105005
16.120000	-108.244420
16.130000	-204.847062
16.140000	-282.644539
16.150000	-332.940450
16.160000	-357.760191
16.170000	-366.072571
16.180000	-370.572651
16.190000	-376.872052
16.200000	-378.706211
16.210000	-373.702844
16.220000	-358.858894
16.230000	-337.238053
16.240000	-307.353729
16.250000	-269.132017
16.260000	-224.542610
16.270000	-170.701308
16.280000	-108.430551
16.290000	-37.289560
16.300000	35.972443
16.310000	110.114447
16.320000	182.682352
16.330000	256.175420
16.340000	332.366741
16.350000	411.207644
16.360000	479.658150
16.370000	508.504590
16.380000	480.959270
16.390000	407.518495
16.400000	317.955124
16.410000	229.138513
16.420000	136.867758
16.430000	39.740628
16.440000	-60.236076
16.450000	-155.000029
16.460000	-234.360376
16.470000	-289.437508
16.480000	-317.194185
16.490000	-327.604425
16.500000	-331.056402
16.510000	-334.121700
16.520000	-335.257407
16.530000	-329.657987
16.540000	-315.160539
16.550000	-291.227166
16.560000	-258.428704
16.570000	-218.829324
16.580000	-172.386850
16.590000	-121.133166
16.600000	-66.038285
16.610000	-10.139108
16.620000	47.290642
16.630000	108.495597
16.640000	175.923053
16.650000	249.091635
16.660000	324.850624
16.670000	401.326789
16.680000	470.396416
16.690000	509.490767
16.700000	495.241617
16.710000	426.350072
16.720000	331.804488
16.730000	237.501801
16.740000	146.605599
16.750000	51.591284
16.760000	-48.274435
16.770000	-145.663799
16.780000	-231.850908
16.790000	-296.615295
16.800000	-333.805983
16.810000	-349.635077
16.820000	-357.481976
16.830000	-364.004532
16.840000	-366.500627
16.850000	-361.072632
16.860000	-347.899297
16.870000	-327.510747
16.880000	-299.999372
16.890000	-264.649469
16.900000	-221.136902
16.910000	-168.489676
16.920000	-111.995103
16.930000	-54.025570
16.940000	2.775378
16.950000	64.090618
16.960000	132.499670
16.970000	202.480009
16.980000	271.193244
16.990000	324.800884
17.000000	340.490317
17.010000	300.095786
17.020000	212.823616
17.030000	111.081906
17.040000	11.073009
17.050000	-89.689590
17.060000	-197.060024
17.070000	-306.806784
17.080000	-412.560809
17.090000	-505.290512
17.100000	-574.431450
17.110000	-614.830050
17.120000	-636.384596
17.130000	-652.420377
17.140000	-669.360367
17.150000	-684.026119
17.160000	-688.698988
17.170000	-680.019348
17.180000	-655.081226
17.190000	-621.082888
17.200000	-577.484954
17.210000	-521.850803
17.220000	-450.929541
17.230000	-368.681792
17.240000	-282.092534
17.250000	-191.538230
17.260000	-95.293518
17.270000	9.230448
17.280000	118.444447
17.290000	228.955421
17.300000	325.104319
17.310000	374.255871
17.320000	357.757872
17.330000	287.929832
17.340000	198.424965
17.350000	108.853334
17.360000	13.978425
17.370000	-88.260001
17.380000	-196.504461
17.390000	-301.397267
17.400000	-391.026404
17.410000	-455.920813
17.420000	-486.594719
17.430000	-494.882827
17.440000	-493.879900
17.450000	-494.218311
17.460000	-492.506953
17.470000	-481.590664
17.480000	-460.197524
17.490000	-425.673395
17.500000	-384.627856
17.510000	-335.782252
17.520000	-282.117820
17.530000	-222.594801
17.540000	-158.328573
17.550000	-90.121492
17.560000	-18.253024
17.570000	56.969810
17.580000	131.095748
17.590000	206.698214
17.600000	275.699612
17.610000	316.005668
17.620000	303.247978
17.630000	235.993397
17.640000	144.834786
17.650000	50.905486
17.660000	-43.680442
17.670000	-143.250052
17.680000	-247.566544
17.690000	-353.447716
17.700000	-448.143388
17.710000	-517.692546
17.720000	-549.775367
17.730000	-555.385500
17.740000	-548.800586
17.750000	-539.449483
17.760000	-526.849719
17.770000	-509.562095
17.780000	-485.615428
17.790000	-458.073351
17.800000	-424.751651
17.810000	-385.642284
17.820000	-338.600473
17.830000	-285.607786
17.840000	-230.506408
17.850000	-172.612958
17.860000	-110.462389
17.870000	-42.002135
17.880000	29.514679
17.890000	96.878686
17.900000	134.388396
17.910000	116.707857
17.920000	44.280172
17.930000	-57.112880
17.940000	-164.221268
17.950000	-272.370993
17.960000	-384.797547
17.970000	-498.665641
17.980000	-608.419652
17.990000	-699.990289
18.000000	-762.437153
18.010000	-791.052272
18.020000	-799.558904
18.030000	-801.166541
18.040000	-805.390941
18.050000	-808.966200
18.060000	-804.264884
18.070000	-786.494247
18.080000	-756.541745
18.090000	-718.418232
18.100000	-673.866440
18.110000	-622.390164
18.120000	-563.913079
18.130000	-499.419156
18.140000	-432.353980
18.150000	-363.495005
18.160000	-292.178455
18.170000	-219.964505
18.180000	-151.064429
18.190000	-109.542757
18.200000	-119.337619
18.210000	-188.130595
18.220000	-292.579839
18.230000	-403.088827
18.240000	-512.604885
18.250000	-623.460410
18.260000	-738.351836
18.270000	-845.847420
18.280000	-938.497276
18.290000	-999.262297
18.300000	-1028.411106
18.310000	-1034.420546
18.320000	-1030.391764
18.330000	-1027.627945
18.340000	-1021.716635
18.350000	-1015.576139
18.360000	-999.728061
18.370000	-972.265668
18.380000	-930.791943
18.390000	-881.365479
18.400000	-825.229575
18.410000	-765.189804
18.420000	-701.379998
18.430000	-637.744625
18.440000	-568.891370
18.450000	-488.015384
18.460000	-392.132943
18.470000	-291.040838
18.480000	-196.432532
18.490000	-127.807083
18.500000	-109.130287
18.510000	-150.587920
18.520000	-237.812920
18.530000	-338.037073
18.540000	-438.937102
18.550000	-541.909174
18.560000	-649.115191
18.570000	-754.476979
18.580000	-844.323959
18.590000	-906.767738
18.600000	-937.939333
18.610000	-945.474525
18.620000	-945.963575
18.630000	-943.531186
18.640000	-937.023930
18.650000	-922.296734
18.660000	-900.148121
18.670000	-870.777375
18.680000	-834.990526
18.690000	-794.643919
18.700000	-753.220215
18.710000	-708.209948
18.720000	-656.163050
18.730000	-595.496619
18.740000	-530.503985
18.750000	-461.153145
18.760000	-388.228667
18.770000	-312.190050
18.780000	-237.344957
18.790000	-184.319243
18.800000	-178.521612
18.810000	-236.136754
18.820000	-335.307192
18.830000	-446.646756
18.840000	-554.510102
18.850000	-660.249450
18.860000	-766.763016
18.870000	-867.872720
18.880000	-954.386231
18.890000	-1012.194135
18.900000	-1039.421096
18.910000	-1046.259805
18.920000	-1045.841528
18.930000	-1042.344761
18.940000	-1032.952998
18.950000	-1016.811723
18.960000	-992.439055
18.970000	-958.321263
18.980000	-913.636025
18.990000	-864.558712
19.000000	-813.196848
19.010000	-757.158491
19.020000	-693.129485
19.030000	-622.478466
19.040000	-548.106647
19.050000	-468.827174
19.060000	-385.796513
19.070000	-304.226257
19.080000	-251.586385
19.090000	-252.322203
19.100000	-313.032040
19.110000	-405.359905
19.120000	-500.179633
19.130000	-588.489894
19.140000	-673.062864
19.150000	-756.656094
19.160000	-834.962557
19.170000	-897.507498
19.180000	-933.897555
19.190000	-946.762687
19.200000	-944.883727
19.210000	-940.060035
19.220000	-931.869783
19.230000	-919.054782
19.240000	-897.213139
19.250000	-865.090340
19.260000	-821.922906
19.270000	-769.163268
19.280000	-707.996102
19.290000	-641.605397
19.300000	-570.090744
19.310000	-494.412676
19.320000	-415.881998
19.330000	-335.246921
19.340000	-252.031258
19.350000	-164.438431
19.360000	-74.885838
19.370000	6.990301
19.380000	51.177504
19.390000	33.074933
19.400000	-41.032808
19.410000	-141.133264
19.420000	-239.607208
19.430000	-335.438227
19.440000	-429.877717
19.450000	-521.425026
19.460000	-603.155570
19.470000	-663.086348
19.480000	-696.474565
19.490000	-705.788234
19.500000	-706.850499
19.510000	-706.150903
19.520000	-703.560830
19.530000	-693.851624
19.540000	-673.627737
19.550000	-641.575750
19.560000	-598.049715
19.570000	-545.656021
19.580000	-489.160381
19.590000	-429.073489
19.600000	-366.955604
19.610000	-304.171551
19.620000	-237.752841
19.630000	-168.292759
19.640000	-92.886614
19.650000	-12.102429
19.660000	73.634970
19.670000	160.734726
19.680000	237.791166
19.690000	276.181222
19.700000	254.624714
19.710000	178.358286
19.720000	82.197793
19.730000	-7.829951
19.740000	-91.640994
19.750000	-177.046602
19.760000	-267.139670
19.770000	-351.231032
19.780000	-418.977712
19.790000	-461.423802
19.800000	-481.184845
19.810000	-489.309821
19.820000	-498.399099
19.830000	-511.170996
19.840000	-521.925297
19.850000	-525.367784
19.860000	-519.461033
19.870000	-502.565683
19.880000	-474.333087
19.890000	-435.766153
19.900000	-388.872842
19.910000	-331.954129
19.920000	-268.757989
19.930000	-199.796388
19.940000	-125.304954
19.950000	-42.960267
19.960000	44.138469
19.970000	132.213204
19.980000	217.254402
19.990000	275.339057
20.000000	280.037792
20.010000	225.195531
20.020000	136.584402
20.030000	43.738461
20.040000	-49.596436
20.050000	-150.404107
20.060000	-257.744279
20.070000	-363.515184
20.080000	-455.869423
20.090000	-525.954816
20.100000	-565.649638
20.110000	-580.417560
20.120000	-584.104741
20.130000	-587.188980
20.140000	-586.840612
20.150000	-577.937477
20.160000	-556.562550
20.170000	-524.015773
20.180000	-481.933594
20.190000	-434.749305
20.200000	-380.935190
20.210000	-321.469346
20.220000	-256.246134
20.230000	-187.841772
20.240000	-115.525710
20.250000	-38.858738
20.260000	41.548736
20.270000	126.819938
20.280000	213.970088
20.290000	297.183003
20.300000	352.367388
20.310000	351.896474
20.320000	287.177722
20.330000	182.060440
20.340000	67.703493
20.350000	-45.469884
20.360000	-165.792291
20.370000	-294.617113
20.380000	-426.237457
20.390000	-548.046867
20.400000	-648.987717
20.410000	-715.436441
20.420000	-752.087849
20.430000	-768.471542
20.440000	-778.832530
20.450000	-785.438022
20.460000	-785.527020
20.470000	-775.030532
20.480000	-750.853137
20.490000	-714.931809
20.500000	-670.477019
20.510000	-619.122340
20.520000	-561.056498
20.530000	-500.616471
20.540000	-433.236368
20.550000	-362.089336
20.560000	-283.353803
20.570000	-201.875413
20.580000	-116.409878
20.590000	-27.287137
20.600000	64.578495
20.610000	156.342601
20.620000	230.240027
20.630000	255.651885
20.640000	211.977969
20.650000	114.442498
20.660000	-4.185593
20.670000	-123.416266
20.680000	-246.362263
20.690000	-378.896855
20.700000	-517.459893
20.710000	-651.972368
20.720000	-771.834879
20.730000	-861.646099
20.740000	-917.518846
20.750000	-943.618580
20.760000	-951.164760
20.770000	-943.177048
20.780000	-916.066960
20.790000	-868.014063
20.800000	-795.570967
20.810000	-699.802323
20.820000	-589.367257
20.830000	-467.847296
20.840000	-337.095355
20.850000	-199.161927
20.860000	-60.771295
20.870000	76.937890
20.880000	217.298266
20.890000	361.432304
20.900000	504.419342
20.910000	645.005681
20.920000	779.269425
20.930000	910.669773
20.940000	1044.194917
20.950000	1178.053885
20.960000	1315.874693
20.970000	1436.777503
20.980000	1518.290993
20.990000	1539.914834
21.000000	1515.209873
21.010000	1470.162706
21.020000	1413.491778
21.030000	1338.445910
21.040000	1240.190794
21.050000	1125.506876
21.060000	1010.328153
21.070000	909.980038
21.080000	840.548793
21.090000	804.497629
21.100000	790.480666
21.110000	783.421441
21.120000	778.524546
21.130000	779.452885
21.140000	786.978849
21.150000	800.900638
21.160000	824.529067
21.170000	859.430478
21.180000	906.164003
21.190000	961.036727
21.200000	1024.231602
21.210000	1092.389186
21.220000	1162.723968
21.230000	1236.175646
21.240000	1312.972054
21.250000	1395.726897
21.260000	1478.956693
21.270000	1561.716624
21.280000	1639.691959
21.290000	1715.485762
21.300000	1789.515488
21.310000	1867.363862
21.320000	1947.080267
21.330000	2022.659925
21.340000	2066.013965
21.350000	2052.060952
21.360000	1980.446066
21.370000	1878.635989
21.380000	1774.310107
21.390000	1672.580816
21.400000	1567.910406
21.410000	1455.627255
21.420000	1339.299617
21.430000	1227.119714
21.440000	1132.135848
21.450000	1063.034228
21.460000	1021.386923
21.470000	993.675352
21.480000	971.085976
21.490000	950.433984
21.500000	936.241901
21.510000	931.624766
21.520000	937.829018
21.530000	956.586843
21.540000	986.511156
21.550000	1025.651251
21.560000	1071.629621
21.570000	1121.485166
21.580000	1175.528452
21.590000	1234.425035
21.600000	1300.537180
21.610000	1371.791543
21.620000	1447.321622
21.630000	1527.266779
21.640000	1609.873724
21.650000	1692.512685
21.660000	1772.198132
21.670000	1852.550215
21.680000	1936.628002
21.690000	2024.352972
21.700000	2105.136348
21.710000	2153.555816
21.720000	2145.422382
21.730000	2081.601904
21.740000	1989.890258
21.750000	1896.083810
21.760000	1806.746707
21.770000	1715.304436
21.780000	1619.055331
21.790000	1521.650765
21.800000	1433.490786
21.810000	1365.440032
21.820000	1321.014408
21.830000	1295.314549
21.840000	1278.298940
21.850000	1264.309469
21.860000	1253.374108
21.870000	1249.089187
21.880000	1255.224722
21.890000	1272.970084
21.900000	1300.174385
21.910000	1337.299663
21.920000	1380.553810
21.930000	1431.752690
21.940000	1488.362591
21.950000	1550.988889
21.960000	1617.605267
21.970000	1687.001684
21.980000	1758.958237
21.990000	1833.121564
22.000000	1908.082292
22.010000	1983.016894
22.020000	2059.319457
22.030000	2141.026333
22.040000	2228.987875
22.050000	2321.802732
22.060000	2408.402682
22.070000	2463.646531
22.080000	2469.275542
22.090000	2423.307269
22.100000	2348.321167
22.110000	2260.388488
22.120000	2155.416139
22.130000	2021.552819
22.140000	1867.337878
22.150000	1704.830578
22.160000	1545.026774
22.170000	1389.853144
22.180000	1258.532521
22.190000	1167.303144
22.200000	1107.404849
22.210000	1062.500510
22.220000	1025.069164
22.230000	1001.169200
22.240000	995.162426
22.250000	1007.259671
22.260000	1030.000703
22.270000	1057.453317
22.280000	1083.269707
22.290000	1107.763344
22.300000	1130.634654
22.310000	1159.191429
22.320000	1197.420505
22.330000	1247.711340
22.340000	1304.948138
22.350000	1367.335607
22.360000	1431.566354
22.370000	1500.069858
22.380000	1573.272778
22.390000	1649.558346
22.400000	1729.410955
22.410000	1807.790430
22.420000	1886.325661
22.430000	1955.081733
22.440000	1993.301045
22.450000	1975.449730
22.460000	1895.418992
22.470000	1782.670689
22.480000	1665.287791
22.490000	1552.259874
22.500000	1430.516018
22.510000	1289.943211
22.520000	1137.209026
22.530000	993.417546
22.540000	885.334914
22.550000	821.257790
22.560000	787.817234
22.570000	758.477103
22.580000	721.755425
22.590000	684.159634
22.600000	657.788730
22.610000	642.220139
22.620000	631.886207
22.630000	619.353089
22.640000	601.071188
22.650000	576.904844
22.660000	559.032006
22.670000	556.522666
22.680000	581.073891
22.690000	628.837554
22.700000	683.821424
22.710000	721.534006
22.720000	725.996481
22.730000	712.051817
22.740000	702.596252
22.750000	714.621896
22.760000	740.195263
22.770000	768.584533
22.780000	797.884636
22.790000	818.591621
22.800000	809.940934
22.810000	758.683062
22.820000	682.478360
22.830000	605.521198
22.840000	538.372938
22.850000	471.029953
22.860000	376.614107
22.870000	244.976763
22.880000	91.316164
22.890000	-48.629581
22.900000	-150.958028
22.910000	-217.250498
22.920000	-258.536925
22.930000	-293.505375
22.940000	-330.367478
22.950000	-361.330897
22.960000	-372.463269
22.970000	-357.794556
22.980000	-320.868957
22.990000	-287.938510
23.000000	-277.538869
23.010000	-277.952279
23.020000	-266.799898
23.030000	-216.238927
23.040000	-138.793836
23.050000	-45.811861
23.060000	58.942717
23.070000	188.704073
23.080000	358.391933
23.090000	554.515862
23.100000	750.845893
23.110000	930.057692
23.120000	1085.032644
23.130000	1193.929686
23.140000	1230.911519
23.150000	1186.214755
23.160000	1091.605872
23.170000	979.535597
23.180000	853.253054
23.190000	698.841456
23.200000	512.292074
23.210000	310.568663
23.220000	112.031124
23.230000	-54.981411
23.240000	-171.561309
23.250000	-237.556132
23.260000	-272.180959
23.270000	-299.786536
23.280000	-330.403744
23.290000	-365.971398
23.300000	-398.242786
23.310000	-419.135158
23.320000	-427.079043
23.330000	-425.960771
23.340000	-418.894256
23.350000	-404.088194
23.360000	-376.349608
23.370000	-337.217789
23.380000	-288.791041
23.390000	-233.333246
23.400000	-173.553297
23.410000	-112.102335
23.420000	-50.299875
23.430000	14.149671
23.440000	77.948495
23.450000	134.736054
23.460000	161.493047
23.470000	127.977014
23.480000	26.105356
23.490000	-119.352425
23.500000	-275.588410
23.510000	-432.406310
23.520000	-595.321860
23.530000	-764.108475
23.540000	-935.378197
23.550000	-1098.122126
23.560000	-1237.423727
23.570000	-1336.130397
23.580000	-1391.844710
23.590000	-1424.201598
23.600000	-1448.590595
23.610000	-1468.577693
23.620000	-1478.315459
23.630000	-1480.984204
23.640000	-1476.036483
23.650000	-1459.053920
23.660000	-1425.097340
23.670000	-1375.482830
23.680000	-1310.498130
23.690000	-1233.263009
23.700000	-1151.255104
23.710000	-1072.389321
23.720000	-995.666569
23.730000	-919.527104
23.740000	-838.748347
23.750000	-748.012352
23.760000	-640.842020
23.770000	-521.877224
23.780000	-407.985707
23.790000	-303.725387
23.800000	-221.502049
23.810000	-183.953415
23.820000	-209.358845
23.830000	-283.445121
23.840000	-374.521548
23.850000	-466.333626
23.860000	-564.098281
23.870000	-672.242337
23.880000	-788.011651
23.890000	-895.137604
23.900000	-976.613978
23.910000	-1022.076066
23.920000	-1034.277924
23.930000	-1024.062959
23.940000	-1003.304864
23.950000	-976.390066
23.960000	-941.342381
23.970000	-902.763894
23.980000	-866.746573
23.990000	-830.476433
24.000000	-787.504536
24.010000	-733.559285
24.020000	-671.313144
24.030000	-603.674927
24.040000	-532.150603
24.050000	-454.814407
24.060000	-366.680143
24.070000	-272.013670
24.080000	-186.943852
24.090000	-114.545881
24.100000	-42.868972
24.110000	37.545170
24.120000	122.798790
24.130000	205.254973
24.140000	292.135840
24.150000	384.241738
24.160000	466.055461
24.170000	502.802451
24.180000	474.308139
24.190000	394.081416
24.200000	287.217823
24.210000	177.982725
24.220000	74.039304
24.230000	-41.225809
24.240000	-171.814973
24.250000	-309.779144
24.260000	-430.000283
24.270000	-515.065726
24.280000	-565.948737
24.290000	-591.420263
24.300000	-616.656007
24.310000	-652.115357
24.320000	-688.356809
24.330000	-709.173939
24.340000	-719.164024
24.350000	-730.636847
24.360000	-742.986107
24.370000	-755.149372
24.380000	-762.850754
24.390000	-762.047781
24.400000	-745.091251
24.410000	-707.340716
24.420000	-653.744851
24.430000	-590.691536
24.440000	-519.438789
24.450000	-443.770879
24.460000	-360.836573
24.470000	-268.909199
24.480000	-170.301823
24.490000	-73.120278
24.500000	-11.228477
24.510000	-18.723131
24.520000	-93.112917
24.530000	-195.618401
24.540000	-297.083013
24.550000	-397.319606
24.560000	-497.115960
24.570000	-590.061684
24.580000	-678.233330
24.590000	-750.495720
24.600000	-794.074906
24.610000	-810.364499
24.620000	-821.703627
24.630000	-835.254994
24.640000	-845.026727
24.650000	-848.552785
24.660000	-848.762691
24.670000	-842.231598
24.680000	-813.865501
24.690000	-760.676306
24.700000	-685.383713
24.710000	-613.249726
24.720000	-554.260502
24.730000	-503.850778
24.740000	-436.481010
24.750000	-344.903788
24.760000	-239.485332
24.770000	-134.703914
24.780000	-32.524825
24.790000	60.747454
24.800000	135.355898
24.810000	158.732156
24.820000	113.874983
24.830000	8.713889
24.840000	-114.583720
24.850000	-218.389050
24.860000	-330.294146
24.870000	-447.481437
24.880000	-568.749027
24.890000	-667.912270
24.900000	-739.000197
24.910000	-770.736341
24.920000	-770.377114
24.930000	-758.672681
24.940000	-722.402962
24.950000	-627.962284
24.960000	-483.285841
24.970000	-346.466263
24.980000	-271.233696
24.990000	-243.528013
25.000000	-221.516234
25.010000	-183.389392
25.020000	-135.621417
25.030000	-110.065773
25.040000	-95.353513
25.050000	-88.176917
25.060000	-72.129247
25.070000	-51.090390
25.080000	-20.963345
25.090000	26.259612
25.100000	102.799872
25.110000	194.121538
25.120000	268.768371
25.130000	294.566253
25.140000	256.368067
25.150000	170.682013
25.160000	62.240789
25.170000	-42.948623
25.180000	-142.367900
25.190000	-232.326606
25.200000	-314.074389
25.210000	-387.451951
25.220000	-453.535838
25.230000	-497.619174
25.240000	-511.768112
25.250000	-500.573344
25.260000	-481.455158
25.270000	-455.903615
25.280000	-418.543520
25.290000	-363.987669
25.300000	-296.412274
25.310000	-222.833959
25.320000	-152.040633
25.330000	-87.754712
25.340000	-27.072805
25.350000	33.904959
25.360000	92.788466
25.370000	145.470332
25.380000	194.244104
25.390000	238.938755
25.400000	288.968920
25.410000	346.630171
25.420000	415.272205
25.430000	485.862847
25.440000	540.793561
25.450000	550.637712
25.460000	496.250824
25.470000	386.396578
25.480000	257.023114
25.490000	127.349536
25.500000	-5.024262
25.510000	-139.115496
25.520000	-275.169285
25.530000	-412.338799
25.540000	-551.079484
25.550000	-671.601754
25.560000	-758.430445
25.570000	-812.338569
25.580000	-851.258083
25.590000	-887.489776
25.600000	-922.486089
25.610000	-955.732714
25.620000	-982.800772
25.630000	-1003.752370
25.640000	-1015.538243
25.650000	-1013.866891
25.660000	-999.387833
25.670000	-977.426403
25.680000	-947.654301
25.690000	-909.417678
25.700000	-859.011962
25.710000	-797.521920
25.720000	-725.133868
25.730000	-644.065351
25.740000	-573.402606
25.750000	-543.741113
25.760000	-574.073748
25.770000	-653.769996
25.780000	-753.461449
25.790000	-850.585803
25.800000	-942.004263
25.810000	-1029.851386
25.820000	-1113.976285
25.830000	-1191.211019
25.840000	-1251.699116
25.850000	-1287.679092
25.860000	-1298.878701
25.870000	-1292.604320
25.880000	-1280.506707
25.890000	-1261.598132
25.900000	-1236.576103
25.910000	-1206.028529
25.920000	-1168.744228
25.930000	-1122.225840
25.940000	-1069.030116
25.950000	-1018.545890
25.960000	-972.732995
25.970000	-921.269686
25.980000	-857.550299
25.990000	-784.791411
26.000000	-711.820696
26.010000	-637.389869
26.020000	-558.524143
26.030000	-474.097911
26.040000	-402.385424
26.050000	-375.949791
26.060000	-412.978517
26.070000	-499.818883
26.080000	-601.283828
26.090000	-700.843946
26.100000	-798.071447
26.110000	-897.320249
26.120000	-995.944634
26.130000	-1091.234514
26.140000	-1173.570324
26.150000	-1227.571104
26.160000	-1243.650071
26.170000	-1226.384727
26.180000	-1197.882742
26.190000	-1172.949710
26.200000	-1155.857863
26.210000	-1137.582844
26.220000	-1108.602906
26.230000	-1065.671110
26.240000	-1011.134480
26.250000	-949.536503
26.260000	-879.420591
26.270000	-795.829884
26.280000	-697.487654
26.290000	-594.592196
26.300000	-491.977298
26.310000	-395.795340
26.320000	-300.204434
26.330000	-206.789206
26.340000	-116.199213
26.350000	-53.286307
26.360000	-46.975155
26.370000	-104.827928
26.380000	-199.090507
26.390000	-292.780491
26.400000	-383.403419
26.410000	-480.201338
26.420000	-589.811769
26.430000	-700.006168
26.440000	-794.979301
26.450000	-860.584427
26.460000	-886.927249
26.470000	-877.969337
26.480000	-850.679371
26.490000	-818.446045
26.500000	-786.176339
26.510000	-749.331455
26.520000	-704.444060
26.530000	-650.992594
26.540000	-591.153319
26.550000	-525.416382
26.560000	-456.636166
26.570000	-383.930146
26.580000	-309.226780
26.590000	-231.869996
26.600000	-149.913505
26.610000	-62.913427
26.620000	25.957249
26.630000	112.942488
26.640000	190.050853
26.650000	236.665078
26.660000	228.703161
26.670000	161.008066
26.680000	60.679349
26.690000	-46.082598
26.700000	-151.492693
26.710000	-263.647672
26.720000	-382.406035
26.730000	-500.289656
26.740000	-605.069856
26.750000	-683.024197
26.760000	-727.850512
26.770000	-746.223960
26.780000	-757.094247
26.790000	-774.506066
26.800000	-795.386561
26.810000	-813.875884
26.820000	-822.770320
26.830000	-826.037953
26.840000	-823.570875
26.850000	-816.297279
26.860000	-808.474733
26.870000	-802.980048
26.880000	-799.129119
26.890000	-787.398580
26.900000	-762.889308
26.910000	-725.924281
26.920000	-680.418573
26.930000	-626.866175
26.940000	-564.703566
26.950000	-511.950783
26.960000	-502.122489
26.970000	-556.760241
26.980000	-660.196645
26.990000	-777.941789
27.000000	-899.760894
27.010000	-1018.889360
27.020000	-1137.773277
27.030000	-1247.561743
27.040000	-1351.240342
27.050000	-1439.622528
27.060000	-1500.453799
27.070000	-1532.133701
27.080000	-1542.781378
27.090000	-1547.083297
27.100000	-1545.489858
27.110000	-1538.118250
27.120000	-1520.270982
27.130000	-1494.257905
27.140000	-1458.125429
27.150000	-1413.157719
27.160000	-1359.059696
27.170000	-1298.816918
27.180000	-1232.402270
27.190000	-1157.552755
27.200000	-1074.500667
27.210000	-984.707120
27.220000	-894.360042
27.230000	-806.266364
27.240000	-720.625917
27.250000	-633.226641
27.260000	-546.990691
27.270000	-468.609389
27.280000	-419.474101
27.290000	-423.744142
27.300000	-489.657656
27.310000	-597.879838
27.320000	-713.541351
27.330000	-819.138831
27.340000	-920.230110
27.350000	-1023.141113
27.360000	-1129.312746
27.370000	-1227.515332
27.380000	-1297.443293
27.390000	-1338.348869
27.400000	-1355.996752
27.410000	-1365.612831
27.420000	-1371.925222
27.430000	-1372.593953
27.440000	-1369.935777
27.450000	-1361.296765
27.460000	-1343.680104
27.470000	-1319.080698
27.480000	-1287.151431
27.490000	-1248.600307
27.500000	-1198.338954
27.510000	-1134.192698
27.520000	-1065.288286
27.530000	-997.840508
27.540000	-933.287222
27.550000	-866.866650
27.560000	-794.683192
27.570000	-717.633231
27.580000	-631.792482
27.590000	-545.492646
27.600000	-460.274902
27.610000	-386.433821
27.620000	-348.520130
27.630000	-366.752681
27.640000	-440.095824
27.650000	-535.371363
27.660000	-633.430746
27.670000	-731.421416
27.680000	-832.167123
27.690000	-934.512318
27.700000	-1038.290569
27.710000	-1133.292560
27.720000	-1200.773392
27.730000	-1230.143913
27.740000	-1231.026322
27.750000	-1220.730186
27.760000	-1206.297394
27.770000	-1185.001835
27.780000	-1151.606294
27.790000	-1107.669386
27.800000	-1053.287588
27.810000	-990.384198
27.820000	-916.999619
27.830000	-837.824496
27.840000	-756.080649
27.850000	-671.961984
27.860000	-585.198379
27.870000	-494.132768
27.880000	-398.021517
27.890000	-293.999747
27.900000	-187.903025
27.910000	-77.210699
27.920000	29.819825
27.930000	133.236005
27.940000	223.151122
27.950000	278.622294
27.960000	275.110045
27.970000	202.018603
27.980000	103.859597
27.990000	14.024522
28.000000	-65.168498
28.010000	-151.382527
28.020000	-241.830968
28.030000	-315.094728
28.040000	-369.235725
28.050000	-401.158316
28.060000	-403.983773
28.070000	-374.585004
28.080000	-330.139496
28.090000	-288.364188
28.100000	-247.257850
28.110000	-195.132661
28.120000	-123.733964
28.130000	-38.619837
28.140000	52.103058
28.150000	143.221972
28.160000	235.612071
28.170000	331.390027
28.180000	431.441439
28.190000	525.184555
28.200000	609.282903
28.210000	677.965485
28.220000	735.479195
28.230000	789.082888
28.240000	840.990714
28.250000	898.878585
28.260000	960.138151
28.270000	1006.964242
28.280000	1009.585283
28.290000	953.759302
28.300000	857.455151
28.310000	747.914942
28.320000	633.275159
28.330000	513.718852
28.340000	393.109552
28.350000	280.542230
28.360000	180.604151
28.370000	98.373697
28.380000	42.783559
28.390000	15.861235
28.400000	10.279793
28.410000	11.338521
28.420000	12.475863
28.430000	9.166361
28.440000	5.040108
28.450000	11.027508
28.460000	32.937690
28.470000	74.898921
28.480000	129.820155
28.490000	193.127091
28.500000	258.381490
28.510000	327.396058
28.520000	400.958957
28.530000	475.004782
28.540000	544.888727
28.550000	612.318988
28.560000	679.842971
28.570000	746.981180
28.580000	800.452480
28.590000	814.634025
28.600000	772.444118
28.610000	683.386004
28.620000	579.524617
28.630000	480.130507
28.640000	385.581656
28.650000	295.568984
28.660000	209.668335
28.670000	132.050795
28.680000	69.460215
28.690000	32.575638
28.700000	23.595114
28.710000	30.094051
28.720000	40.099069
28.730000	49.669764
28.740000	63.328926
28.750000	84.947095
28.760000	117.594078
28.770000	162.591203
28.780000	218.891722
28.790000	284.940328
28.800000	357.558739
28.810000	432.327287
28.820000	504.600460
28.830000	577.110578
28.840000	652.017416
28.850000	734.947603
28.860000	824.794158
28.870000	919.160096
28.880000	1011.940452
28.890000	1082.713724
28.900000	1107.123778
28.910000	1067.668056
28.920000	981.117152
28.930000	881.386087
28.940000	790.127480
28.950000	702.081517
28.960000	611.856103
28.970000	521.182510
28.980000	441.999429
28.990000	381.992486
29.000000	347.861372
29.010000	340.174270
29.020000	346.410002
29.030000	358.090452
29.040000	371.361944
29.050000	389.751496
29.060000	414.031558
29.070000	445.807377
29.080000	487.429744
29.090000	538.248848
29.100000	598.558322
29.110000	665.075596
29.120000	735.418436
29.130000	807.298960
29.140000	880.347464
29.150000	954.921918
29.160000	1031.341259
29.170000	1110.946498
29.180000	1192.393763
29.190000	1272.031417
29.200000	1343.506110
29.210000	1382.468085
29.220000	1363.684449
29.230000	1289.382489
29.240000	1190.009834
29.250000	1095.699447
29.260000	1010.667994
29.270000	928.391392
29.280000	844.069236
29.290000	761.178271
29.300000	690.897679
29.310000	647.379869
29.320000	633.101109
29.330000	636.617457
29.340000	644.373456
29.350000	649.949851
29.360000	660.425236
29.370000	677.343218
29.380000	705.228523
29.390000	740.458001
29.400000	784.790858
29.410000	835.973158
29.420000	892.099341
29.430000	954.242141
29.440000	1019.142021
29.450000	1088.604912
29.460000	1158.248018
29.470000	1232.071455
29.480000	1310.759414
29.490000	1394.952804
29.500000	1480.004957
29.510000	1548.548287
29.520000	1574.308837
29.530000	1539.583828
29.540000	1457.781726
29.550000	1359.082694
29.560000	1264.647459
29.570000	1174.942684
29.580000	1084.247834
29.590000	994.241631
29.600000	910.945760
29.610000	840.961444
29.620000	792.735007
29.630000	771.759703
29.640000	771.578287
29.650000	779.962597
29.660000	789.856547
29.670000	805.283647
29.680000	829.554187
29.690000	863.352433
29.700000	906.003312
29.710000	954.837891
29.720000	1008.210991
29.730000	1065.749506
29.740000	1127.175173
29.750000	1193.755184
29.760000	1264.222448
29.770000	1340.192393
29.780000	1420.017931
29.790000	1504.059162
29.800000	1588.893942
29.810000	1669.345557
29.820000	1723.816150
29.830000	1726.378202
29.840000	1667.207559
29.850000	1565.916825
29.860000	1456.396791
29.870000	1350.821208
29.880000	1246.637776
29.890000	1137.474079
29.900000	1028.001513
29.910000	924.891630
29.920000	839.136397
29.930000	780.063978
29.940000	752.685536
29.950000	746.620236
29.960000	748.653146
29.970000	751.953684
29.980000	759.741409
29.990000	774.712130
30.000000	798.921065
30.010000	832.892906
30.020000	876.525576
30.030000	927.494188
30.040000	983.891207
30.050000	1047.198111
30.060000	1113.669168
30.070000	1181.667861
30.080000	1249.874707
30.090000	1324.585233
30.100000	1407.494308
30.110000	1495.583009
30.120000	1584.202761
30.130000	1663.994475
30.140000	1708.624512
30.150000	1695.509443
30.160000	1622.528939
30.170000	1517.867379
30.180000	1405.180580
30.190000	1292.274676
30.200000	1177.565889
30.210000	1060.109742
30.220000	944.057756
30.230000	834.038554
30.240000	744.000858
30.250000	684.048972
30.260000	651.667988
30.270000	636.128702
30.280000	626.426079
30.290000	622.663838
30.300000	625.610732
30.310000	636.290912
30.320000	657.558144
30.330000	688.665658
30.340000	732.606546
30.350000	786.782249
30.360000	850.416972
30.370000	916.973177
30.380000	988.006258
30.390000	1062.914612
30.400000	1142.355228
30.410000	1222.600019
30.420000	1305.475250
30.430000	1390.367628
30.440000	1479.358007
30.450000	1566.869298
30.460000	1636.298658
30.470000	1654.078959
30.480000	1601.367400
30.490000	1492.132775
30.500000	1362.918557
30.510000	1242.585605
30.520000	1125.795591
30.530000	1001.776333
30.540000	867.446245
30.550000	745.456572
30.560000	650.493518
30.570000	590.536542
30.580000	558.249865
30.590000	546.033239
30.600000	544.083925
30.610000	546.624395
30.620000	552.346636
30.630000	562.304713
30.640000	580.700296
30.650000	609.059614
30.660000	645.793622
30.670000	688.560288
30.680000	738.978616
30.690000	797.471411
30.700000	860.232002
30.710000	927.807437
30.720000	997.890090
30.730000	1073.904674
30.740000	1149.934242
30.750000	1225.762203
30.760000	1303.729627
30.770000	1383.021505
30.780000	1466.612086
30.790000	1537.970118
30.800000	1570.877030
30.810000	1537.656686
30.820000	1444.643536
30.830000	1325.158370
30.840000	1207.470001
30.850000	1093.995714
30.860000	979.347847
30.870000	863.586986
30.880000	750.641419
30.890000	653.608012
30.900000	583.332842
30.910000	545.017023
30.920000	527.381944
30.930000	514.816525
30.940000	503.197769
30.950000	494.701273
30.960000	495.759336
30.970000	505.967395
30.980000	527.728200
30.990000	558.619280
31.000000	599.437681
31.010000	646.657156
31.020000	698.215133
31.030000	752.760351
31.040000	809.055676
31.050000	866.260153
31.060000	925.964486
31.070000	990.823864
31.080000	1061.595125
31.090000	1136.774463
31.100000	1209.938061
31.110000	1265.759126
31.120000	1273.295994
31.130000	1216.174374
31.140000	1106.789537
31.150000	980.040702
31.160000	855.629947
31.170000	733.908484
31.180000	610.511329
31.190000	484.839854
31.200000	367.141725
31.210000	266.486522
31.220000	198.173739
31.230000	160.470220
31.240000	143.232434
31.250000	131.155488
31.260000	118.365411
31.270000	110.586960
31.280000	113.211116
31.290000	127.386389
31.300000	151.093694
31.310000	184.235964
31.320000	225.350015
31.330000	273.797929
31.340000	326.308520
31.350000	384.080880
31.360000	446.971334
31.370000	516.743019
31.380000	594.004214
31.390000	674.430798
31.400000	754.745100
31.410000	827.478140
31.420000	864.800410
31.430000	840.232133
31.440000	747.947988
31.450000	618.788296
31.460000	482.125584
31.470000	347.991298
31.480000	208.954423
31.490000	64.244372
31.500000	-84.512471
31.510000	-230.123679
31.520000	-351.578589
31.530000	-432.809914
31.540000	-473.326189
31.550000	-493.526321
31.560000	-506.025964
31.570000	-510.180614
31.580000	-505.033271
31.590000	-495.493492
31.600000	-481.002108
31.610000	-464.125581
31.620000	-443.270887
31.630000	-421.081407
31.640000	-396.174776
31.650000	-365.011539
31.660000	-324.393895
31.670000	-271.591305
31.680000	-207.271421
31.690000	-134.828354
31.700000	-55.125844
31.710000	28.944462
31.720000	100.997389
31.730000	124.676425
31.740000	74.497100
31.750000	-41.152680
31.760000	-188.922782
31.770000	-339.983069
31.780000	-488.060874
31.790000	-635.828331
31.800000	-784.185116
31.810000	-924.639529
31.820000	-1049.303455
31.830000	-1143.759268
31.840000	-1200.100180
31.850000	-1217.559812
31.860000	-1213.274621
31.870000	-1202.684919
31.880000	-1190.750165
31.890000	-1173.114992
31.900000	-1145.891531
31.910000	-1106.547306
31.920000	-1055.707393
31.930000	-994.647863
31.940000	-926.194591
31.950000	-854.419541
31.960000	-778.670459
31.970000	-701.535704
31.980000	-621.471162
31.990000	-540.331317
32.000000	-456.265730
32.010000	-366.462251
32.020000	-273.079164
32.030000	-181.273886
32.040000	-114.950464
32.050000	-103.440716
32.060000	-164.464067
32.070000	-281.187418
32.080000	-417.934597
32.090000	-554.987205
32.100000	-690.798197
32.110000	-829.479599
32.120000	-964.978173
32.130000	-1090.314304
32.140000	-1196.163789
32.150000	-1267.813506
32.160000	-1299.052598
32.170000	-1301.709296
32.180000	-1294.975871
32.190000	-1289.262391
32.200000	-1280.541428
32.210000	-1266.836896
32.220000	-1240.106596
32.230000	-1200.784776
32.240000	-1150.692816
32.250000	-1094.090400
32.260000	-1034.294627
32.270000	-968.397566
32.280000	-901.938728
32.290000	-830.363207
32.300000	-756.289172
32.310000	-677.001274
32.320000	-588.991608
32.330000	-493.674119
32.340000	-394.053425
32.350000	-303.731498
32.360000	-247.501822
32.370000	-254.490361
32.380000	-328.570853
32.390000	-441.518127
32.400000	-559.649031
32.410000	-671.631822
32.420000	-780.792405
32.430000	-891.105968
32.440000	-998.940612
32.450000	-1095.592296
32.460000	-1164.426867
32.470000	-1196.794090
32.480000	-1196.641628
32.490000	-1180.725329
32.500000	-1161.873556
32.510000	-1141.988192
32.520000	-1116.449546
32.530000	-1083.621555
32.540000	-1041.386844
32.550000	-990.291850
32.560000	-930.686864
32.570000	-861.655565
32.580000	-786.696207
32.590000	-706.375385
32.600000	-624.746238
32.610000	-540.110805
32.620000	-450.493847
32.630000	-354.212308
32.640000	-255.957850
32.650000	-163.354352
32.660000	-88.466805
32.670000	-54.225924
32.680000	-79.999255
32.690000	-168.418409
32.700000	-291.815626
32.710000	-422.979548
32.720000	-551.713057
32.730000	-683.618669
32.740000	-823.977781
32.750000	-963.920685
32.760000	-1091.937263
32.770000	-1187.232785
32.780000	-1239.962643
32.790000	-1256.291576
32.800000	-1255.059111
32.810000	-1250.373864
32.820000	-1243.490306
32.830000	-1231.147315
32.840000	-1211.963755
32.850000	-1183.287884
32.860000	-1142.808926
32.870000	-1091.140775
32.880000	-1030.028320
32.890000	-963.705105
32.900000	-892.608707
32.910000	-818.310778
32.920000	-743.229784
32.930000	-665.610146
32.940000	-584.224262
32.950000	-499.285545
32.960000	-416.272056
32.970000	-351.696886
32.980000	-336.064020
32.990000	-387.446603
33.000000	-493.812587
33.010000	-619.169903
33.020000	-744.647669
33.030000	-867.644140
33.040000	-989.533349
33.050000	-1106.477161
33.060000	-1209.778866
33.070000	-1290.014776
33.080000	-1335.391202
33.090000	-1350.303579
33.100000	-1345.394138
33.110000	-1335.310204
33.120000	-1319.060982
33.130000	-1294.353476
33.140000	-1258.433470
33.150000	-1216.458733
33.160000	-1170.504418
33.170000	-1119.261621
33.180000	-1061.281896
33.190000	-994.101949
33.200000	-922.452670
33.210000	-843.628692
33.220000	-762.350641
33.230000	-677.512856
33.240000	-591.966188
33.250000	-507.099661
33.260000	-421.614283
33.270000	-344.086793
33.280000	-295.670058
33.290000	-307.474345
33.300000	-379.346300
33.310000	-485.163502
33.320000	-594.049007
33.330000	-700.628818
33.340000	-808.816590
33.350000	-915.781561
33.360000	-1014.277911
33.370000	-1092.962154
33.380000	-1140.444779
33.390000	-1153.537509
33.400000	-1144.693399
33.410000	-1128.156455
33.420000	-1111.295016
33.430000	-1087.441936
33.440000	-1056.954202
33.450000	-1017.090370
33.460000	-969.663877
33.470000	-915.106161
33.480000	-854.078502
33.490000	-787.493457
33.500000	-712.854402
33.510000	-633.600845
33.520000	-550.660336
33.530000	-469.089649
33.540000	-386.816570
33.550000	-302.282879
33.560000	-215.011919
33.570000	-125.514762
33.580000	-40.259362
33.590000	17.839324
33.600000	20.777234
33.610000	-41.458952
33.620000	-144.459858
33.630000	-255.769817
33.640000	-362.785956
33.650000	-467.488338
33.660000	-572.815410
33.670000	-671.880382
33.680000	-755.204704
33.690000	-808.626299
33.700000	-829.993497
33.710000	-827.099145
33.720000	-817.842762
33.730000	-810.243996
33.740000	-800.358063
33.750000	-784.087074
33.760000	-757.906664
33.770000	-722.640224
33.780000	-678.484745
33.790000	-627.228676
33.800000	-568.754915
33.810000	-504.184240
33.820000	-434.387831
33.830000	-359.835179
33.840000	-281.050419
33.850000	-196.175474
33.860000	-106.417030
33.870000	-13.211710
33.880000	81.854269
33.890000	176.054206
33.900000	266.430514
33.910000	333.246581
33.920000	348.623904
33.930000	298.115648
33.940000	200.548776
33.950000	90.000316
33.960000	-16.265191
33.970000	-121.196239
33.980000	-228.105579
33.990000	-333.733209
34.000000	-425.946444
34.010000	-491.625358
34.020000	-523.494292
34.030000	-530.252020
34.040000	-529.423391
34.050000	-529.878286
34.060000	-528.342207
34.070000	-520.190276
34.080000	-503.290325
34.090000	-476.527203
34.100000	-440.932835
34.110000	-396.215335
34.120000	-344.269203
34.130000	-285.921397
34.140000	-223.296335
34.150000	-156.642511
34.160000	-88.014969
34.170000	-17.377422
34.180000	53.575770
34.190000	128.550292
34.200000	208.139421
34.210000	289.784476
34.220000	366.339265
34.230000	410.946983
34.240000	400.532285
34.250000	329.139628
34.260000	223.799345
34.270000	110.981164
34.280000	-0.330867
34.290000	-110.886294
34.300000	-221.810720
34.310000	-327.416660
34.320000	-417.960735
34.330000	-478.279788
34.340000	-506.494558
34.350000	-512.188062
34.360000	-512.061268
34.370000	-514.085364
34.380000	-515.945730
34.390000	-508.643305
34.400000	-488.189277
34.410000	-456.228365
34.420000	-416.449737
34.430000	-367.811378
34.440000	-311.059036
34.450000	-251.082680
34.460000	-190.003946
34.470000	-126.019388
34.480000	-58.628259
34.490000	12.367609
34.500000	88.074822
34.510000	168.744187
34.520000	250.759578
34.530000	325.767076
34.540000	372.735869
34.550000	366.438486
34.560000	293.404859
34.570000	173.528963
34.580000	39.102350
34.590000	-90.755268
34.600000	-216.592357
34.610000	-343.389498
34.620000	-469.606628
34.630000	-589.014635
34.640000	-687.268706
34.650000	-753.318560
34.660000	-784.957785
34.670000	-796.336419
34.680000	-799.977700
34.690000	-799.330953
34.700000	-790.311473
34.710000	-770.330426
34.720000	-739.653525
34.730000	-701.003357
34.740000	-654.989418
34.750000	-602.342528
34.760000	-540.983089
34.770000	-472.356464
34.780000	-399.980451
34.790000	-329.707726
34.800000	-259.286044
34.810000	-185.051843
34.820000	-106.931131
34.830000	-25.727577
34.840000	56.424683
34.850000	137.936506
34.860000	199.069401
34.870000	207.906322
34.880000	148.430738
34.890000	35.300431
34.900000	-98.149490
34.910000	-232.669917
34.920000	-371.115769
34.930000	-514.961387
34.940000	-661.729010
34.950000	-800.888125
34.960000	-921.665201
34.970000	-1006.786855
34.980000	-1049.620017
34.990000	-1064.064264
35.000000	-1066.570336
35.010000	-1067.980969
35.020000	-1062.128164
35.030000	-1045.224637
35.040000	-1013.673121
35.050000	-968.467031
35.060000	-915.216382
35.070000	-855.015479
35.080000	-787.406663
35.090000	-707.535955
35.100000	-614.257379
35.110000	-510.383698
35.120000	-402.099891
35.130000	-293.875399
35.140000	-179.561374
35.150000	-58.028484
35.160000	71.328644
35.170000	201.818536
35.180000	328.577703
35.190000	440.670103
35.200000	511.137854
35.210000	519.896182
35.220000	462.430272
35.230000	369.576054
35.240000	267.734401
35.250000	162.890940
35.260000	46.690753
35.270000	-81.413935
35.280000	-209.292089
35.290000	-327.031733
35.300000	-420.569839
35.310000	-476.624130
35.320000	-493.518060
35.330000	-481.554165
35.340000	-460.463051
35.350000	-432.072036
35.360000	-385.676764
35.370000	-312.898899
35.380000	-212.879859
35.390000	-82.688255
35.400000	90.643637
35.410000	302.841269
35.420000	532.821081
35.430000	773.443085
35.440000	1030.401648
35.450000	1298.048828
35.460000	1574.026865
35.470000	1842.319866
35.480000	2088.693639
35.490000	2297.290284
35.500000	2479.472849
35.510000	2651.980293
35.520000	2810.900638
35.530000	2956.052971
35.540000	3079.680480
35.550000	3160.127426
35.560000	3172.826014
35.570000	3129.007614
35.580000	3073.772345
35.590000	3036.887142
35.600000	3008.986309
35.610000	2971.784261
35.620000	2910.251596
35.630000	2826.771854
35.640000	2727.904586
35.650000	2634.508522
35.660000	2570.609626
35.670000	2539.899557
35.680000	2528.643869
35.690000	2525.674873
35.700000	2535.431694
35.710000	2569.179790
35.720000	2634.587275
35.730000	2729.702692
35.740000	2849.445421
35.750000	2989.271632
35.760000	3141.004873
35.770000	3294.880863
35.780000	3440.273293
35.790000	3573.553980
35.800000	3691.587709
35.810000	3793.277292
35.820000	3877.947815
35.830000	3944.042623
35.840000	3992.024461
35.850000	4021.516504
35.860000	4027.131372
35.870000	4004.035746
35.880000	3954.969378
35.890000	3865.217105
35.900000	3718.512921
35.910000	3507.131431
35.920000	3262.205724
35.930000	3019.768080
35.940000	2794.214280
35.950000	2573.707483
35.960000	2336.570218
35.970000	2075.059157
35.980000	1803.694209
35.990000	1558.175466
36.000000	1360.486534
36.010000	1210.603539
36.020000	1088.595918
36.030000	982.758787
36.040000	892.773999
36.050000	810.596402
36.060000	727.987969
36.070000	638.474770
36.080000	543.592663
36.090000	450.068934
36.100000	362.893598
36.110000	289.704188
36.120000	229.537533
36.130000	186.385807
36.140000	164.547862
36.150000	168.432745
36.160000	196.573197
36.170000	241.159537
36.180000	297.637541
36.190000	360.580123
36.200000	426.068343
36.210000	484.012198
36.220000	514.500060
36.230000	483.098396
36.240000	369.664483
36.250000	196.661180
36.260000	12.927024
36.270000	-153.808899
36.280000	-304.865663
36.290000	-451.615933
36.300000	-591.596919
36.310000	-719.726231
36.320000	-826.293145
36.330000	-897.135872
36.340000	-930.000860
36.350000	-933.554833
36.360000	-928.053602
36.370000	-920.584687
36.380000	-909.730572
36.390000	-889.917901
36.400000	-860.068511
36.410000	-819.233936
36.420000	-764.717950
36.430000	-698.546406
36.440000	-624.021521
36.450000	-547.852681
36.460000	-469.623785
36.470000	-389.813492
36.480000	-306.204533
36.490000	-220.103677
36.500000	-133.774743
36.510000	-45.369872
36.520000	43.992462
36.530000	135.381704
36.540000	224.422675
36.550000	300.794444
36.560000	336.147062
36.570000	307.565335
36.580000	220.291539
36.590000	102.407903
36.600000	-24.907811
36.610000	-162.134348
36.620000	-311.103357
36.630000	-468.990101
36.640000	-627.276698
36.650000	-771.824321
36.660000	-884.099011
36.670000	-953.675654
36.680000	-985.291606
36.690000	-995.555353
36.700000	-995.130750
36.710000	-986.743237
36.720000	-974.972081
36.730000	-958.579336
36.740000	-936.812698
36.750000	-904.401398
36.760000	-865.678479
36.770000	-819.206807
36.780000	-770.228871
36.790000	-717.327252
36.800000	-667.135095
36.810000	-613.078866
36.820000	-550.714993
36.830000	-478.506666
36.840000	-394.629347
36.850000	-300.612630
36.860000	-198.547896
36.870000	-107.768970
36.880000	-58.499739
36.890000	-75.580938
36.900000	-156.045983
36.910000	-276.340831
36.920000	-408.585175
36.930000	-544.158815
36.940000	-676.803070
36.950000	-804.327211
36.960000	-917.006529
36.970000	-1006.506028
36.980000	-1061.876422
36.990000	-1083.055365
37.000000	-1078.109591
37.010000	-1063.301820
37.020000	-1046.327489
37.030000	-1031.547688
37.040000	-1017.872624
37.050000	-1004.135851
37.060000	-983.411406
37.070000	-951.073417
37.080000	-905.635506
37.090000	-848.362174
37.100000	-780.202645
37.110000	-703.331797
37.120000	-623.791494
37.130000	-542.298133
37.140000	-459.391445
37.150000	-372.267116
37.160000	-284.019669
37.170000	-195.910037
37.180000	-112.335717
37.190000	-55.280705
37.200000	-54.686630
37.210000	-118.938738
37.220000	-225.967365
37.230000	-341.577167
37.240000	-454.324519
37.250000	-564.929828
37.260000	-676.703166
37.270000	-789.955521
37.280000	-894.735114
37.290000	-976.650725
37.300000	-1022.786362
37.310000	-1037.074323
37.320000	-1036.555931
37.330000	-1033.166404
37.340000	-1029.649616
37.350000	-1019.917100
37.360000	-1000.099108
37.370000	-969.359342
37.380000	-927.567245
37.390000	-875.821821
37.400000	-815.386175
37.410000	-750.643354
37.420000	-680.540798
37.430000	-603.480809
37.440000	-517.378295
37.450000	-425.684473
37.460000	-327.889368
37.470000	-226.246968
37.480000	-120.745571
37.490000	-18.513870
37.500000	62.349858
37.510000	92.169077
37.520000	54.463072
37.530000	-31.735670
37.540000	-133.069713
37.550000	-227.690814
37.560000	-316.015879
37.570000	-407.021806
37.580000	-498.283173
37.590000	-582.358236
37.600000	-642.878601
37.610000	-671.402523
37.620000	-673.866368
37.630000	-661.146651
37.640000	-646.212911
37.650000	-627.871657
37.660000	-605.246850
37.670000	-576.280017
37.680000	-539.970367
37.690000	-493.704020
37.700000	-437.387612
37.710000	-370.814578
37.720000	-298.504763
37.730000	-222.271349
37.740000	-143.975747
37.750000	-61.069761
37.760000	27.194524
37.770000	120.441558
37.780000	215.670350
37.790000	308.595400
37.800000	379.416231
37.810000	398.702076
37.820000	349.843224
37.830000	247.540591
37.840000	124.966736
37.850000	0.985532
37.860000	-121.641646
37.870000	-247.276820
37.880000	-373.251844
37.890000	-491.211404
37.900000	-589.206748
37.910000	-653.161445
37.920000	-681.216564
37.930000	-683.833394
37.940000	-676.595231
37.950000	-668.174523
37.960000	-655.964451
37.970000	-637.203458
37.980000	-607.684628
37.990000	-568.936433
38.000000	-519.418018
38.010000	-460.365362
38.020000	-393.173519
38.030000	-320.151821
38.040000	-244.285905
38.050000	-163.613055
38.060000	-78.760442
38.070000	8.901963
38.080000	96.405588
38.090000	181.396961
38.100000	256.536213
38.110000	294.147727
38.120000	266.645369
38.130000	175.289336
38.140000	52.150757
38.150000	-75.270008
38.160000	-204.768405
38.170000	-337.861321
38.180000	-474.705587
38.190000	-607.786661
38.200000	-727.659234
38.210000	-816.711339
38.220000	-863.317757
38.230000	-873.372562
38.240000	-866.702964
38.250000	-857.373021
38.260000	-849.081411
38.270000	-835.367258
38.280000	-811.820474
38.290000	-774.384077
38.300000	-721.588210
38.310000	-658.105954
38.320000	-588.042520
38.330000	-513.844685
38.340000	-434.508701
38.350000	-353.617297
38.360000	-271.654252
38.370000	-188.743396
38.380000	-102.480595
38.390000	-12.897179
38.400000	79.002803
38.410000	172.595907
38.420000	262.786487
38.430000	328.023107
38.440000	338.861210
38.450000	279.132898
38.460000	167.344033
38.470000	35.927210
38.480000	-97.901934
38.490000	-235.683589
38.500000	-378.834424
38.510000	-522.965234
38.520000	-655.765213
38.530000	-766.939066
38.540000	-842.037836
38.550000	-877.629655
38.560000	-885.705901
38.570000	-884.022400
38.580000	-879.697646
38.590000	-869.071672
38.600000	-848.375117
38.610000	-818.152040
38.620000	-778.069310
38.630000	-726.915673
38.640000	-667.459986
38.650000	-598.687669
38.660000	-526.555094
38.670000	-449.791626
38.680000	-372.015296
38.690000	-289.894685
38.700000	-203.168637
38.710000	-114.690853
38.720000	-24.665768
38.730000	64.489323
38.740000	158.508733
38.750000	253.960389
38.760000	349.338078
38.770000	435.058980
38.780000	490.119250
38.790000	484.115099
38.800000	404.934153
38.810000	277.924411
38.820000	138.426951
38.830000	4.336393
38.840000	-131.498315
38.850000	-272.925023
38.860000	-416.084745
38.870000	-549.848664
38.880000	-659.342942
38.890000	-732.127566
38.900000	-767.983135
38.910000	-777.785223
38.920000	-777.652521
38.930000	-772.426541
38.940000	-764.663434
38.950000	-753.740094
38.960000	-737.684771
38.970000	-713.063581
38.980000	-680.063152
38.990000	-639.402109
39.000000	-589.114213
39.010000	-527.086759
39.020000	-456.860459
39.030000	-381.783669
39.040000	-303.614920
39.050000	-221.485734
39.060000	-138.392154
39.070000	-55.862380
39.080000	29.164821
39.090000	116.072693
39.100000	205.380285
39.110000	292.315485
39.120000	375.594465
39.130000	433.491482
39.140000	435.440593
39.150000	365.029457
39.160000	245.719551
39.170000	114.260783
39.180000	-13.401577
39.190000	-136.893400
39.200000	-260.210582
39.210000	-380.036506
39.220000	-492.359816
39.230000	-585.500484
39.240000	-643.839961
39.250000	-666.346042
39.260000	-668.373086
39.270000	-666.201902
39.280000	-662.543141
39.290000	-652.042922
39.300000	-629.387055
39.310000	-595.574800
39.320000	-550.568066
39.330000	-495.449461
39.340000	-431.756454
39.350000	-363.002095
39.360000	-290.277151
39.370000	-216.899555
39.380000	-141.790894
39.390000	-66.141441
39.400000	11.698561
39.410000	91.273212
39.420000	169.510080
39.430000	243.350748
39.440000	316.670411
39.450000	394.427954
39.460000	474.140589
39.470000	547.152078
39.480000	585.221101
39.490000	566.224048
39.500000	483.007351
39.510000	361.719014
39.520000	234.140846
39.530000	112.158008
39.540000	-9.774623
39.550000	-138.072914
39.560000	-268.661902
39.570000	-391.287256
39.580000	-490.535169
39.590000	-553.508434
39.600000	-577.770186
39.610000	-577.106949
39.620000	-568.680342
39.630000	-559.342771
39.640000	-547.566185
39.650000	-527.899603
39.660000	-499.128523
39.670000	-459.787008
39.680000	-410.694806
39.690000	-354.008820
39.700000	-289.250981
39.710000	-218.902282
39.720000	-142.796469
39.730000	-64.468884
39.740000	17.341858
39.750000	100.626449
39.760000	182.482261
39.770000	266.410847
39.780000	351.615948
39.790000	442.882607
39.800000	535.061323
39.810000	629.712043
39.820000	720.491176
39.830000	789.181988
39.840000	803.555927
39.850000	747.703730
39.860000	640.055556
39.870000	512.937784
39.880000	388.200804
39.890000	262.109532
39.900000	134.697941
39.910000	3.616507
39.920000	-125.106571
39.930000	-243.529020
39.940000	-333.874934
39.950000	-384.682515
39.960000	-401.012401
39.970000	-400.193191
39.980000	-395.127625
39.990000	-386.994672
40.000000	-372.887721
40.010000	-348.448011
40.020000	-313.648645
40.030000	-269.225457
40.040000	-216.733579
40.050000	-155.317786
40.060000	-86.813816
40.070000	-14.067210
40.080000	61.789924
40.090000	141.869061
40.100000	222.727616
40.110000	306.166451
40.120000	391.672595
40.130000	478.142788
40.140000	563.629413
40.150000	648.138902
40.160000	736.280197
40.170000	827.468991
40.180000	920.277146
40.190000	1004.456909
40.200000	1052.575849
40.210000	1035.790131
40.220000	954.303733
40.230000	834.544994
40.240000	710.401930
40.250000	588.240960
40.260000	465.492473
40.270000	339.620770
40.280000	216.623728
40.290000	101.682462
40.300000	4.117328
40.310000	-63.562595
40.320000	-98.063039
40.330000	-110.495694
40.340000	-118.242253
40.350000	-121.696913
40.360000	-117.726372
40.370000	-101.207074
40.380000	-73.208391
40.390000	-33.360654
40.400000	14.985520
40.410000	70.511013
40.420000	131.197364
40.430000	198.746272
40.440000	269.414482
40.450000	342.677451
40.460000	414.642946
40.470000	487.312264
40.480000	561.555932
40.490000	639.304459
40.500000	720.818978
40.510000	803.644009
40.520000	890.116838
40.530000	979.998296
40.540000	1073.103484
40.550000	1165.364039
40.560000	1240.077699
40.570000	1268.051216
40.580000	1226.425184
40.590000	1128.527114
40.600000	1010.524850
40.610000	897.996820
40.620000	789.907747
40.630000	677.134066
40.640000	560.674960
40.650000	446.307703
40.660000	346.149602
40.670000	272.171029
40.680000	231.634815
40.690000	217.685820
40.700000	214.452243
40.710000	212.241297
40.720000	212.657817
40.730000	220.830302
40.740000	240.216049
40.750000	271.101244
40.760000	313.798396
40.770000	366.390165
40.780000	425.734876
40.790000	486.697831
40.800000	549.376669
40.810000	613.361766
40.820000	681.050548
40.830000	753.045192
40.840000	828.411339
40.850000	904.749095
40.860000	981.134051
40.870000	1058.482618
40.880000	1139.218824
40.890000	1217.551513
40.900000	1276.296917
40.910000	1282.601985
40.920000	1219.108844
40.930000	1103.774047
40.940000	973.330251
40.950000	851.267619
40.960000	734.168935
40.970000	614.106609
40.980000	490.719494
40.990000	369.987391
41.000000	263.977761
41.010000	184.558556
41.020000	140.251041
41.030000	123.108634
41.040000	117.193118
41.050000	114.705081
41.060000	115.513541
41.070000	122.333229
41.080000	135.852217
41.090000	157.654257
41.100000	191.219787
41.110000	232.311036
41.120000	278.950445
41.130000	330.996332
41.140000	386.365841
41.150000	447.717981
41.160000	512.790973
41.170000	582.471451
41.180000	653.227061
41.190000	725.258180
41.200000	798.017348
41.210000	872.405047
41.220000	947.826257
41.230000	1025.245492
41.240000	1094.627475
41.250000	1124.048225
41.260000	1087.132888
41.270000	983.611485
41.280000	842.741429
41.290000	696.871793
41.300000	553.637166
41.310000	408.453467
41.320000	255.216834
41.330000	99.421609
41.340000	-48.502157
41.350000	-174.913808
41.360000	-267.537436
41.370000	-321.248236
41.380000	-347.598052
41.390000	-362.240290
41.400000	-370.276203
41.410000	-372.868199
41.420000	-366.254325
41.430000	-351.823905
41.440000	-326.199820
41.450000	-291.776073
41.460000	-245.778545
41.470000	-190.723673
41.480000	-129.338891
41.490000	-64.653284
41.500000	4.129950
41.510000	78.103124
41.520000	153.938386
41.530000	230.216372
41.540000	306.768384
41.550000	383.681643
41.560000	460.280800
41.570000	537.168127
41.580000	617.150163
41.590000	700.331266
41.600000	784.363382
41.610000	859.156914
41.620000	893.535630
41.630000	859.006712
41.640000	751.792370
41.650000	603.971429
41.660000	450.072095
41.670000	298.547267
41.680000	144.999074
41.690000	-17.534913
41.700000	-184.694014
41.710000	-344.246835
41.720000	-484.038867
41.730000	-584.590383
41.740000	-643.415664
41.750000	-667.612377
41.760000	-679.152288
41.770000	-688.254579
41.780000	-693.175385
41.790000	-689.876649
41.800000	-675.187199
41.810000	-650.831999
41.820000	-615.176444
41.830000	-569.114440
41.840000	-512.817336
41.850000	-449.392056
41.860000	-380.775603
41.870000	-307.653630
41.880000	-231.724184
41.890000	-152.897963
41.900000	-74.001909
41.910000	4.208794
41.920000	80.731623
41.930000	157.334966
41.940000	236.144476
41.950000	319.807449
41.960000	407.559371
41.970000	497.621757
41.980000	584.308007
41.990000	648.409932
42.000000	656.695657
42.010000	586.237126
42.020000	455.541013
42.030000	302.795461
42.040000	157.372417
42.050000	16.943499
42.060000	-126.802668
42.070000	-277.886896
42.080000	-430.273845
42.090000	-567.679682
42.100000	-674.403989
42.110000	-741.816073
42.120000	-776.567114
42.130000	-795.972912
42.140000	-811.371788
42.150000	-823.759450
42.160000	-828.151611
42.170000	-817.866363
42.180000	-794.278725
42.190000	-758.297275
42.200000	-713.070720
42.210000	-660.383277
42.220000	-600.517533
42.230000	-537.137610
42.240000	-470.614440
42.250000	-402.220317
42.260000	-330.028548
42.270000	-254.970280
42.280000	-176.765487
42.290000	-96.383246
42.300000	-14.160342
42.310000	68.541241
42.320000	150.451914
42.330000	228.467467
42.340000	279.348901
42.350000	268.703011
42.360000	181.639326
42.370000	43.054289
42.380000	-107.690815
42.390000	-253.983961
42.400000	-400.406294
42.410000	-554.022914
42.420000	-709.080529
42.430000	-857.048282
42.440000	-987.075848
42.450000	-1086.061660
42.460000	-1144.074134
42.470000	-1168.450121
42.480000	-1177.430075
42.490000	-1184.152324
42.500000	-1187.073488
42.510000	-1180.838553
42.520000	-1163.052886
42.530000	-1131.519866
42.540000	-1087.703555
42.550000	-1031.859079
42.560000	-968.694338
42.570000	-898.179821
42.580000	-824.023243
42.590000	-745.482843
42.600000	-666.024846
42.610000	-586.439623
42.620000	-506.016729
42.630000	-422.386205
42.640000	-334.673701
42.650000	-242.662193
42.660000	-149.333675
42.670000	-56.596058
42.680000	20.643208
42.690000	52.100460
42.700000	10.634727
42.710000	-99.778161
42.720000	-244.617073
42.730000	-392.993919
42.740000	-537.594054
42.750000	-687.581981
42.760000	-842.204108
42.770000	-997.488117
42.780000	-1139.446835
42.790000	-1257.062515
42.800000	-1334.335906
42.810000	-1369.001238
42.820000	-1374.929139
42.830000	-1370.612395
42.840000	-1363.150707
42.850000	-1350.858931
42.860000	-1329.357588
42.870000	-1297.105838
42.880000	-1252.891133
42.890000	-1198.018603
42.900000	-1133.415754
42.910000	-1058.920319
42.920000	-978.276205
42.930000	-893.475473
42.940000	-806.126996
42.950000	-715.682565
42.960000	-622.972566
42.970000	-529.883344
42.980000	-435.467596
42.990000	-340.078052
43.000000	-243.283946
43.010000	-146.935611
43.020000	-51.085052
43.030000	46.891376
43.040000	147.117732
43.050000	247.389617
43.060000	323.939167
43.070000	342.537227
43.080000	283.813071
43.090000	168.473460
43.100000	34.747200
43.110000	-95.957521
43.120000	-225.369682
43.130000	-357.381688
43.140000	-488.787427
43.150000	-612.448530
43.160000	-719.854657
43.170000	-799.493488
43.180000	-840.910926
43.190000	-849.233806
43.200000	-839.647149
43.210000	-825.287249
43.220000	-807.669959
43.230000	-780.972119
43.240000	-746.029050
43.250000	-701.301531
43.260000	-647.378113
43.270000	-584.948408
43.280000	-513.039521
43.290000	-435.257825
43.300000	-352.342733
43.310000	-266.888394
43.320000	-177.951997
43.330000	-87.174868
43.340000	6.798456
43.350000	101.212483
43.360000	192.565606
43.370000	281.296364
43.380000	368.687745
43.390000	460.077679
43.400000	553.810600
43.410000	649.215245
43.420000	746.957628
43.430000	845.701429
43.440000	944.125762
43.450000	1025.499962
43.460000	1060.614566
43.470000	1025.000054
43.480000	927.884720
43.490000	805.596960
43.500000	686.488929
43.510000	575.819975
43.520000	465.078417
43.530000	352.752214
43.540000	241.703478
43.550000	143.398536
43.560000	68.349925
43.570000	29.074589
43.580000	17.965546
43.590000	26.773540
43.600000	46.938527
43.610000	80.192526
43.620000	126.933161
43.630000	179.280980
43.640000	233.966207
43.650000	286.391756
43.660000	343.055910
43.670000	408.523618
43.680000	482.826437
43.690000	563.007424
43.700000	644.619896
43.710000	729.870063
43.720000	819.102338
43.730000	911.089344
43.740000	1007.955135
43.750000	1106.990020
43.760000	1209.179599
43.770000	1312.243417
43.780000	1417.108065
43.790000	1523.188015
43.800000	1632.071340
43.810000	1743.155579
43.820000	1855.061599
43.830000	1952.113115
43.840000	2006.046637
43.850000	1993.112501
43.860000	1918.139712
43.870000	1812.213622
43.880000	1702.919525
43.890000	1599.962036
43.900000	1502.700703
43.910000	1406.395667
43.920000	1312.528800
43.930000	1226.202419
43.940000	1159.071408
43.950000	1122.036941
43.960000	1108.596040
43.970000	1110.897567
43.980000	1118.142356
43.990000	1129.816187
44.000000	1148.727501
44.010000	1174.756419
44.020000	1207.341031
44.030000	1248.733918
44.040000	1298.977960
44.050000	1357.739773
44.060000	1422.304318
44.070000	1491.111344
44.080000	1566.670963
44.090000	1647.166695
44.100000	1729.730263
44.110000	1816.598147
44.120000	1907.812143
44.130000	2002.388571
44.140000	2097.584148
44.150000	2191.208633
44.160000	2286.064465
44.170000	2380.042937
44.180000	2466.560008
44.190000	2524.197121
44.200000	2525.733329
44.210000	2465.771369
44.220000	2369.684345
44.230000	2267.718561
44.240000	2173.615955
44.250000	2082.306356
44.260000	1991.580693
44.270000	1899.252470
44.280000	1809.587720
44.290000	1735.245831
44.300000	1689.954824
44.310000	1671.218045
44.320000	1664.311353
44.330000	1656.551789
44.340000	1646.387285
44.350000	1642.602317
44.360000	1644.792591
44.370000	1656.685012
44.380000	1673.194046
44.390000	1695.805629
44.400000	1727.953567
44.410000	1770.270771
44.420000	1822.729649
44.430000	1876.730222
44.440000	1933.215931
44.450000	1993.875163
44.460000	2060.385070
44.470000	2131.026431
44.480000	2203.233628
44.490000	2277.868262
44.500000	2352.420134
44.510000	2414.696757
44.520000	2439.918025
44.530000	2402.869367
44.540000	2308.844354
44.550000	2187.786982
44.560000	2068.444002
44.570000	1957.653657
44.580000	1847.344545
44.590000	1733.873606
44.600000	1620.604700
44.610000	1516.782650
44.620000	1438.890241
44.630000	1389.992904
44.640000	1358.806978
44.650000	1331.198472
44.660000	1302.752747
44.670000	1280.102573
44.680000	1266.021951
44.690000	1261.334519
44.700000	1266.622857
44.710000	1280.225151
44.720000	1299.886129
44.730000	1324.448599
44.740000	1352.143316
44.750000	1383.339304
44.760000	1417.725798
44.770000	1457.897590
44.780000	1504.962895
44.790000	1559.111136
44.800000	1616.846732
44.810000	1674.312955
44.820000	1709.335247
44.830000	1690.810955
44.840000	1599.509445
44.850000	1453.396557
44.860000	1289.721061
44.870000	1129.587947
44.880000	970.851278
44.890000	807.082361
44.900000	641.321272
44.910000	480.232812
44.920000	334.112960
44.930000	215.700663
44.940000	134.873111
44.950000	79.750709
44.960000	34.262664
44.970000	-11.542562
44.980000	-51.330883
44.990000	-77.527963
45.000000	-93.985723
45.010000	-97.859254
45.020000	-92.690093
45.030000	-74.870602
45.040000	-49.452310
45.050000	-18.909974
45.060000	18.093137
45.070000	60.005545
45.080000	109.612282
45.090000	165.537054
45.100000	224.419025
45.110000	278.682329
45.120000	305.474781
45.130000	270.419214
45.140000	157.870877
45.150000	-12.793198
45.160000	-202.726084
45.170000	-393.108194
45.180000	-585.761696
45.190000	-784.478267
45.200000	-986.830936
45.210000	-1186.556216
45.220000	-1366.924208
45.230000	-1511.020798
45.240000	-1603.409699
45.250000	-1655.615266
45.260000	-1688.978992
45.270000	-1718.583709
45.280000	-1742.226288
45.290000	-1752.932165
45.300000	-1749.216072
45.310000	-1731.347135
45.320000	-1702.275855
45.330000	-1664.156814
45.340000	-1620.403576
45.350000	-1570.688271
45.360000	-1518.274111
45.370000	-1460.604247
45.380000	-1400.560965
45.390000	-1337.245418
45.400000	-1270.586532
45.410000	-1203.298193
45.420000	-1136.011173
45.430000	-1082.459253
45.440000	-1073.221871
45.450000	-1142.370512
45.460000	-1288.743885
45.470000	-1476.261418
45.480000	-1670.346384
45.490000	-1867.314316
45.500000	-2070.379085
45.510000	-2280.773799
45.520000	-2487.457524
45.530000	-2679.981769
45.540000	-2840.596834
45.550000	-2949.265094
45.560000	-2997.182669
45.570000	-3003.708791
45.580000	-2992.196488
45.590000	-2982.560703
45.600000	-2964.545727
45.610000	-2939.195878
45.620000	-2898.288994
45.630000	-2848.959948
45.640000	-2784.748858
45.650000	-2716.526087
45.660000	-2637.916341
45.670000	-2561.232371
45.680000	-2478.450602
45.690000	-2399.076565
45.700000	-2312.018504
45.710000	-2225.397510
45.720000	-2131.300100
45.730000	-2043.202007
45.740000	-1945.928201
45.750000	-1858.191821
45.760000	-1763.218103
45.770000	-1699.760437
45.780000	-1675.850256
45.790000	-1747.220365
45.800000	-1873.646136
45.810000	-2051.541846
45.820000	-2215.032153
45.830000	-2408.260340
45.840000	-2584.931551
45.850000	-2789.657217
45.860000	-2950.940997
45.870000	-3125.502088
45.880000	-3227.655369
45.890000	-3201.830047
45.900000	-2034.287694
45.910000	-1867.928279
45.920000	-1777.567310
45.930000	-1717.238737
45.940000	-1614.766231
45.950000	-1535.691150
45.960000	-1428.407187
45.970000	-1350.875031
45.980000	-1253.850967
45.990000	-1182.081057
46.000000	-1094.155492
46.010000	-1021.919035
46.020000	-930.373884
46.030000	-849.031678
46.040000	-749.530830
46.050000	-650.370550
46.060000	-536.359442
46.070000	-430.912999
46.080000	-319.180495
46.090000	-221.984301
46.100000	-146.394647
46.110000	-141.267904
46.120000	-216.265338
46.130000	-365.272360
46.140000	-535.104254
46.150000	-703.459132
46.160000	-868.764251
46.170000	-1049.465016
46.180000	-1239.454256
46.190000	-1431.231154
46.200000	-1600.194675
46.210000	-1736.468409
46.220000	-1817.330436
46.230000	-1851.221819
46.240000	-1855.253838
46.250000	-1853.090304
46.260000	-1849.555815
46.270000	-1836.687213
46.280000	-1811.301017
46.290000	-1772.386728
46.300000	-1718.474789
46.310000	-1652.193847
46.320000	-1578.751833
46.330000	-1503.096265
46.340000	-1424.442297
46.350000	-1342.094569
46.360000	-1254.225090
46.370000	-1163.868123
46.380000	-1070.426253
46.390000	-978.082926
46.400000	-884.704615
46.410000	-789.061188
46.420000	-689.408965
46.430000	-587.476130
46.440000	-485.875968
46.450000	-385.646707
46.460000	-287.100673
46.470000	-212.303126
46.480000	-196.453945
46.490000	-264.690795
46.500000	-397.443035
46.510000	-551.772620
46.520000	-702.572493
46.530000	-848.677986
46.540000	-997.817206
46.550000	-1149.651739
46.560000	-1298.470747
46.570000	-1434.704846
46.580000	-1541.193082
46.590000	-1601.181735
46.600000	-1620.399507
46.610000	-1615.109566
46.620000	-1605.037108
46.630000	-1590.739398
46.640000	-1568.082775
46.650000	-1533.457915
46.660000	-1484.886452
46.670000	-1421.933811
46.680000	-1346.449138
46.690000	-1263.504218
46.700000	-1173.417343
46.710000	-1080.838000
46.720000	-985.790554
46.730000	-891.598110
46.740000	-796.901054
46.750000	-699.773024
46.760000	-599.430594
46.770000	-495.698376
46.780000	-392.386043
46.790000	-291.031980
46.800000	-190.748842
46.810000	-88.773964
46.820000	14.800803
46.830000	117.063740
46.840000	193.880074
46.850000	206.115312
46.860000	135.605824
46.870000	5.202230
46.880000	-143.025793
46.890000	-291.186934
46.900000	-442.457802
46.910000	-601.321732
46.920000	-762.270598
46.930000	-917.190451
46.940000	-1055.818079
46.950000	-1165.459251
46.960000	-1232.770034
46.970000	-1256.166104
46.980000	-1251.508477
46.990000	-1236.282134
47.000000	-1218.291186
47.010000	-1193.770041
47.020000	-1159.478447
47.030000	-1112.661838
47.040000	-1051.737591
47.050000	-977.628615
47.060000	-896.077497
47.070000	-811.324878
47.080000	-723.472395
47.090000	-632.753939
47.100000	-538.931166
47.110000	-444.254405
47.120000	-346.107204
47.130000	-243.823587
47.140000	-138.016166
47.150000	-29.789586
47.160000	78.008566
47.170000	187.864828
47.180000	298.295438
47.190000	411.803854
47.200000	526.511216
47.210000	641.353337
47.220000	753.664758
47.230000	840.122184
47.240000	867.066616
47.250000	814.205044
47.260000	702.526421
47.270000	571.951718
47.280000	445.552345
47.290000	317.899759
47.300000	179.514027
47.310000	29.485463
47.320000	-118.870526
47.330000	-250.642519
47.340000	-354.649491
47.350000	-417.147058
47.360000	-440.188205
47.370000	-432.719651
47.380000	-415.808754
47.390000	-395.632646
47.400000	-372.460461
47.410000	-343.918518
47.420000	-306.488574
47.430000	-259.925675
47.440000	-202.223554
47.450000	-137.326956
47.460000	-64.990879
47.470000	13.892048
47.480000	97.864250
47.490000	183.730882
47.500000	271.687220
47.510000	363.198998
47.520000	456.795179
47.530000	551.629141
47.540000	647.198318
47.550000	746.029094
47.560000	845.549529
47.570000	947.737531
47.580000	1050.185256
47.590000	1154.754829
47.600000	1258.772890
47.610000	1362.077277
47.620000	1462.654243
47.630000	1534.967801
47.640000	1548.488428
47.650000	1486.195834
47.660000	1374.074985
47.670000	1250.425785
47.680000	1132.572522
47.690000	1014.226629
47.700000	887.368200
47.710000	755.027860
47.720000	628.156133
47.730000	518.468825
47.740000	438.918886
47.750000	396.197802
47.760000	384.954223
47.770000	388.869429
47.780000	394.303468
47.790000	398.878983
47.800000	407.981468
47.810000	425.859953
47.820000	453.625821
47.830000	490.811990
47.840000	538.918075
47.850000	595.730087
47.860000	657.850428
47.870000	723.295839
47.880000	791.764919
47.890000	864.844708
47.900000	942.653715
47.910000	1024.703986
47.920000	1109.853187
47.930000	1194.536140
47.940000	1280.714419
47.950000	1368.008824
47.960000	1458.897496
47.970000	1554.124438
47.980000	1650.718416
47.990000	1749.231455
48.000000	1839.157692
48.010000	1899.959971
48.020000	1900.216438
48.030000	1830.064036
48.040000	1717.696336
48.050000	1596.165017
48.060000	1479.441002
48.070000	1360.860087
48.080000	1231.162887
48.090000	1096.916546
48.100000	963.533081
48.110000	842.641785
48.120000	747.894084
48.130000	688.674101
48.140000	663.544365
48.150000	654.312932
48.160000	648.529812
48.170000	644.968844
48.180000	647.515738
48.190000	659.944404
48.200000	682.144463
48.210000	714.240918
48.220000	754.755931
48.230000	804.196863
48.240000	862.352899
48.250000	928.806536
48.260000	999.594576
48.270000	1074.748441
48.280000	1154.491514
48.290000	1238.009030
48.300000	1324.376481
48.310000	1411.254182
48.320000	1500.595134
48.330000	1589.808855
48.340000	1678.140925
48.350000	1766.022299
48.360000	1856.349078
48.370000	1948.882790
48.380000	2042.543966
48.390000	2126.706148
48.400000	2170.338598
48.410000	2140.847684
48.420000	2038.211834
48.430000	1895.402306
48.440000	1747.413073
48.450000	1599.531081
48.460000	1445.571839
48.470000	1282.657919
48.480000	1112.732760
48.490000	944.458715
48.500000	786.883493
48.510000	658.607747
48.520000	569.665934
48.530000	515.705732
48.540000	480.403858
48.550000	453.475222
48.560000	430.479310
48.570000	416.592485
48.580000	410.190657
48.590000	415.379939
48.600000	432.211866
48.610000	459.819074
48.620000	499.225678
48.630000	544.225628
48.640000	596.247602
48.650000	651.605137
48.660000	712.271936
48.670000	779.636425
48.680000	851.606615
48.690000	926.655682
48.700000	1002.926646
48.710000	1081.001066
48.720000	1160.563473
48.730000	1239.661037
48.740000	1320.530709
48.750000	1403.300595
48.760000	1486.812929
48.770000	1570.593674
48.780000	1647.060386
48.790000	1687.479865
48.800000	1655.604845
48.810000	1542.759178
48.820000	1378.905903
48.830000	1201.375605
48.840000	1025.128793
48.850000	841.911261
48.860000	646.676528
48.870000	441.448743
48.880000	238.902286
48.890000	47.289214
48.900000	-116.199242
48.910000	-238.233068
48.920000	-319.692256
48.930000	-376.816970
48.940000	-426.540246
48.950000	-470.378575
48.960000	-506.064859
48.970000	-529.957052
48.980000	-540.616471
48.990000	-537.225142
49.000000	-521.529992
49.010000	-496.184207
49.020000	-462.461831
49.030000	-419.493105
49.040000	-369.090368
49.050000	-312.824279
49.060000	-255.083191
49.070000	-192.825196
49.080000	-128.113789
49.090000	-60.844178
49.100000	7.827865
49.110000	75.776290
49.120000	146.760868
49.130000	217.686182
49.140000	295.028146
49.150000	375.209516
49.160000	457.945252
49.170000	535.352499
49.180000	581.118651
49.190000	562.116735
49.200000	456.629746
49.210000	289.314418
49.220000	99.821150
49.230000	-87.557910
49.240000	-277.094014
49.250000	-478.139264
49.260000	-690.010309
49.270000	-898.378788
49.280000	-1091.295737
49.290000	-1251.299382
49.300000	-1366.626635
49.310000	-1437.950886
49.320000	-1481.363559
49.330000	-1517.645868
49.340000	-1550.083269
49.350000	-1575.688027
49.360000	-1589.829764
49.370000	-1588.764130
49.380000	-1573.287113
49.390000	-1545.542513
49.400000	-1509.113845
49.410000	-1465.012770
49.420000	-1411.966740
49.430000	-1350.854863
49.440000	-1281.181934
49.450000	-1205.404609
49.460000	-1126.431377
49.470000	-1045.984225
49.480000	-963.039858
49.490000	-878.268513
49.500000	-790.342973
49.510000	-699.925145
49.520000	-606.676979
49.530000	-513.624741
49.540000	-420.034461
49.550000	-325.024476
49.560000	-226.422350
49.570000	-127.473115
49.580000	-50.229320
49.590000	-29.992301
49.600000	-96.054011
49.610000	-234.092657
49.620000	-404.844554
49.630000	-573.573202
49.640000	-738.092315
49.650000	-906.783984
49.660000	-1082.693351
49.670000	-1259.670830
49.680000	-1425.646158
49.690000	-1568.926786
49.700000	-1672.953702
49.710000	-1733.919223
49.720000	-1764.340890
49.730000	-1781.960819
49.740000	-1794.736004
49.750000	-1800.008042
49.760000	-1793.494745
49.770000	-1775.769983
49.780000	-1745.282310
49.790000	-1704.243523
49.800000	-1652.431045
49.810000	-1591.423116
49.820000	-1521.610864
49.830000	-1447.314404
49.840000	-1370.150714
49.850000	-1290.904068
49.860000	-1207.717171
49.870000	-1118.526888
49.880000	-1027.333853
49.890000	-935.174979
49.900000	-844.320502
49.910000	-754.181627
49.920000	-665.009021
49.930000	-573.878937
49.940000	-477.729690
49.950000	-378.288403
49.960000	-278.151554
49.970000	-188.419837
49.980000	-141.664131
49.990000	-171.251666
50.000000	-273.439452
50.010000	-413.696734
50.020000	-554.571009
50.030000	-687.919689
50.040000	-817.432239
50.050000	-947.173970
50.060000	-1076.310086
50.070000	-1198.777076
50.080000	-1299.191960
50.090000	-1362.410225
50.100000	-1386.138273
50.110000	-1386.456064
50.120000	-1383.457579
50.130000	-1380.150005
50.140000	-1375.126181
50.150000	-1361.857683
50.160000	-1336.496321
50.170000	-1296.930672
50.180000	-1246.240950
50.190000	-1188.365928
50.200000	-1125.339930
50.210000	-1056.820571
50.220000	-983.801486
50.230000	-905.294996
50.240000	-822.293347
50.250000	-735.125436
50.260000	-644.811243
50.270000	-551.978565
50.280000	-456.684291
50.290000	-361.528350
50.300000	-265.235986
50.310000	-165.764928
50.320000	-62.814308
50.330000	40.634693
50.340000	137.575254
50.350000	207.309377
50.360000	218.582212
50.370000	157.344769
50.380000	43.329128
50.390000	-85.923360
50.400000	-211.995194
50.410000	-336.598434
50.420000	-466.350925
50.430000	-601.272930
50.440000	-734.705461
50.450000	-853.279084
50.460000	-945.080352
50.470000	-997.967227
50.480000	-1018.187961
50.490000	-1018.354644
50.500000	-1012.313667
50.510000	-1004.396873
50.520000	-989.092849
50.530000	-963.125313
50.540000	-925.892336
50.550000	-879.540475
50.560000	-825.368208
50.570000	-764.968029
50.580000	-697.515223
50.590000	-624.746593
50.600000	-544.327885
50.610000	-459.216034
50.620000	-370.143627
50.630000	-276.691009
50.640000	-178.969033
50.650000	-79.513689
50.660000	22.206775
50.670000	123.982722
50.680000	226.384003
50.690000	328.469267
50.700000	432.899240
50.710000	538.941773
50.720000	644.071996
50.730000	737.387536
50.740000	788.855630
50.750000	772.842623
50.760000	689.708379
50.770000	573.053872
50.780000	451.211994
50.790000	330.537225
50.800000	202.340556
50.810000	66.042912
50.820000	-72.178474
50.830000	-202.105994
50.840000	-316.370560
50.850000	-403.909532
50.860000	-453.225770
50.870000	-472.096531
50.880000	-475.096376
50.890000	-473.938600
50.900000	-467.594445
50.910000	-452.769767
50.920000	-428.761143
50.930000	-394.260310
50.940000	-349.592885
50.950000	-299.088591
50.960000	-241.736213
50.970000	-178.247371
50.980000	-109.538716
50.990000	-35.060246
51.000000	44.330618
51.010000	128.471651
51.020000	215.538742
51.030000	304.349157
51.040000	397.434740
51.050000	490.552884
51.060000	583.687663
51.070000	674.094919
51.080000	764.969850
51.090000	859.985028
51.100000	959.590423
51.110000	1059.877541
51.120000	1157.560879
51.130000	1253.129051
51.140000	1330.167326
51.150000	1357.690068
51.160000	1315.486665
51.170000	1218.364325
51.180000	1099.540717
51.190000	981.694195
51.200000	863.881523
51.210000	741.031425
51.220000	608.576136
51.230000	478.767662
51.240000	358.609527
51.250000	259.202057
51.260000	188.989570
51.270000	150.975829
51.280000	138.698306
51.290000	134.741246
51.300000	134.464228
51.310000	138.543734
51.320000	148.588879
51.330000	166.035612
51.340000	191.735490
51.350000	227.888459
51.360000	273.898718
51.370000	330.770356
51.380000	395.743291
51.390000	463.671076
51.400000	535.296440
51.410000	611.932785
51.420000	695.878735
51.430000	782.535672
51.440000	869.828427
51.450000	958.841376
51.460000	1049.135075
51.470000	1140.509209
51.480000	1231.466623
51.490000	1323.213244
51.500000	1415.489903
51.510000	1510.286181
51.520000	1605.531718
51.530000	1702.397993
51.540000	1799.931276
51.550000	1888.850780
51.560000	1944.318874
51.570000	1934.314851
51.580000	1858.825629
51.590000	1744.884674
51.600000	1627.385647
51.610000	1513.409980
51.620000	1397.276003
51.630000	1273.635103
51.640000	1147.226468
51.650000	1025.901335
51.660000	917.208814
51.670000	834.549827
51.680000	783.536092
51.690000	760.205146
51.700000	750.869909
51.710000	745.904989
51.720000	743.926514
51.730000	748.318189
51.740000	759.341579
51.750000	778.100842
51.760000	804.453789
51.770000	840.590561
51.780000	887.262796
51.790000	936.757862
51.800000	991.132878
51.810000	1049.284128
51.820000	1116.053668
51.830000	1182.139316
51.840000	1250.041365
51.850000	1321.694154
51.860000	1395.386958
51.870000	1478.308039
51.880000	1563.394706
51.890000	1651.979624
51.900000	1737.080931
51.910000	1821.044805
51.920000	1904.797883
51.930000	1987.472992
51.940000	2074.232625
51.950000	2166.926594
51.960000	2258.343597
51.970000	2315.009104
51.980000	2309.839744
51.990000	2227.157124
52.000000	2084.126835
52.010000	1922.072099
52.020000	1761.724497
52.030000	1604.300445
52.040000	1446.008539
52.050000	1296.933525
52.060000	1167.326136
52.070000	1056.235404
52.080000	965.684593
52.090000	900.243421
52.100000	849.701378
52.110000	799.939399
52.120000	750.454022
52.130000	706.349001
52.140000	673.907886
52.150000	657.116692
52.160000	656.716986
52.170000	669.570951
52.180000	688.879660
52.190000	715.409351
52.200000	746.061479
52.210000	782.958245
52.220000	824.930134
52.230000	874.880586
52.240000	930.145468
52.250000	989.167646
52.260000	1052.394355
52.270000	1118.811769
52.280000	1190.679666
52.290000	1264.132852
52.300000	1339.336171
52.310000	1414.474959
52.320000	1491.362094
52.330000	1570.505923
52.340000	1652.413430
52.350000	1736.224851
52.360000	1821.824820
52.370000	1903.953940
52.380000	1958.876021
52.390000	1955.686827
52.400000	1876.987381
52.410000	1742.544425
52.420000	1586.493729
52.430000	1429.386448
52.440000	1270.295689
52.450000	1101.898362
52.460000	923.803665
52.470000	744.454356
52.480000	577.010581
52.490000	432.356242
52.500000	322.572420
52.510000	246.238835
52.520000	192.124587
52.530000	146.130303
52.540000	101.379492
52.550000	62.402147
52.560000	31.309612
52.570000	12.361224
52.580000	6.578315
52.590000	11.992376
52.600000	27.529239
52.610000	50.632030
52.620000	83.171038
52.630000	121.935920
52.640000	165.495390
52.650000	211.915573
52.660000	263.842270
52.670000	321.899094
52.680000	384.191128
52.690000	448.891165
52.700000	513.880351
52.710000	582.238146
52.720000	653.232532
52.730000	726.258363
52.740000	798.918804
52.750000	874.633016
52.760000	953.600809
52.770000	1032.334894
52.780000	1107.286099
52.790000	1158.327459
52.800000	1153.942419
52.810000	1070.342981
52.820000	927.386420
52.830000	764.078306
52.840000	605.792923
52.850000	450.069846
52.860000	289.852188
52.870000	122.070442
52.880000	-46.731325
52.890000	-206.923624
52.900000	-345.308796
52.910000	-450.593970
52.920000	-524.928188
52.930000	-580.631203
52.940000	-632.226535
52.950000	-681.974937
52.960000	-724.177144
52.970000	-749.984752
52.980000	-757.823060
52.990000	-750.683033
53.000000	-733.818377
53.010000	-708.380486
53.020000	-675.825552
53.030000	-637.422357
53.040000	-593.174760
53.050000	-543.478047
53.060000	-487.199748
53.070000	-424.885549
53.080000	-354.231337
53.090000	-280.996851
53.100000	-204.260112
53.110000	-126.132573
53.120000	-42.622094
53.130000	41.022472
53.140000	127.018700
53.150000	211.810047
53.160000	298.659397
53.170000	381.552768
53.180000	449.265862
53.190000	466.208093
53.200000	412.561288
53.210000	287.895085
53.220000	135.287404
53.230000	-21.827912
53.240000	-168.700259
53.250000	-326.005370
53.260000	-487.973009
53.270000	-664.250123
53.280000	-830.511296
53.290000	-992.603817
53.300000	-1115.630964
53.310000	-1208.772405
53.320000	-1261.390580
53.330000	-1311.101770
53.340000	-1344.371812
53.350000	-1388.572779
53.360000	-1407.541676
53.370000	-1433.595512
53.380000	-1422.197923
53.390000	-1257.908955
53.400000	-721.297353
53.410000	-496.702430
53.420000	-384.044839
53.430000	-291.448375
53.440000	-176.846053
53.450000	-74.437847
53.460000	47.165041
53.470000	159.707246
53.480000	272.243210
53.490000	336.659477
53.500000	344.059465
53.510000	275.881752
53.520000	180.021050
53.530000	72.311655
53.540000	-23.366706
53.550000	-130.761148
53.560000	-248.056605
53.570000	-384.904919
53.580000	-522.708845
53.590000	-665.818769
53.600000	-797.677832
53.610000	-922.163361
53.620000	-1036.002241
53.630000	-1156.941186
53.640000	-1292.006473
53.650000	-1433.387958
53.660000	-1559.683490
53.670000	-1663.918215
53.680000	-1738.402807
53.690000	-1788.863309
53.700000	-1798.438460
53.710000	-1772.916022
53.720000	-1727.545875
53.730000	-1672.668041
53.740000	-1600.316139
53.750000	-1500.461186
53.760000	-1368.147448
53.770000	-1232.729318
53.780000	-1108.652193
53.790000	-1013.721354
53.800000	-926.430590
53.810000	-843.144373
53.820000	-770.619702
53.830000	-712.608239
53.840000	-648.792064
53.850000	-596.892864
53.860000	-608.106227
53.870000	-783.698452
53.880000	-1111.279383
53.890000	-1523.190508
53.900000	-1809.122819
53.910000	-1942.566402
53.920000	-1914.287088
53.930000	-1775.690439
53.940000	-1525.023670
53.950000	-1311.614597
53.960000	-1196.904202
53.970000	-1091.844256
53.980000	-1115.408398
53.990000	-1265.995516
54.000000	-1706.551059
54.010000	-2047.647674
54.020000	-2221.110921
54.030000	-2233.828472
54.040000	-2146.152967
54.050000	-1986.307502
54.060000	-1736.120804
54.070000	-1488.812419
54.080000	-1261.265635
54.090000	-1092.097054
54.100000	-1010.437799
54.110000	-1033.402088
54.120000	-1126.855956
54.130000	-1217.987646
54.140000	-1246.361524
54.150000	-1174.690192
54.160000	-1030.097396
54.170000	-878.218550
54.180000	-696.979038
54.190000	-514.939283
54.200000	-321.472977
54.210000	-211.001751
54.220000	-156.352778
54.230000	-139.141467
54.240000	-149.308501
54.250000	-188.700219
54.260000	-280.375432
54.270000	-391.157404
54.280000	-478.469376
54.290000	-519.722256
54.300000	-549.773809
54.310000	-583.284277
54.320000	-633.460156
54.330000	-682.145994
54.340000	-729.248538
54.350000	-797.121710
54.360000	-880.011982
54.370000	-983.514102
54.380000	-1079.067027
54.390000	-1165.032419
54.400000	-1206.081414
54.410000	-1189.330814
54.420000	-1123.205971
54.430000	-1023.367265
54.440000	-909.392672
54.450000	-787.083788
54.460000	-680.346862
54.470000	-601.486058
54.480000	-528.925452
54.490000	-451.968834
54.500000	-387.296360
54.510000	-364.203218
54.520000	-374.280498
54.530000	-376.731927
54.540000	-359.727297
54.550000	-299.611080
54.560000	-204.644500
54.570000	-91.228482
54.580000	-7.364203
54.590000	29.522571
54.600000	13.231590
54.610000	-45.728966
54.620000	-125.523132
54.630000	-206.701832
54.640000	-287.708248
54.650000	-368.058710
54.660000	-448.277007
54.670000	-499.716152
54.680000	-517.959472
54.690000	-503.768107
54.700000	-473.063669
54.710000	-405.767744
54.720000	-365.443948
54.730000	-386.734088
54.740000	-507.880047
54.750000	-667.138200
54.760000	-860.520278
54.770000	-1017.404581
54.780000	-969.604265
54.790000	-823.804081
54.800000	-655.313338
54.810000	-558.299732
54.820000	-441.223127
54.830000	-328.491034
54.840000	-227.797284
54.850000	-127.004553
54.860000	-8.733469
54.870000	88.284983
54.880000	171.080123
54.890000	261.573109
54.900000	316.004599
54.910000	319.231369
54.920000	251.875908
54.930000	140.975830
54.940000	9.361300
54.950000	-119.652485
54.960000	-255.951689
54.970000	-382.246432
54.980000	-496.346169
54.990000	-598.219408
55.000000	-680.426479
55.010000	-728.880044
55.020000	-736.899452
55.030000	-716.631109
55.040000	-692.778698
55.050000	-671.703302
55.060000	-660.029895
55.070000	-645.093455
55.080000	-623.343445
55.090000	-590.852935
55.100000	-549.041744
55.110000	-499.983974
55.120000	-444.773475
55.130000	-386.489617
55.140000	-327.538863
55.150000	-273.372147
55.160000	-222.988073
55.170000	-175.288970
55.180000	-123.455807
55.190000	-66.589303
55.200000	-3.623344
55.210000	67.747161
55.220000	120.428759
55.230000	124.710479
55.240000	57.466647
55.250000	-61.908064
55.260000	-200.489963
55.270000	-340.265561
55.280000	-482.864872
55.290000	-631.658527
55.300000	-780.577550
55.310000	-924.082983
55.320000	-1050.971038
55.330000	-1150.872428
55.340000	-1209.382461
55.350000	-1233.750016
55.360000	-1230.821092
55.370000	-1217.683684
55.380000	-1196.245607
55.390000	-1170.984943
55.400000	-1142.018288
55.410000	-1108.309453
55.420000	-1061.463439
55.430000	-996.669414
55.440000	-912.275791
55.450000	-821.762370
55.460000	-734.100101
55.470000	-657.878184
55.480000	-578.885255
55.490000	-461.290978
55.500000	-327.853904
55.510000	-185.014411
55.520000	-65.249068
55.530000	49.045154
55.540000	151.268536
55.550000	231.742630
55.560000	266.059173
55.570000	234.099167
55.580000	151.930268
55.590000	48.472527
55.600000	-49.890294
55.610000	-155.277437
55.620000	-265.354946
55.630000	-382.724291
55.640000	-496.131091
55.650000	-595.189292
55.660000	-666.246904
55.670000	-700.014453
55.680000	-708.435416
55.690000	-704.857383
55.700000	-703.305897
55.710000	-694.649677
55.720000	-674.869570
55.730000	-640.789619
