Time(s)	GREEN_denoised_wiener
0.000000	259.089697
0.010000	385.019912
0.020000	377.871200
0.030000	375.360782
0.040000	377.323248
0.050000	382.485827
0.060000	386.220185
0.070000	389.079428
0.080000	394.579801
0.090000	403.119219
0.100000	411.384191
0.110000	417.618464
0.120000	411.955022
0.130000	394.600969
0.140000	360.634224
0.150000	317.406509
0.160000	267.088718
0.170000	211.333676
0.180000	154.005862
0.190000	96.711407
0.200000	45.391872
0.210000	1.199800
0.220000	-37.438937
0.230000	-71.185109
0.240000	-100.478094
0.250000	-124.107586
0.260000	-143.065209
0.270000	-160.577924
0.280000	-177.520729
0.290000	-195.926115
0.300000	-209.494512
0.310000	-220.839742
0.320000	-230.670490
0.330000	-240.629834
0.340000	-247.373137
0.350000	-246.624204
0.360000	-243.641942
0.370000	-239.145873
0.380000	-235.120453
0.390000	-227.189434
0.400000	-212.809821
0.410000	-195.789384
0.420000	-178.701202
0.430000	-163.593087
0.440000	-147.450329
0.450000	-129.608014
0.460000	-110.072525
0.470000	-86.821713
0.480000	-59.904537
0.490000	-32.915730
0.500000	-5.262075
0.510000	26.795414
0.520000	64.837865
0.530000	103.283841
0.540000	141.749251
0.550000	175.223616
0.560000	201.465848
0.570000	212.612434
0.580000	210.674265
0.590000	200.808137
0.600000	185.340029
0.610000	167.137328
0.620000	146.798438
0.630000	127.940560
0.640000	112.718787
0.650000	98.530220
0.660000	85.111931
0.670000	72.587513
0.680000	60.303048
0.690000	46.441924
0.700000	23.946952
0.710000	-1.534722
0.720000	-30.959696
0.730000	-61.031900
0.740000	-95.417477
0.750000	-134.384888
0.760000	-174.062160
0.770000	-209.934180
0.780000	-237.905861
0.790000	-261.368361
0.800000	-283.279160
0.810000	-306.332398
0.820000	-327.500447
0.830000	-346.835053
0.840000	-363.917054
0.850000	-380.540183
0.860000	-396.524420
0.870000	-410.772088
0.880000	-423.330672
0.890000	-436.204883
0.900000	-449.660769
0.910000	-460.155609
0.920000	-468.865319
0.930000	-476.633347
0.940000	-485.935372
0.950000	-495.962843
0.960000	-505.865847
0.970000	-513.482357
0.980000	-515.319371
0.990000	-512.206864
1.000000	-508.308247
1.010000	-506.119393
1.020000	-509.827442
1.030000	-524.894165
1.040000	-551.524003
1.050000	-585.180783
1.060000	-620.743548
1.070000	-661.013471
1.080000	-704.141017
1.090000	-747.701657
1.100000	-787.390105
1.110000	-823.592552
1.120000	-853.152320
1.130000	-877.351524
1.140000	-896.433926
1.150000	-912.637903
1.160000	-932.248253
1.170000	-952.086238
1.180000	-972.593473
1.190000	-989.709486
1.200000	-1005.475722
1.210000	-1021.183927
1.220000	-1034.534336
1.230000	-1049.193958
1.240000	-1060.087772
1.250000	-1069.743328
1.260000	-1075.478309
1.270000	-1081.161713
1.280000	-1083.366100
1.290000	-1070.407649
1.300000	-1047.483408
1.310000	-1017.830939
1.320000	-990.465567
1.330000	-967.751182
1.340000	-950.625262
1.350000	-948.876750
1.360000	-949.904026
1.370000	-953.884197
1.380000	-952.672925
1.390000	-955.451755
1.400000	-957.582588
1.410000	-963.555965
1.420000	-964.967932
1.430000	-962.529151
1.440000	-945.832856
1.450000	-919.720499
1.460000	-876.840065
1.470000	-840.170415
1.480000	-801.603303
1.490000	-699.313684
1.500000	-588.194142
1.510000	-481.181545
1.520000	-441.763112
1.530000	-405.202649
1.540000	-360.985880
1.550000	-320.789025
1.560000	-277.995513
1.570000	-242.256639
1.580000	-201.782259
1.590000	-157.260640
1.600000	-103.053186
1.610000	-51.147385
1.620000	-1.123809
1.630000	37.772780
1.640000	69.007825
1.650000	84.495793
1.660000	92.686675
1.670000	97.040795
1.680000	97.859769
1.690000	74.030459
1.700000	51.332360
1.710000	35.469577
1.720000	46.683362
1.730000	57.282754
1.740000	70.291656
1.750000	84.257121
1.760000	104.091476
1.770000	124.043465
1.780000	147.758924
1.790000	215.773503
1.800000	288.382246
1.810000	363.450208
1.820000	399.407954
1.830000	431.181594
1.840000	463.195012
1.850000	488.728041
1.860000	511.523685
1.870000	518.742360
1.880000	516.083899
1.890000	504.591710
1.900000	493.849251
1.910000	480.587970
1.920000	470.488581
1.930000	462.415426
1.940000	461.662675
1.950000	471.087139
1.960000	489.009103
1.970000	506.925413
1.980000	516.207662
1.990000	523.324798
2.000000	540.609136
2.010000	571.219628
2.020000	603.156775
2.030000	621.294157
2.040000	624.932814
2.050000	620.911980
2.060000	619.574878
2.070000	622.696478
2.080000	629.734590
2.090000	636.996803
2.100000	646.100495
2.110000	660.159973
2.120000	680.320179
2.130000	700.830509
2.140000	718.740974
2.150000	729.691034
2.160000	738.046703
2.170000	746.408108
2.180000	763.564594
2.190000	789.630274
2.200000	821.603266
2.210000	858.387429
2.220000	898.504386
2.230000	941.009954
2.240000	985.604913
2.250000	1030.493063
2.260000	1076.912190
2.270000	1118.821648
2.280000	1154.430313
2.290000	1179.676873
2.300000	1194.826891
2.310000	1203.073732
2.320000	1206.755060
2.330000	1203.659042
2.340000	1194.893625
2.350000	1183.785383
2.360000	1176.909700
2.370000	1172.089917
2.380000	1171.139269
2.390000	1171.585509
2.400000	1177.255923
2.410000	1183.260557
2.420000	1188.921148
2.430000	1191.132876
2.440000	1196.149607
2.450000	1199.179304
2.460000	1204.942215
2.470000	1206.064106
2.480000	1214.660175
2.490000	1274.909015
2.500000	1353.704790
2.510000	1440.688865
2.520000	1494.537017
2.530000	1546.875261
2.540000	1606.178688
2.550000	1665.559330
2.560000	1730.394076
2.570000	1791.075759
2.580000	1850.851760
2.590000	1902.771298
2.600000	1951.214471
2.610000	1984.296178
2.620000	2009.504502
2.630000	2025.671476
2.640000	2043.367705
2.650000	2057.544867
2.660000	2071.795679
2.670000	2080.935220
2.680000	2094.806017
2.690000	2142.586446
2.700000	2198.874207
2.710000	2255.158475
2.720000	2283.429887
2.730000	2310.756109
2.740000	2343.803806
2.750000	2376.192106
2.760000	2412.415039
2.770000	2447.141795
2.780000	2485.930069
2.790000	2523.602423
2.800000	2562.673170
2.810000	2598.917991
2.820000	2634.306551
2.830000	2668.099192
2.840000	2704.493021
2.850000	2741.469289
2.860000	2778.890382
2.870000	2818.048776
2.880000	2861.830638
2.890000	2908.152838
2.900000	2951.967327
2.910000	2990.133050
2.920000	3021.312867
2.930000	3040.974682
2.940000	3052.550090
2.950000	3060.354814
2.960000	3068.656161
2.970000	3073.915378
2.980000	3076.975677
2.990000	3082.019375
3.000000	3089.485340
3.010000	3097.650678
3.020000	3106.198235
3.030000	3118.825152
3.040000	3135.766524
3.050000	3152.517581
3.060000	3166.537230
3.070000	3177.746494
3.080000	3189.513136
3.090000	3201.159353
3.100000	3211.682513
3.110000	3222.104756
3.120000	3234.046447
3.130000	3248.908382
3.140000	3266.597664
3.150000	3288.573528
3.160000	3311.659257
3.170000	3335.100935
3.180000	3358.911038
3.190000	3384.486017
3.200000	3410.675468
3.210000	3436.055741
3.220000	3462.299520
3.230000	3488.802702
3.240000	3516.777738
3.250000	3544.055213
3.260000	3572.447371
3.270000	3602.817885
3.280000	3633.287835
3.290000	3664.765483
3.300000	3695.965096
3.310000	3732.239669
3.320000	3769.456833
3.330000	3804.890394
3.340000	3835.118129
3.350000	3857.714098
3.360000	3870.950330
3.370000	3870.698921
3.380000	3858.965789
3.390000	3838.851837
3.400000	3811.138614
3.410000	3777.837159
3.420000	3739.802562
3.430000	3705.001557
3.440000	3669.592176
3.450000	3638.346247
3.460000	3608.516279
3.470000	3586.202197
3.480000	3567.230924
3.490000	3552.556092
3.500000	3538.080647
3.510000	3526.409075
3.520000	3511.051111
3.530000	3498.441630
3.540000	3480.123076
3.550000	3465.998659
3.560000	3446.948456
3.570000	3434.081845
3.580000	3418.855365
3.590000	3349.513407
3.600000	3283.193284
3.610000	3227.271738
3.620000	3235.453377
3.630000	3251.186979
3.640000	3264.632955
3.650000	3280.598399
3.660000	3289.226285
3.670000	3297.842431
3.680000	3297.558534
3.690000	3289.896524
3.700000	3270.320277
3.710000	3248.099309
3.720000	3220.156835
3.730000	3192.433520
3.740000	3162.073808
3.750000	3136.231022
3.760000	3113.400675
3.770000	3098.143377
3.780000	3087.469501
3.790000	3082.494183
3.800000	3080.285517
3.810000	3080.942730
3.820000	3082.516411
3.830000	3083.477340
3.840000	3083.834158
3.850000	3083.425144
3.860000	3084.570062
3.870000	3089.782482
3.880000	3098.370472
3.890000	3116.563096
3.900000	3140.879415
3.910000	3172.088167
3.920000	3202.428615
3.930000	3234.703481
3.940000	3267.357934
3.950000	3301.047792
3.960000	3332.998241
3.970000	3363.451597
3.980000	3387.673530
3.990000	3405.246667
4.000000	3410.377531
4.010000	3407.778116
4.020000	3394.097604
4.030000	3375.036648
4.040000	3350.835553
4.050000	3330.683261
4.060000	3313.907196
4.070000	3302.695766
4.080000	3293.317846
4.090000	3260.334461
4.100000	3240.916799
4.110000	3238.895093
4.120000	3278.248421
4.130000	3318.285897
4.140000	3356.356091
4.150000	3398.703128
4.160000	3445.446003
4.170000	3495.446352
4.180000	3545.523445
4.190000	3587.833582
4.200000	3621.607448
4.210000	3638.517478
4.220000	3638.695719
4.230000	3612.485774
4.240000	3549.423283
4.250000	3429.065045
4.260000	3231.119832
4.270000	2919.232258
4.280000	2418.004683
4.290000	1681.773459
4.300000	758.513056
4.310000	-285.931320
4.320000	-1360.131448
4.330000	-2314.700012
4.340000	-3122.158059
4.350000	-3767.612347
4.360000	-4302.212681
4.370000	-4735.477287
4.380000	-5032.883147
4.390000	-5118.969763
4.400000	-4955.732935
4.410000	-4581.083631
4.420000	-3923.698664
4.430000	-3004.346023
4.440000	-1892.420593
4.450000	-1076.414383
4.460000	-641.547146
4.470000	-691.922112
4.480000	-1011.948374
4.490000	-1518.564046
4.500000	-2139.819936
4.510000	-2946.039493
4.520000	-3828.645814
4.530000	-4652.223150
4.540000	-5335.070710
4.550000	-6045.882224
4.560000	-6590.623210
4.570000	-6826.475307
4.580000	-6535.766231
4.590000	-5788.683214
4.600000	-2863.127121
4.610000	-1907.787320
4.620000	-1202.416740
4.630000	-711.460212
4.640000	-257.088882
4.650000	3.465369
4.660000	163.777336
4.670000	86.603921
4.680000	-69.700207
4.690000	-385.070222
4.700000	-748.146463
4.710000	-1113.421925
4.720000	-1344.174783
4.730000	-1471.068519
4.740000	-1516.351034
4.750000	-1502.890411
4.760000	-1402.563369
4.770000	-1275.800857
4.780000	-1190.644462
4.790000	-1263.026541
4.800000	-1543.732832
4.810000	-2160.986951
4.820000	-3109.490588
4.830000	-4434.316389
4.840000	-5453.343026
4.850000	-6010.633477
4.860000	-6079.670669
4.870000	-5842.352632
4.880000	-5461.150676
4.890000	-5556.203503
4.900000	-5878.119423
4.910000	-6409.236716
4.920000	-6563.742450
4.930000	-6571.393534
4.940000	-6450.002397
4.950000	-6207.410765
4.960000	-5935.382688
4.970000	-5721.976334
4.980000	-5522.960122
4.990000	-4942.343139
5.000000	-3903.492382
5.010000	-3286.173360
5.020000	-3055.405337
5.030000	-2966.457621
5.040000	-2911.491732
5.050000	-2964.815534
5.060000	-2989.239019
5.070000	-3053.649638
5.080000	-3092.529045
5.090000	-3211.534141
5.100000	-3346.267262
5.110000	-3542.304272
5.120000	-3661.084947
5.130000	-3792.622354
5.140000	-3829.615775
5.150000	-3916.555313
5.160000	-3895.574350
5.170000	-3854.756839
5.180000	-3513.113779
5.190000	-3034.108433
5.200000	-2451.895516
5.210000	-2263.329759
5.220000	-2385.685691
5.230000	-2910.966014
5.240000	-3440.731901
5.250000	-4297.395054
5.260000	-5590.796978
5.270000	-6878.033228
5.280000	-7694.827271
5.290000	-7947.412302
5.300000	-782.624668
5.310000	-619.954486
5.320000	-631.972213
5.330000	-915.195494
5.340000	-1045.778307
5.350000	-1404.930840
5.360000	-1689.321883
5.370000	-2271.474526
5.380000	-2884.729704
5.390000	-3736.608130
5.400000	-4417.063271
5.410000	-5021.085171
5.420000	-5269.326025
5.430000	-5429.021771
5.440000	-5380.151102
5.450000	-5330.151310
5.460000	-5117.256580
5.470000	-4903.799652
5.480000	-4549.159444
5.490000	-3865.601885
5.500000	-3003.462967
5.510000	-2354.281806
5.520000	-2084.053328
5.530000	-1935.839291
5.540000	-1797.250588
5.550000	-1749.563241
5.560000	-1634.090643
5.570000	-1542.276710
5.580000	-1406.129281
5.590000	-1327.426910
5.600000	-1233.660280
5.610000	-1208.644797
5.620000	-1185.416079
5.630000	-1234.546622
5.640000	-1286.761206
5.650000	-1384.729919
5.660000	-1453.758557
5.670000	-1505.792978
5.680000	-1440.757245
5.690000	-1306.237824
5.700000	-1096.920725
5.710000	-948.045988
5.720000	-848.660466
5.730000	-839.307225
5.740000	-783.225365
5.750000	-697.303104
5.760000	-567.017114
5.770000	-576.157276
5.780000	-650.748318
5.790000	-198.903537
5.800000	502.830592
5.810000	1054.558974
5.820000	1126.205025
5.830000	1040.694951
5.840000	954.148076
5.850000	817.282680
5.860000	724.835426
5.870000	597.407043
5.880000	474.864761
5.890000	238.442944
5.900000	-91.042477
5.910000	-477.800481
5.920000	-763.935315
5.930000	-931.416207
5.940000	-1000.588886
5.950000	-1052.855466
5.960000	-1085.333970
5.970000	-1148.431252
5.980000	-1233.240131
5.990000	-1354.061921
6.000000	-1468.315005
6.010000	-1574.464072
6.020000	-1655.339477
6.030000	-1702.215736
6.040000	-1708.362856
6.050000	-1684.007831
6.060000	-1634.701000
6.070000	-1557.103529
6.080000	-1455.053940
6.090000	-1369.296061
6.100000	-1310.319635
6.110000	-1259.070334
6.120000	-1193.908141
6.130000	-1120.917688
6.140000	-1071.897884
6.150000	-1034.307540
6.160000	-1008.253645
6.170000	-988.347232
6.180000	-981.976418
6.190000	-1091.981321
6.200000	-1207.444625
6.210000	-1307.528986
6.220000	-1304.395263
6.230000	-1273.191048
6.240000	-1250.908120
6.250000	-1205.664560
6.260000	-1175.279962
6.270000	-1143.323533
6.280000	-1123.402345
6.290000	-1116.616432
6.300000	-1126.867600
6.310000	-1141.532676
6.320000	-1155.021117
6.330000	-1168.135637
6.340000	-1189.532230
6.350000	-1212.365575
6.360000	-1236.063647
6.370000	-1263.608529
6.380000	-1291.580908
6.390000	-1306.828341
6.400000	-1303.120931
6.410000	-1283.744853
6.420000	-1269.045178
6.430000	-1264.625045
6.440000	-1264.608859
6.450000	-1257.159943
6.460000	-1247.557403
6.470000	-1233.679135
6.480000	-1221.532991
6.490000	-1217.871838
6.500000	-1225.168368
6.510000	-1246.069969
6.520000	-1275.119829
6.530000	-1315.630584
6.540000	-1362.052058
6.550000	-1405.854833
6.560000	-1450.355338
6.570000	-1496.076612
6.580000	-1534.305131
6.590000	-1563.657077
6.600000	-1577.245024
6.610000	-1585.289732
6.620000	-1586.491786
6.630000	-1581.599822
6.640000	-1592.134031
6.650000	-1610.501663
6.660000	-1645.158670
6.670000	-1663.295073
6.680000	-1681.323328
6.690000	-1695.370832
6.700000	-1714.193964
6.710000	-1726.395751
6.720000	-1727.421113
6.730000	-1741.169739
6.740000	-1758.896036
6.750000	-1781.641221
6.760000	-1788.982451
6.770000	-1788.860873
6.780000	-1786.063612
6.790000	-1784.080167
6.800000	-1785.812821
6.810000	-1771.239268
6.820000	-1737.277760
6.830000	-1697.780501
6.840000	-1676.104171
6.850000	-1668.916864
6.860000	-1652.208607
6.870000	-1619.435731
6.880000	-1572.670940
6.890000	-1528.662159
6.900000	-1484.412645
6.910000	-1456.609257
6.920000	-1440.428205
6.930000	-1442.921558
6.940000	-1441.360865
6.950000	-1441.978599
6.960000	-1434.579893
6.970000	-1425.077649
6.980000	-1403.419113
6.990000	-1367.863169
7.000000	-1317.925012
7.010000	-1257.991545
7.020000	-1208.470629
7.030000	-1164.378794
7.040000	-1140.398426
7.050000	-1118.002545
7.060000	-1096.368774
7.070000	-1072.614094
7.080000	-1039.319646
7.090000	-1009.942148
7.100000	-967.846551
7.110000	-928.015231
7.120000	-882.300953
7.130000	-850.154632
7.140000	-833.697765
7.150000	-825.590871
7.160000	-797.024575
7.170000	-760.127990
7.180000	-709.624820
7.190000	-589.178906
7.200000	-474.909024
7.210000	-388.399654
7.220000	-385.606696
7.230000	-393.250626
7.240000	-383.413580
7.250000	-379.225869
7.260000	-355.738582
7.270000	-344.673036
7.280000	-323.229545
7.290000	-234.675477
7.300000	-130.331857
7.310000	-38.261371
7.320000	-6.803288
7.330000	19.792439
7.340000	61.314232
7.350000	97.090082
7.360000	134.196835
7.370000	160.023094
7.380000	180.152763
7.390000	192.291723
7.400000	205.831947
7.410000	216.882267
7.420000	229.558757
7.430000	240.812665
7.440000	262.687118
7.450000	277.355021
7.460000	294.251586
7.470000	303.205317
7.480000	307.883079
7.490000	294.704484
7.500000	259.904998
7.510000	226.307362
7.520000	195.900937
7.530000	169.271509
7.540000	138.572723
7.550000	105.628439
7.560000	80.300022
7.570000	59.316618
7.580000	47.082932
7.590000	41.020693
7.600000	40.239432
7.610000	44.763445
7.620000	41.730581
7.630000	36.259503
7.640000	29.247934
7.650000	26.139722
7.660000	21.775049
7.670000	7.382784
7.680000	-8.276379
7.690000	-22.684117
7.700000	-30.946892
7.710000	-37.735689
7.720000	-42.895340
7.730000	-47.080129
7.740000	-50.465910
7.750000	-47.364690
7.760000	-55.055242
7.770000	-62.860940
7.780000	-77.981597
7.790000	-142.406789
7.800000	-226.665182
7.810000	-329.650166
7.820000	-398.826589
7.830000	-460.394990
7.840000	-519.548273
7.850000	-580.420995
7.860000	-655.576641
7.870000	-730.656030
7.880000	-792.891791
7.890000	-843.879023
7.900000	-884.820470
7.910000	-913.038722
7.920000	-925.695489
7.930000	-925.827418
7.940000	-926.878026
7.950000	-923.509533
7.960000	-917.691700
7.970000	-917.819752
7.980000	-934.120244
7.990000	-975.736215
8.000000	-1021.741459
8.010000	-1075.661127
8.020000	-1104.202203
8.030000	-1120.988240
8.040000	-1116.873098
8.050000	-1211.942327
8.060000	-1479.353130
8.070000	-1934.007100
8.080000	-2458.406191
8.090000	-3018.236328
8.100000	-3615.494262
8.110000	-4327.607290
8.120000	-5222.668927
8.130000	-5870.290778
8.140000	-5709.582231
8.150000	-4619.737951
8.160000	-3647.515007
8.170000	-3118.729563
8.180000	-3044.618204
8.190000	-3128.505449
8.200000	-3340.380709
8.210000	-3580.348637
8.220000	-3713.304755
8.230000	-3823.384541
8.240000	-3953.705655
8.250000	-3884.620520
8.260000	-3316.486945
8.270000	-2246.324363
8.280000	-1390.444325
8.290000	-893.214431
8.300000	-667.826023
8.310000	-592.244744
8.320000	-644.061764
8.330000	-817.901060
8.340000	-1056.399409
8.350000	-1305.476551
8.360000	-1557.105830
8.370000	-1818.334516
8.380000	-2062.292278
8.390000	-2240.705650
8.400000	-2388.611590
8.410000	-2534.628613
8.420000	-2648.336939
8.430000	-2705.134461
8.440000	-2714.722112
8.450000	-2789.152386
8.460000	-2931.036324
8.470000	-3087.245496
8.480000	-3199.229222
8.490000	-3221.934541
8.500000	-3185.185231
8.510000	-3087.761020
8.520000	-2966.801188
8.530000	-2787.275741
8.540000	-2589.174839
8.550000	-2416.351217
8.560000	-2346.189214
8.570000	-2365.725639
8.580000	-2443.030372
8.590000	-2723.798569
8.600000	-2938.272859
8.610000	-3260.965858
8.620000	-3771.794725
8.630000	-4780.819580
8.640000	-5823.836440
8.650000	-5915.530566
8.660000	-4615.597562
8.670000	-3702.000745
8.680000	-3142.236088
8.690000	-2778.459428
8.700000	-2472.453388
8.710000	-2329.777869
8.720000	-2415.079992
8.730000	-2655.906212
8.740000	-2887.303771
8.750000	-3068.892691
8.760000	-3172.073966
8.770000	-3228.222671
8.780000	-3239.941950
8.790000	-3212.735448
8.800000	-3169.029239
8.810000	-3129.413984
8.820000	-3132.668572
8.830000	-3166.452142
8.840000	-3184.379008
8.850000	-3133.969401
8.860000	-2824.871149
8.870000	-2268.198241
8.880000	-1613.566441
8.890000	-1110.856368
8.900000	-823.233950
8.910000	-648.209017
8.920000	-583.323504
8.930000	-584.926943
8.940000	-605.879671
8.950000	-522.575488
8.960000	-304.162339
8.970000	73.621687
8.980000	798.342460
8.990000	2257.992163
9.000000	3199.354399
9.010000	3559.532476
9.020000	3311.802877
9.030000	2938.486310
9.040000	2649.047929
9.050000	2676.051736
9.060000	2950.682172
9.070000	3593.690225
9.080000	4441.561427
9.090000	5307.192084
9.100000	5855.239833
9.110000	6021.370538
9.120000	5993.979650
9.130000	5893.928138
9.140000	5839.612593
9.150000	5877.523360
9.160000	5930.476160
9.170000	5910.661521
9.180000	5779.716101
9.190000	5628.062377
9.200000	5443.919348
9.210000	5248.800365
9.220000	4921.644994
9.230000	4546.684459
9.240000	4129.070601
9.250000	3823.564831
9.260000	3566.483107
9.270000	3344.505226
9.280000	2891.457620
9.290000	2072.989026
9.300000	126.991516
9.310000	-239.511653
9.320000	-299.487725
9.330000	-390.886449
9.340000	-622.530578
9.350000	-838.601419
9.360000	-1103.243216
9.370000	-1262.448130
9.380000	-1401.007914
9.390000	-1472.997255
9.400000	-1552.495572
9.410000	-1632.716211
9.420000	-1790.269455
9.430000	-2111.851931
9.440000	-2561.427185
9.450000	-2920.205182
9.460000	-3063.227298
9.470000	-2955.187846
9.480000	-2762.630134
9.490000	-2563.306775
9.500000	-2453.128095
9.510000	-2401.455150
9.520000	-2390.369773
9.530000	-2381.588104
9.540000	-2388.458834
9.550000	-2411.723710
9.560000	-2480.661913
9.570000	-2609.852925
9.580000	-2768.104921
9.590000	-2893.261048
9.600000	-2994.773530
9.610000	-3095.065331
9.620000	-3228.500399
9.630000	-3381.428111
9.640000	-3590.721296
9.650000	-3898.826332
9.660000	-4338.266588
9.670000	-4919.513794
9.680000	-5592.660653
9.690000	-5939.201589
9.700000	-5655.046427
9.710000	-4929.921189
9.720000	-4241.897674
9.730000	-3899.847550
9.740000	-3743.797296
9.750000	-3676.279600
9.760000	-3746.431478
9.770000	-3914.798094
9.780000	-4088.914342
9.790000	-4190.347226
9.800000	-4272.081382
9.810000	-4419.305807
9.820000	-4628.657280
9.830000	-4839.089080
9.840000	-5005.591372
9.850000	-5013.994208
9.860000	-4696.019624
9.870000	-4181.023849
9.880000	-3518.198975
9.890000	-2724.600709
9.900000	-1907.258446
9.910000	-1255.701324
9.920000	-1094.984792
9.930000	-1534.835962
9.940000	-2339.484344
9.950000	-3055.856488
9.960000	-3393.458275
9.970000	-3439.391694
9.980000	-3420.193689
9.990000	-3339.925837
10.000000	-3208.552662
10.010000	-3044.421024
10.020000	-2920.664118
10.030000	-2895.140233
10.040000	-2923.758822
10.050000	-2820.396526
10.060000	-2479.666372
10.070000	-2022.195241
10.080000	-1651.721063
10.090000	-1407.458146
10.100000	-1261.170412
10.110000	-1163.573661
10.120000	-1110.985927
10.130000	-967.230005
10.140000	-707.342116
10.150000	-339.543186
10.160000	77.266340
10.170000	488.261536
10.180000	1143.488392
10.190000	2058.866899
10.200000	3166.813346
10.210000	3938.524650
10.220000	4452.849126
10.230000	4935.407437
10.240000	5397.053595
10.250000	5738.784581
10.260000	5925.231671
10.270000	5989.484626
10.280000	6003.654473
10.290000	5998.210489
10.300000	5991.185911
10.310000	5959.635827
10.320000	5877.523409
10.330000	5750.966524
10.340000	5612.419406
10.350000	5492.781532
10.360000	5406.427646
10.370000	5346.030240
10.380000	5304.933349
10.390000	5265.413115
10.400000	5228.323555
10.410000	5198.977258
10.420000	5192.578797
10.430000	5201.652453
10.440000	5202.966223
10.450000	5171.834530
10.460000	5112.278750
10.470000	5054.269485
10.480000	5014.739058
10.490000	4992.506901
10.500000	4972.348257
10.510000	4949.629427
10.520000	4916.473092
10.530000	4882.660159
10.540000	4853.447003
10.550000	4837.897951
10.560000	4840.606974
10.570000	4858.314215
10.580000	4880.615706
10.590000	4896.264861
10.600000	4899.845430
10.610000	4893.108420
10.620000	4876.947580
10.630000	4855.503868
10.640000	4828.582284
10.650000	4802.128775
10.660000	4767.390641
10.670000	4735.690914
10.680000	4707.385675
10.690000	4704.530794
10.700000	4720.187192
10.710000	4752.605664
10.720000	4770.797055
10.730000	4775.992243
10.740000	4747.571313
10.750000	4709.058975
10.760000	4646.803505
10.770000	4589.804000
10.780000	4516.124693
10.790000	4317.876220
10.800000	4111.292410
10.810000	3919.925834
10.820000	3863.289940
10.830000	3828.236946
10.840000	3810.487920
10.850000	3836.200645
10.860000	3879.780280
10.870000	3934.119153
10.880000	3956.880731
10.890000	3957.418607
10.900000	3932.519745
10.910000	3898.345097
10.920000	3855.691103
10.930000	3820.889494
10.940000	3789.380992
10.950000	3758.682819
10.960000	3721.969468
10.970000	3701.801301
10.980000	3703.087821
10.990000	3717.127978
11.000000	3716.066338
11.010000	3695.766413
11.020000	3660.314537
11.030000	3619.334282
11.040000	3575.123945
11.050000	3535.499047
11.060000	3499.491363
11.070000	3462.235615
11.080000	3415.432203
11.090000	3364.593297
11.100000	3319.635289
11.110000	3286.523895
11.120000	3261.395408
11.130000	3242.043317
11.140000	3229.081098
11.150000	3226.824266
11.160000	3227.986463
11.170000	3230.538019
11.180000	3228.466061
11.190000	3227.870334
11.200000	3218.486106
11.210000	3204.494466
11.220000	3189.757474
11.230000	3193.078541
11.240000	3229.270140
11.250000	3291.522153
11.260000	3356.991005
11.270000	3403.219021
11.280000	3427.016929
11.290000	3440.877682
11.300000	3448.270018
11.310000	3450.783007
11.320000	3443.089124
11.330000	3428.964850
11.340000	3402.131937
11.350000	3378.792885
11.360000	3354.702806
11.370000	3351.609607
11.380000	3346.400818
11.390000	3270.217410
11.400000	3175.013731
11.410000	3082.324404
11.420000	3057.328902
11.430000	3040.002859
11.440000	3010.335588
11.450000	2976.005227
11.460000	2926.539853
11.470000	2873.648829
11.480000	2817.960189
11.490000	2773.909706
11.500000	2744.260642
11.510000	2739.102356
11.520000	2751.759492
11.530000	2770.859321
11.540000	2767.787628
11.550000	2741.601668
11.560000	2700.416074
11.570000	2653.254651
11.580000	2601.263714
11.590000	2547.486344
11.600000	2489.669628
11.610000	2418.270139
11.620000	2333.339980
11.630000	2254.678862
11.640000	2198.570624
11.650000	2160.265675
11.660000	2128.351390
11.670000	2093.425650
11.680000	2055.391223
11.690000	2009.137888
11.700000	1951.000232
11.710000	1877.749031
11.720000	1800.545624
11.730000	1727.247095
11.740000	1663.647140
11.750000	1608.620396
11.760000	1558.635393
11.770000	1516.236158
11.780000	1480.839919
11.790000	1459.764221
11.800000	1455.587763
11.810000	1460.820019
11.820000	1460.870544
11.830000	1451.457608
11.840000	1436.060481
11.850000	1414.971301
11.860000	1382.116805
11.870000	1342.398009
11.880000	1299.384672
11.890000	1278.097818
11.900000	1276.457932
11.910000	1293.679977
11.920000	1296.987747
11.930000	1268.847375
11.940000	1223.480433
11.950000	1168.537981
11.960000	1115.189633
11.970000	1056.050061
11.980000	995.469081
11.990000	942.110915
12.000000	890.579068
12.010000	844.397655
12.020000	809.562782
12.030000	792.885787
12.040000	789.713039
12.050000	786.212280
12.060000	777.416749
12.070000	763.079702
12.080000	745.320446
12.090000	726.473389
12.100000	710.419580
12.110000	694.706378
12.120000	673.364591
12.130000	647.814033
12.140000	629.523737
12.150000	621.082656
12.160000	615.507439
12.170000	611.215777
12.180000	611.686853
12.190000	616.853110
12.200000	616.350746
12.210000	608.358802
12.220000	593.531799
12.230000	562.345691
12.240000	515.248184
12.250000	465.207033
12.260000	422.128341
12.270000	385.209924
12.280000	352.508437
12.290000	335.417962
12.300000	354.414095
12.310000	411.741985
12.320000	497.451081
12.330000	583.847531
12.340000	657.355862
12.350000	724.502733
12.360000	788.411163
12.370000	850.645607
12.380000	911.954923
12.390000	982.637486
12.400000	1059.616795
12.410000	1128.752555
12.420000	1188.465470
12.430000	1246.377251
12.440000	1322.832156
12.450000	1408.401946
12.460000	1492.342362
12.470000	1556.218006
12.480000	1575.647405
12.490000	1540.215599
12.500000	1429.399854
12.510000	1179.568608
12.520000	736.651022
12.530000	116.584996
12.540000	-571.371780
12.550000	-1170.800742
12.560000	-1585.760386
12.570000	-1804.284865
12.580000	-1898.916875
12.590000	-1959.353236
12.600000	-2016.115983
12.610000	-2056.843641
12.620000	-2110.636777
12.630000	-2204.537510
12.640000	-2313.892669
12.650000	-2344.919879
12.660000	-2248.818414
12.670000	-2065.426599
12.680000	-1831.952407
12.690000	-1543.033099
12.700000	-1221.715684
12.710000	-914.590054
12.720000	-668.032028
12.730000	-444.137038
12.740000	-229.972989
12.750000	-90.455041
12.760000	-82.784477
12.770000	-229.236671
12.780000	-450.878716
12.790000	-699.999287
12.800000	-947.587386
12.810000	-1183.377624
12.820000	-1435.299693
12.830000	-1682.187671
12.840000	-1875.170275
12.850000	-1993.644201
12.860000	-2079.449000
12.870000	-2215.785424
12.880000	-2406.080820
12.890000	-2591.662710
12.900000	-2702.255140
12.910000	-2699.536529
12.920000	-2608.847462
12.930000	-2457.326132
12.940000	-2266.001534
12.950000	-2038.982124
12.960000	-1819.176019
12.970000	-1663.591661
12.980000	-1598.849483
12.990000	-1566.551074
13.000000	-1526.490570
13.010000	-1440.100235
13.020000	-1342.252862
13.030000	-1241.163246
13.040000	-1162.651476
13.050000	-1088.026191
13.060000	-1018.695029
13.070000	-984.558003
13.080000	-958.841065
13.090000	-947.772795
13.100000	-969.947589
13.110000	-1136.168217
13.120000	-1378.157137
13.130000	-1589.053384
13.140000	-1758.227536
13.150000	-1930.688729
13.160000	-1974.075614
13.170000	-1757.594018
13.180000	-1316.312339
13.190000	-874.954079
13.200000	-539.490872
13.210000	-281.212954
13.220000	-82.636384
13.230000	105.344796
13.240000	269.108175
13.250000	434.739888
13.260000	619.556181
13.270000	874.286872
13.280000	1343.320796
13.290000	1975.689237
13.300000	2601.817503
13.310000	3010.701562
13.320000	3192.924180
13.330000	3253.751038
13.340000	3194.466616
13.350000	3001.814425
13.360000	2665.403249
13.370000	2194.316754
13.380000	1478.062685
13.390000	594.407780
13.400000	-139.964131
13.410000	-522.358051
13.420000	-632.109884
13.430000	-692.451191
13.440000	-745.044610
13.450000	-725.541758
13.460000	-658.847328
13.470000	-566.580406
13.480000	-467.600487
13.490000	-354.505858
13.500000	-250.731516
13.510000	-162.344354
13.520000	-114.543409
13.530000	-113.426271
13.540000	-186.377220
13.550000	-332.394575
13.560000	-539.813660
13.570000	-777.943435
13.580000	-1047.971365
13.590000	-1349.121502
13.600000	-1641.323296
13.610000	-1880.257597
13.620000	-2124.595332
13.630000	-2460.440469
13.640000	-2685.714800
13.650000	-2289.748886
13.660000	-1277.597907
13.670000	-378.540564
13.680000	81.770590
13.690000	185.960081
13.700000	306.919327
13.710000	417.383779
13.720000	396.499008
13.730000	256.526969
13.740000	11.436470
13.750000	-243.754930
13.760000	-498.840828
13.770000	-697.893861
13.780000	-902.424073
13.790000	-1102.821637
13.800000	-1373.556544
13.810000	-1580.161288
13.820000	-1756.136858
13.830000	-1780.062699
13.840000	-1760.002148
13.850000	-1688.301706
13.860000	-1674.177913
13.870000	-1633.666995
13.880000	-1646.126492
13.890000	-2146.014486
13.900000	-2960.378263
13.910000	-3558.221093
13.920000	-3721.403089
13.930000	-3543.228530
13.940000	-2896.252718
13.950000	-1736.484078
13.960000	-1078.378749
13.970000	-798.309547
13.980000	-739.374523
13.990000	-624.591658
14.000000	-639.305039
14.010000	-772.667042
14.020000	-1065.710706
14.030000	-1300.363953
14.040000	-1476.715934
14.050000	-1516.847485
14.060000	-1529.568741
14.070000	-1410.748031
14.080000	-1283.381064
14.090000	-1496.271613
14.100000	-1798.549642
14.110000	-2095.895603
14.120000	-2041.361905
14.130000	-1958.031199
14.140000	-1918.825492
14.150000	-1850.437321
14.160000	-1839.734905
14.170000	-1828.785349
14.180000	-1886.332235
14.190000	-1932.398595
14.200000	-2039.355378
14.210000	-2150.999757
14.220000	-2240.132901
14.230000	-2287.965719
14.240000	-2330.402649
14.250000	-2348.790799
14.260000	-2353.762069
14.270000	-2336.906413
14.280000	-2337.930060
14.290000	-2350.572423
14.300000	-2374.791997
14.310000	-2370.472099
14.320000	-2337.440903
14.330000	-2286.746690
14.340000	-2246.146626
14.350000	-2194.230642
14.360000	-2128.582383
14.370000	-2052.073769
14.380000	-1975.718588
14.390000	-1886.194898
14.400000	-1782.901317
14.410000	-1664.993677
14.420000	-1531.094285
14.430000	-1372.450613
14.440000	-1204.699350
14.450000	-1046.260327
14.460000	-916.318329
14.470000	-802.662295
14.480000	-704.313311
14.490000	-620.409732
14.500000	-562.019526
14.510000	-513.428729
14.520000	-461.745257
14.530000	-397.468784
14.540000	-320.174297
14.550000	-242.890811
14.560000	-172.598378
14.570000	-118.998601
14.580000	-77.996150
14.590000	-44.448397
14.600000	-18.419736
14.610000	-11.942538
14.620000	-33.845960
14.630000	-86.764396
14.640000	-149.551561
14.650000	-201.599051
14.660000	-232.964404
14.670000	-249.822548
14.680000	-261.396819
14.690000	-272.712337
14.700000	-286.834965
14.710000	-303.938582
14.720000	-320.941855
14.730000	-334.508429
14.740000	-346.072765
14.750000	-356.086439
14.760000	-362.875311
14.770000	-370.022974
14.780000	-374.002351
14.790000	-379.659803
14.800000	-380.441978
14.810000	-384.012844
14.820000	-384.521581
14.830000	-386.070244
14.840000	-383.252016
14.850000	-384.843473
14.860000	-379.604267
14.870000	-379.691011
14.880000	-381.924361
14.890000	-356.809482
14.900000	-316.368272
14.910000	-268.259000
14.920000	-236.199231
14.930000	-219.317159
14.940000	-187.960557
14.950000	-173.886635
14.960000	-147.562765
14.970000	-138.961999
14.980000	-122.020078
14.990000	-1.857270
15.000000	129.667573
15.010000	251.433038
15.020000	268.811396
15.030000	270.551836
15.040000	277.761034
15.050000	280.243027
15.060000	296.113565
15.070000	317.187208
15.080000	340.138101
15.090000	364.130312
15.100000	387.820082
15.110000	412.740246
15.120000	434.143832
15.130000	446.340021
15.140000	455.826909
15.150000	463.583900
15.160000	477.855945
15.170000	489.773517
15.180000	504.248981
15.190000	516.596319
15.200000	537.677667
15.210000	555.683191
15.220000	577.484061
15.230000	592.715845
15.240000	609.668194
15.250000	622.369213
15.260000	634.873127
15.270000	633.299959
15.280000	622.790306
15.290000	610.563118
15.300000	608.380028
15.310000	616.454651
15.320000	631.954830
15.330000	654.680206
15.340000	676.167077
15.350000	690.573111
15.360000	700.395718
15.370000	709.797412
15.380000	723.953961
15.390000	739.993087
15.400000	756.175447
15.410000	770.849116
15.420000	786.401455
15.430000	805.031362
15.440000	825.945948
15.450000	847.538038
15.460000	867.816012
15.470000	883.033140
15.480000	894.025190
15.490000	902.858093
15.500000	912.563430
15.510000	920.660916
15.520000	927.769785
15.530000	933.119444
15.540000	940.982763
15.550000	949.888208
15.560000	961.196103
15.570000	972.639491
15.580000	984.074314
15.590000	995.048855
15.600000	1003.941449
15.610000	1014.464882
15.620000	1027.459241
15.630000	1040.530434
15.640000	1042.611474
15.650000	1046.319145
15.660000	1051.386272
15.670000	1067.793790
15.680000	1087.769927
15.690000	1106.266689
15.700000	1121.152180
15.710000	1119.700888
15.720000	1110.249145
15.730000	1091.097516
15.740000	1075.042371
15.750000	1063.452319
15.760000	1059.830798
15.770000	1057.769002
15.780000	1060.300692
15.790000	1083.777550
15.800000	1112.002891
15.810000	1137.798978
15.820000	1144.667332
15.830000	1147.226776
15.840000	1153.300398
15.850000	1158.608336
15.860000	1166.273841
15.870000	1172.290054
15.880000	1181.591275
15.890000	1215.669701
15.900000	1249.767141
15.910000	1273.407039
15.920000	1268.908011
15.930000	1255.229460
15.940000	1246.686887
15.950000	1238.315994
15.960000	1233.471976
15.970000	1223.686373
15.980000	1217.954298
15.990000	1215.345032
16.000000	1226.450076
16.010000	1231.902810
16.020000	1240.002827
16.030000	1236.713134
16.040000	1227.923774
16.050000	1214.489323
16.060000	1201.168024
16.070000	1199.930782
16.080000	1195.315260
16.090000	1184.718758
16.100000	1160.760092
16.110000	1135.871390
16.120000	1113.155714
16.130000	1097.337725
16.140000	1088.179783
16.150000	1083.105867
16.160000	1079.511485
16.170000	1076.185021
16.180000	1077.498509
16.190000	1085.229829
16.200000	1098.784584
16.210000	1115.239923
16.220000	1124.355015
16.230000	1132.265551
16.240000	1139.881073
16.250000	1156.951527
16.260000	1167.304746
16.270000	1181.011131
16.280000	1191.650744
16.290000	1168.972288
16.300000	1130.427485
16.310000	1084.207109
16.320000	1058.892032
16.330000	1025.916136
16.340000	972.363416
16.350000	905.644192
16.360000	824.105785
16.370000	731.348556
16.380000	621.449875
16.390000	489.349157
16.400000	334.766954
16.410000	176.695196
16.420000	7.970684
16.430000	-151.593539
16.440000	-314.958489
16.450000	-451.472732
16.460000	-579.733860
16.470000	-683.969141
16.480000	-797.690227
16.490000	-925.432277
16.500000	-1077.710007
16.510000	-1219.818875
16.520000	-1392.318162
16.530000	-1563.723246
16.540000	-1709.327899
16.550000	-1712.425205
16.560000	-1574.713751
16.570000	-1319.571568
16.580000	-1105.188679
16.590000	-928.995801
16.600000	-844.871983
16.610000	-746.366932
16.620000	-704.764616
16.630000	-640.044240
16.640000	-598.392872
16.650000	-498.761633
16.660000	-454.277893
16.670000	-361.942757
16.680000	-349.187032
16.690000	-246.032135
16.700000	-229.441402
16.710000	-120.202795
16.720000	-141.862068
16.730000	-47.140937
16.740000	12.895339
16.750000	362.832274
16.760000	662.096903
16.770000	1040.033335
16.780000	1028.260076
16.790000	715.253122
16.800000	-6299.345699
16.810000	-5864.777339
16.820000	-4632.997013
16.830000	-3750.668914
16.840000	-3345.480818
16.850000	-3117.293437
16.860000	-3169.014408
16.870000	-3129.350103
16.880000	-3184.480781
16.890000	-2976.313904
16.900000	-2837.246016
16.910000	-2587.607330
16.920000	-2553.804271
16.930000	-2429.566412
16.940000	-2325.912279
16.950000	-2129.312666
16.960000	-1994.160323
16.970000	-1846.502831
16.980000	-1790.970164
16.990000	-1984.909311
17.000000	-2254.943377
17.010000	-2476.521821
17.020000	-2414.685450
17.030000	-2263.384635
17.040000	-2153.326242
17.050000	-2050.868613
17.060000	-1988.889085
17.070000	-1857.031987
17.080000	-1710.646608
17.090000	-1527.054026
17.100000	-1383.752325
17.110000	-1274.251834
17.120000	-1272.819681
17.130000	-1395.696814
17.140000	-1685.365691
17.150000	-2036.809951
17.160000	-2343.982163
17.170000	-2455.204396
17.180000	-2412.537381
17.190000	-2250.986071
17.200000	-2073.017800
17.210000	-1895.940377
17.220000	-1754.619576
17.230000	-1674.608831
17.240000	-1647.868726
17.250000	-1666.684384
17.260000	-1695.113110
17.270000	-1728.585417
17.280000	-1751.399434
17.290000	-1782.654411
17.300000	-1868.164691
17.310000	-2016.025201
17.320000	-2160.799879
17.330000	-2241.814106
17.340000	-2263.685905
17.350000	-2268.109473
17.360000	-2251.184440
17.370000	-2212.485215
17.380000	-2161.781556
17.390000	-2113.611033
17.400000	-2052.700160
17.410000	-1969.154697
17.420000	-1866.057171
17.430000	-1751.447755
17.440000	-1624.458494
17.450000	-1494.504159
17.460000	-1384.966261
17.470000	-1335.004952
17.480000	-1351.786831
17.490000	-1322.910971
17.500000	-1221.909995
17.510000	-1092.074756
17.520000	-1064.673892
17.530000	-1118.217659
17.540000	-1211.782671
17.550000	-1332.167867
17.560000	-1532.136686
17.570000	-1764.239781
17.580000	-1964.174241
17.590000	-2097.456296
17.600000	-2175.734061
17.610000	-2243.491405
17.620000	-2286.861526
17.630000	-2301.279460
17.640000	-2277.703568
17.650000	-2228.519366
17.660000	-2141.202975
17.670000	-2025.880026
17.680000	-1903.122368
17.690000	-1815.023832
17.700000	-1769.337537
17.710000	-1730.103719
17.720000	-1692.694271
17.730000	-1663.602353
17.740000	-1626.375532
17.750000	-1583.874251
17.760000	-1523.734524
17.770000	-1465.619642
17.780000	-1408.421299
17.790000	-1355.427906
17.800000	-1321.523340
17.810000	-1288.862309
17.820000	-1250.036015
17.830000	-1203.694583
17.840000	-1153.275657
17.850000	-1096.223461
17.860000	-1057.636891
17.870000	-1083.521294
17.880000	-1186.283269
17.890000	-1483.818839
17.900000	-1729.972274
17.910000	-1889.403797
17.920000	-1813.390781
17.930000	-1779.198864
17.940000	-1812.156598
17.950000	-1914.970232
17.960000	-1994.028789
17.970000	-2101.177829
17.980000	-2182.646744
17.990000	-1971.167332
18.000000	-1633.156577
18.010000	-1259.649611
18.020000	-1094.117312
18.030000	-974.716623
18.040000	-832.028916
18.050000	-775.303763
18.060000	-697.708813
18.070000	-682.440315
18.080000	-562.060177
18.090000	-17.664956
18.100000	871.471665
18.110000	1363.601688
18.120000	1355.920849
18.130000	1276.986508
18.140000	1233.074759
18.150000	1146.513030
18.160000	1108.674177
18.170000	1050.581290
18.180000	1036.622977
18.190000	1003.616510
18.200000	1001.199911
18.210000	975.018616
18.220000	966.359615
18.230000	934.516504
18.240000	923.741208
18.250000	904.801996
18.260000	906.940383
18.270000	887.213754
18.280000	876.333918
18.290000	887.904785
18.300000	927.365482
18.310000	967.835022
18.320000	989.077455
18.330000	1002.180960
18.340000	1022.130635
18.350000	1032.438456
18.360000	1044.258562
18.370000	1044.963611
18.380000	1050.465329
18.390000	1050.417909
18.400000	1056.066791
18.410000	1061.494587
18.420000	1079.055407
18.430000	1097.510881
18.440000	1119.086191
18.450000	1135.504286
18.460000	1156.172259
18.470000	1178.472127
18.480000	1206.618636
18.490000	1230.409317
18.500000	1252.777436
18.510000	1272.345066
18.520000	1297.975478
18.530000	1330.938448
18.540000	1383.883965
18.550000	1453.166952
18.560000	1520.098361
18.570000	1567.748191
18.580000	1593.032686
18.590000	1611.396207
18.600000	1624.946919
18.610000	1630.714112
18.620000	1634.569902
18.630000	1637.035734
18.640000	1638.210745
18.650000	1635.703463
18.660000	1632.887621
18.670000	1637.737936
18.680000	1638.865988
18.690000	1632.816092
18.700000	1621.882587
18.710000	1612.595522
18.720000	1609.584129
18.730000	1607.705456
18.740000	1610.333579
18.750000	1611.147103
18.760000	1613.468343
18.770000	1614.598179
18.780000	1617.645489
18.790000	1623.737364
18.800000	1631.509789
18.810000	1638.568146
18.820000	1645.410218
18.830000	1650.087474
18.840000	1651.341545
18.850000	1644.627169
18.860000	1631.987410
18.870000	1604.500231
18.880000	1560.349972
18.890000	1518.461120
18.900000	1493.732683
18.910000	1493.098337
18.920000	1499.080206
18.930000	1511.147607
18.940000	1521.105824
18.950000	1526.913216
18.960000	1525.829246
18.970000	1522.064584
18.980000	1515.574581
18.990000	1509.592143
19.000000	1505.348522
19.010000	1501.480251
19.020000	1501.838020
19.030000	1503.049977
19.040000	1513.060263
19.050000	1520.936390
19.060000	1531.360784
19.070000	1535.822135
19.080000	1539.066795
19.090000	1538.724239
19.100000	1538.826448
19.110000	1537.980980
19.120000	1537.295972
19.130000	1535.935507
19.140000	1536.478114
19.150000	1537.248362
19.160000	1542.045400
19.170000	1547.578605
19.180000	1558.337658
19.190000	1601.675312
19.200000	1644.500964
19.210000	1679.880968
19.220000	1676.634817
19.230000	1667.967300
19.240000	1661.736239
19.250000	1656.398337
19.260000	1652.881638
19.270000	1642.172576
19.280000	1637.124244
19.290000	1637.280708
19.300000	1647.752540
19.310000	1655.709910
19.320000	1661.119596
19.330000	1661.168347
19.340000	1657.201524
19.350000	1649.326737
19.360000	1641.998637
19.370000	1633.838901
19.380000	1624.501585
19.390000	1609.709798
19.400000	1596.070474
19.410000	1584.266980
19.420000	1575.342739
19.430000	1567.852870
19.440000	1563.325189
19.450000	1562.805925
19.460000	1564.334327
19.470000	1569.804298
19.480000	1577.033439
19.490000	1584.839684
19.500000	1585.080785
19.510000	1591.635981
19.520000	1600.445690
19.530000	1622.172599
19.540000	1643.109926
19.550000	1668.126204
19.560000	1683.087634
19.570000	1686.479814
19.580000	1675.760870
19.590000	1629.813753
19.600000	1582.616427
19.610000	1537.093039
19.620000	1518.898019
19.630000	1503.932234
19.640000	1488.598760
19.650000	1477.823945
19.660000	1465.297339
19.670000	1456.777087
19.680000	1451.004503
19.690000	1448.429011
19.700000	1441.383020
19.710000	1432.469002
19.720000	1421.446459
19.730000	1414.886629
19.740000	1410.176454
19.750000	1409.675875
19.760000	1408.243308
19.770000	1408.510090
19.780000	1406.648861
19.790000	1406.721892
19.800000	1398.035939
19.810000	1391.347449
19.820000	1382.402748
19.830000	1383.371848
19.840000	1386.066808
19.850000	1390.437856
19.860000	1384.383105
19.870000	1370.562485
19.880000	1345.032072
19.890000	1257.242642
19.900000	1164.660625
19.910000	1079.480741
19.920000	1051.741436
19.930000	1025.107686
19.940000	994.309526
19.950000	973.467590
19.960000	956.166920
19.970000	945.866319
19.980000	935.005078
19.990000	928.309144
20.000000	924.503083
20.010000	927.441697
20.020000	927.973639
20.030000	926.942603
20.040000	918.098235
20.050000	910.491680
20.060000	901.863856
20.070000	897.733481
20.080000	897.282702
20.090000	901.650548
20.100000	899.001726
20.110000	891.273840
20.120000	879.051343
20.130000	866.239801
20.140000	839.720316
20.150000	805.256302
20.160000	790.112912
20.170000	793.192018
20.180000	797.792315
20.190000	771.078959
20.200000	719.574558
20.210000	623.888667
20.220000	441.954315
20.230000	172.135074
20.240000	-118.485677
20.250000	-363.630043
20.260000	-564.788596
20.270000	-765.855905
20.280000	-980.687440
20.290000	-1210.726918
20.300000	-1454.257651
20.310000	-1675.852859
20.320000	-1852.209468
20.330000	-1987.068838
20.340000	-2115.597464
20.350000	-2207.121277
20.360000	-2215.628045
20.370000	-2078.145918
20.380000	-1839.307009
20.390000	-1576.280142
20.400000	-1389.403859
20.410000	-1306.570323
20.420000	-1309.395890
20.430000	-1364.174701
20.440000	-1410.671996
20.450000	-1419.220626
20.460000	-1368.663041
20.470000	-1276.732233
20.480000	-1141.960842
20.490000	-968.285457
20.500000	-770.983843
20.510000	-595.616506
20.520000	-473.997669
20.530000	-427.280781
20.540000	-421.222437
20.550000	-447.713847
20.560000	-517.529995
20.570000	-647.862706
20.580000	-827.458170
20.590000	-1027.997344
20.600000	-1231.113563
20.610000	-1444.236613
20.620000	-1670.792294
20.630000	-1938.243451
20.640000	-2245.762078
20.650000	-2550.169922
20.660000	-2819.131442
20.670000	-3018.795867
20.680000	-3170.356109
20.690000	-3246.660286
20.700000	-3260.729489
20.710000	-3204.839867
20.720000	-3058.774440
20.730000	-2806.403617
20.740000	-2483.000552
20.750000	-2205.231250
20.760000	-2070.882145
20.770000	-2052.756598
20.780000	-2086.703535
20.790000	-2108.322848
20.800000	-2125.766059
20.810000	-2119.856171
20.820000	-2065.855697
20.830000	-1970.184362
20.840000	-1837.316178
20.850000	-1689.604728
20.860000	-1533.442757
20.870000	-1395.123212
20.880000	-1286.907772
20.890000	-1235.725793
20.900000	-1252.038195
20.910000	-1328.657362
20.920000	-1441.834070
20.930000	-1567.632829
20.940000	-1700.725592
20.950000	-1821.614035
20.960000	-1870.885588
20.970000	-1817.718639
20.980000	-1680.559193
20.990000	-1523.995009
21.000000	-1383.865607
21.010000	-1272.251281
21.020000	-1214.587239
21.030000	-1233.210953
21.040000	-1332.304278
21.050000	-1463.738912
21.060000	-1547.646112
21.070000	-1518.685419
21.080000	-1373.871184
21.090000	-1158.142184
21.100000	-955.248127
21.110000	-804.856450
21.120000	-699.875181
21.130000	-577.797010
21.140000	-431.700019
21.150000	-259.462483
21.160000	-100.684454
21.170000	44.268192
21.180000	89.718579
21.190000	9.116440
21.200000	-224.925447
21.210000	-609.663924
21.220000	-1149.299850
21.230000	-1714.789561
21.240000	-2218.164908
21.250000	-2462.660808
21.260000	-2282.826982
21.270000	-1772.622116
21.280000	-990.769744
21.290000	-236.621667
21.300000	489.732237
21.310000	1058.311635
21.320000	1622.635954
21.330000	2163.059214
21.340000	2497.048981
21.350000	2443.099762
21.360000	2025.985497
21.370000	1447.249511
21.380000	758.132971
21.390000	23.059313
21.400000	-633.931903
21.410000	-1093.519874
21.420000	-1334.308372
21.430000	-1439.428730
21.440000	-1507.436379
21.450000	-1536.771711
21.460000	-1548.000836
21.470000	-1524.387827
21.480000	-1473.674676
21.490000	-1393.685409
21.500000	-1331.525789
21.510000	-1305.278396
21.520000	-1304.339761
21.530000	-1308.553309
21.540000	-1347.665470
21.550000	-1506.353606
21.560000	-1798.504419
21.570000	-2049.677472
21.580000	-2078.698839
21.590000	-1911.610901
21.600000	-1731.364434
21.610000	-1669.777210
21.620000	-1725.370335
21.630000	-1861.553249
21.640000	-1966.208033
21.650000	-2008.591756
21.660000	-2036.633827
21.670000	-2155.492501
21.680000	-2271.551753
21.690000	-2304.133207
21.700000	-2247.713522
21.710000	-2101.490623
21.720000	-1871.597721
21.730000	-1624.048845
21.740000	-1427.525197
21.750000	-1358.664472
21.760000	-1381.177651
21.770000	-1535.859870
21.780000	-1705.095978
21.790000	-1670.144704
21.800000	-1522.900897
21.810000	-1377.189387
21.820000	-1349.412042
21.830000	-1349.699536
21.840000	-1321.379219
21.850000	-1376.704680
21.860000	-1503.702385
21.870000	-1798.369718
21.880000	-2191.601576
21.890000	-2148.785166
21.900000	-2029.317988
21.910000	-1838.923754
21.920000	-2043.325119
21.930000	-2194.579612
21.940000	-2264.177048
21.950000	-2266.378468
21.960000	-2097.396320
21.970000	-1778.879451
21.980000	-1374.086838
21.990000	-954.760036
22.000000	-563.051724
22.010000	-164.785938
22.020000	117.532111
22.030000	403.165272
22.040000	603.191248
22.050000	847.364880
22.060000	913.532311
22.070000	959.590812
22.080000	838.017677
22.090000	488.107213
22.100000	-3384.114797
22.110000	-3253.459487
22.120000	-2325.533606
22.130000	-400.023571
22.140000	1395.646550
22.150000	2373.276321
22.160000	3031.293198
22.170000	3523.943513
22.180000	3787.101967
22.190000	3985.897721
22.200000	4086.689467
22.210000	4198.903504
22.220000	4243.418338
22.230000	4280.953178
22.240000	4243.453881
22.250000	4195.695227
22.260000	4092.849776
22.270000	3996.391094
22.280000	3861.950601
22.290000	3751.708993
22.300000	3638.803310
22.310000	3565.547045
22.320000	3488.751685
22.330000	3427.888024
22.340000	3355.234907
22.350000	3294.033720
22.360000	3229.946587
22.370000	3184.275883
22.380000	3139.550569
22.390000	3108.600264
22.400000	3079.418844
22.410000	3066.998128
22.420000	3052.192829
22.430000	3042.468672
22.440000	3024.910530
22.450000	3012.343020
22.460000	2991.556562
22.470000	2976.625519
22.480000	2963.820267
22.490000	2795.819413
22.500000	2555.410017
22.510000	2259.833152
22.520000	2091.453114
22.530000	1959.095358
22.540000	1858.066758
22.550000	1772.660242
22.560000	1715.089915
22.570000	1664.801169
22.580000	1645.901659
22.590000	1897.531816
22.600000	2179.729816
22.610000	2448.466083
22.620000	2467.027394
22.630000	2468.689668
22.640000	2486.774040
22.650000	2492.072894
22.660000	2503.985339
22.670000	2500.005263
22.680000	2502.316698
22.690000	2495.832303
22.700000	2490.379902
22.710000	2471.589323
22.720000	2460.870833
22.730000	2452.266958
22.740000	2457.739744
22.750000	2469.886467
22.760000	2488.957687
22.770000	2503.468022
22.780000	2512.197689
22.790000	2492.316991
22.800000	2471.235333
22.810000	2446.409555
22.820000	2445.013316
22.830000	2443.019720
22.840000	2439.178241
22.850000	2426.939195
22.860000	2410.028048
22.870000	2389.173211
22.880000	2369.879847
22.890000	2350.709780
22.900000	2332.726207
22.910000	2314.560080
22.920000	2299.237758
22.930000	2288.726614
22.940000	2284.399496
22.950000	2285.872808
22.960000	2288.867667
22.970000	2293.347083
22.980000	2298.984093
22.990000	2304.801230
23.000000	2308.410894
23.010000	2301.218488
23.020000	2296.209690
23.030000	2299.261491
23.040000	2318.993823
23.050000	2346.232612
23.060000	2369.748472
23.070000	2381.855451
23.080000	2378.487527
23.090000	2365.813324
23.100000	2348.528572
23.110000	2329.738631
23.120000	2311.871977
23.130000	2296.966152
23.140000	2277.825699
23.150000	2259.863016
23.160000	2238.051157
23.170000	2224.439536
23.180000	2209.850062
23.190000	2197.681333
23.200000	2182.253738
23.210000	2164.570144
23.220000	2144.281302
23.230000	2124.428130
23.240000	2107.265486
23.250000	2088.893559
23.260000	2068.882437
23.270000	2048.652850
23.280000	2032.127233
23.290000	2019.688911
23.300000	2011.991431
23.310000	2012.015514
23.320000	2014.114897
23.330000	2017.303344
23.340000	2014.502176
23.350000	2010.904199
23.360000	2002.809781
23.370000	1993.133384
23.380000	1980.715095
23.390000	1965.974531
23.400000	1953.571723
23.410000	1951.763925
23.420000	1959.005147
23.430000	1980.507609
23.440000	1993.629791
23.450000	2005.599705
23.460000	1996.444737
23.470000	1982.388185
23.480000	1950.441700
23.490000	1833.288296
23.500000	1711.771701
23.510000	1602.937861
23.520000	1581.182462
23.530000	1570.429276
23.540000	1558.355336
23.550000	1555.234966
23.560000	1553.062067
23.570000	1563.009246
23.580000	1569.610052
23.590000	1578.420847
23.600000	1586.044845
23.610000	1605.788198
23.620000	1633.339590
23.630000	1669.409471
23.640000	1707.185581
23.650000	1749.962178
23.660000	1785.223583
23.670000	1814.119600
23.680000	1831.810719
23.690000	1844.872352
23.700000	1846.590380
23.710000	1851.911992
23.720000	1860.553962
23.730000	1878.860600
23.740000	1892.683694
23.750000	1905.745716
23.760000	1912.339930
23.770000	1912.196467
23.780000	1897.524499
23.790000	1879.580131
23.800000	1856.552042
23.810000	1839.877300
23.820000	1820.064125
23.830000	1803.424795
23.840000	1782.075690
23.850000	1763.885566
23.860000	1749.268318
23.870000	1742.222572
23.880000	1730.948784
23.890000	1716.123236
23.900000	1693.142291
23.910000	1677.270819
23.920000	1654.445726
23.930000	1645.703404
23.940000	1627.145786
23.950000	1622.785719
23.960000	1601.209840
23.970000	1595.559643
23.980000	1577.283489
23.990000	1581.017549
24.000000	1569.334356
24.010000	1578.852010
24.020000	1548.956045
24.030000	1525.815657
24.040000	1437.420382
24.050000	1339.629078
24.060000	1148.998678
24.070000	938.700528
24.080000	626.977299
24.090000	-31.219906
24.100000	-940.378432
24.110000	-1365.225704
24.120000	-1252.035364
24.130000	-1101.923692
24.140000	-1039.158431
24.150000	-1015.670071
24.160000	-1071.380251
24.170000	-1100.876366
24.180000	-1099.406297
24.190000	-1058.268229
24.200000	-1039.157434
24.210000	-1000.911307
24.220000	-1003.722648
24.230000	-1035.226098
24.240000	-1150.679889
24.250000	-1260.350909
24.260000	-1265.489232
24.270000	-1101.113946
24.280000	-875.321356
24.290000	-698.432431
24.300000	-598.144473
24.310000	-534.117220
24.320000	-564.125489
24.330000	-706.584230
24.340000	-964.957671
24.350000	-1285.120527
24.360000	-1648.784302
24.370000	-1996.775773
24.380000	-2258.813547
24.390000	-2334.583524
24.400000	-2232.377935
24.410000	-2035.502665
24.420000	-1853.588484
24.430000	-1755.218071
24.440000	-1738.850577
24.450000	-1785.130484
24.460000	-1851.296100
24.470000	-1877.579007
24.480000	-1865.828773
24.490000	-1804.911529
24.500000	-1713.364335
24.510000	-1617.187668
24.520000	-1534.803914
24.530000	-1482.049907
24.540000	-1443.418967
24.550000	-1411.196791
24.560000	-1422.087600
24.570000	-1476.510595
24.580000	-1531.572174
24.590000	-1529.052186
24.600000	-1433.056252
24.610000	-1288.756243
24.620000	-1102.709035
24.630000	-910.817276
24.640000	-729.920771
24.650000	-620.945633
24.660000	-586.252815
24.670000	-566.186401
24.680000	-535.630718
24.690000	-489.434573
24.700000	-419.955923
24.710000	-314.624923
24.720000	-180.960249
24.730000	-60.534315
24.740000	27.469847
24.750000	64.596323
24.760000	50.987495
24.770000	13.167664
24.780000	-82.627093
24.790000	-279.922686
24.800000	-444.723879
24.810000	-479.083377
24.820000	-377.714724
24.830000	-251.203434
24.840000	-112.413170
24.850000	88.537958
24.860000	367.482427
24.870000	659.409988
24.880000	981.621894
24.890000	1560.539291
24.900000	2302.563756
24.910000	3054.518077
24.920000	3514.776103
24.930000	3820.712568
24.940000	4100.638572
24.950000	4479.571400
24.960000	5033.371095
24.970000	5625.516968
24.980000	6018.828832
24.990000	6009.220042
25.000000	5592.500440
25.010000	4792.966293
25.020000	3622.949702
25.030000	1991.501680
25.040000	109.710086
25.050000	-920.512149
25.060000	-1458.802275
25.070000	-1607.094979
25.080000	-1663.066284
25.090000	-1693.395624
25.100000	-1668.419866
25.110000	-1579.443287
25.120000	-1461.250868
25.130000	-1317.431822
25.140000	-1178.183385
25.150000	-1073.115717
25.160000	-1056.883525
25.170000	-1171.465488
25.180000	-1415.166250
25.190000	-1718.332990
25.200000	-1916.561616
25.210000	-2003.007949
25.220000	-2006.097039
25.230000	-2002.192900
25.240000	-1892.197323
25.250000	-1713.133611
25.260000	-1620.339559
25.270000	-1674.198938
25.280000	-1822.225614
25.290000	-1961.848927
25.300000	-2085.429684
25.310000	-2164.500701
25.320000	-2181.390761
25.330000	-2156.653170
25.340000	-2117.099742
25.350000	-2049.427834
25.360000	-1933.189784
25.370000	-1759.636948
25.380000	-1509.321044
25.390000	-1196.009506
25.400000	-931.127673
25.410000	-833.477725
25.420000	-990.926316
25.430000	-1321.223928
25.440000	-1731.108169
25.450000	-2136.744377
25.460000	-2429.638864
25.470000	-2625.691261
25.480000	-2743.262627
25.490000	-2867.242024
25.500000	-2986.712572
25.510000	-3094.226449
25.520000	-3179.580547
25.530000	-3244.002645
25.540000	-3288.877421
25.550000	-3327.909219
25.560000	-3207.479321
25.570000	-3007.890901
25.580000	-2791.465804
25.590000	-2509.670070
25.600000	-2253.605743
25.610000	-1987.873018
25.620000	-1913.166631
25.630000	-1866.851811
25.640000	-1812.181619
25.650000	-1778.454911
25.660000	-1753.192656
25.670000	-1758.598611
25.680000	-1780.884714
25.690000	-1824.907918
25.700000	-1879.648742
25.710000	-1946.701948
25.720000	-1993.102414
25.730000	-1995.307567
25.740000	-1910.623661
25.750000	-1703.052871
25.760000	-1406.124939
25.770000	-1065.621993
25.780000	-742.124781
25.790000	-474.256468
25.800000	-261.811376
25.810000	-116.718738
25.820000	0.514402
25.830000	82.894724
25.840000	140.088288
25.850000	159.314493
25.860000	145.243668
25.870000	113.630543
25.880000	72.910386
25.890000	25.794584
25.900000	-35.589315
25.910000	-113.163446
25.920000	-193.853973
25.930000	-278.968183
25.940000	-358.562668
25.950000	-435.283496
25.960000	-510.077087
25.970000	-595.776239
25.980000	-693.037233
25.990000	-803.418349
26.000000	-910.763329
26.010000	-1017.928326
26.020000	-1111.929270
26.030000	-1204.991928
26.040000	-1291.531706
26.050000	-1374.899837
26.060000	-1439.569736
26.070000	-1490.017801
26.080000	-1540.791536
26.090000	-1563.174031
26.100000	-1590.341404
26.110000	-1621.061465
26.120000	-1686.473515
26.130000	-1754.268915
26.140000	-1811.153069
26.150000	-1870.713011
26.160000	-1927.276790
26.170000	-1993.037476
26.180000	-2059.843494
26.190000	-2138.580638
26.200000	-2219.855111
26.210000	-2317.689584
26.220000	-2428.988690
26.230000	-2554.645960
26.240000	-2675.571337
26.250000	-2813.218445
26.260000	-2952.893574
26.270000	-3109.712442
26.280000	-3242.902695
26.290000	-3367.868514
26.300000	-3455.297494
26.310000	-3523.665025
26.320000	-3557.107834
26.330000	-3607.825647
26.340000	-3664.254173
26.350000	-3745.248220
26.360000	-3778.997144
26.370000	-3817.858040
26.380000	-3856.428220
26.390000	-3987.250801
26.400000	-4136.249411
26.410000	-4346.145903
26.420000	-4501.819059
26.430000	-4664.708341
26.440000	-4763.540320
26.450000	-4935.025164
26.460000	-5074.782880
26.470000	-5259.356010
26.480000	-5302.821934
26.490000	-5373.176531
26.500000	-5396.380703
26.510000	-5703.628041
26.520000	-6186.583734
26.530000	-7070.301269
26.540000	-8144.886830
26.550000	-8824.286445
26.560000	-8571.142646
26.570000	-7465.797999
26.580000	-6126.711218
26.590000	-4682.024786
26.600000	2802.618577
26.610000	3213.043051
26.620000	3451.627615
26.630000	3443.951859
26.640000	3560.236571
26.650000	3478.108571
26.660000	3455.255746
26.670000	3276.784526
26.680000	3159.945894
26.690000	2509.557180
26.700000	1929.132704
26.710000	1323.768118
26.720000	1260.007444
26.730000	1168.855382
26.740000	1113.770591
26.750000	1021.384891
26.760000	955.729218
26.770000	866.084042
26.780000	791.084783
26.790000	492.545421
