Time(s)	GREEN_denoised_median
0.000000	-1279.574658
0.010000	-1279.574658
0.020000	-1279.574658
0.030000	-1175.642167
0.040000	-1066.975237
0.050000	-960.281000
0.060000	-850.431563
0.070000	-736.016889
0.080000	-623.996305
0.090000	-511.810644
0.100000	-501.599011
0.110000	-501.599011
0.120000	-501.599011
0.130000	-762.538197
0.140000	-1096.383221
0.150000	-1411.341413
0.160000	-1665.378058
0.170000	-1851.312868
0.180000	-1972.472802
0.190000	-2057.423219
0.200000	-2121.599574
0.210000	-2121.599574
0.220000	-2121.599574
0.230000	-2078.724551
0.240000	-2017.113802
0.250000	-1979.030559
0.260000	-1979.030559
0.270000	-1979.030559
0.280000	-1984.021015
0.290000	-1984.021015
0.300000	-1984.021015
0.310000	-1947.298771
0.320000	-1893.400732
0.330000	-1816.843135
0.340000	-1729.875146
0.350000	-1626.381381
0.360000	-1511.422896
0.370000	-1383.943771
0.380000	-1243.010222
0.390000	-1100.579095
0.400000	-959.608642
0.410000	-813.221484
0.420000	-667.274380
0.430000	-515.862170
0.440000	-367.007226
0.450000	-218.501863
0.460000	-76.789183
0.470000	65.873815
0.480000	203.368955
0.490000	337.250488
0.500000	476.529253
0.510000	617.575881
0.520000	755.671752
0.530000	856.167502
0.540000	856.167502
0.550000	856.167502
0.560000	625.815654
0.570000	326.616260
0.580000	54.057793
0.590000	-165.126466
0.600000	-253.561897
0.610000	-277.262218
0.620000	-277.262218
0.630000	-277.262218
0.640000	-272.816125
0.650000	-229.065654
0.660000	-175.514238
0.670000	-100.869633
0.680000	-15.258290
0.690000	84.377219
0.700000	198.005529
0.710000	317.620256
0.720000	439.300388
0.730000	562.895198
0.740000	686.614024
0.750000	813.207622
0.760000	938.936565
0.770000	1061.552590
0.780000	1186.309874
0.790000	1307.900418
0.800000	1429.740717
0.810000	1555.283612
0.820000	1681.189856
0.830000	1803.704292
0.840000	1924.694734
0.850000	2052.183827
0.860000	2178.199278
0.870000	2313.760756
0.880000	2452.703474
0.890000	2584.373813
0.900000	2584.373813
0.910000	2584.373813
0.920000	2577.907677
0.930000	2322.663440
0.940000	2047.787639
0.950000	1815.424311
0.960000	1654.636014
0.970000	1548.118592
0.980000	1494.590629
0.990000	1462.794238
1.000000	1462.794238
1.010000	1462.794238
1.020000	1509.978316
1.030000	1558.089241
1.040000	1558.980926
1.050000	1558.980926
1.060000	1558.980926
1.070000	1525.476509
1.080000	1502.678011
1.090000	1502.678011
1.100000	1502.678011
1.110000	1508.921753
1.120000	1551.516786
1.130000	1587.571852
1.140000	1645.786248
1.150000	1697.149269
1.160000	1778.323210
1.170000	1844.591587
1.180000	1939.191438
1.190000	2014.876351
1.200000	2119.412849
1.210000	2196.970045
1.220000	2304.037458
1.230000	2378.834824
1.240000	2496.134246
1.250000	2568.352001
1.260000	2692.838468
1.270000	2757.394292
1.280000	2757.394292
1.290000	2757.394292
1.300000	2392.955789
1.310000	2388.751611
1.320000	2388.751611
1.330000	2392.955789
1.340000	2461.046701
1.350000	2474.478560
1.360000	2561.992649
1.370000	2592.293507
1.380000	2698.777950
1.390000	2739.465434
1.400000	2855.455028
1.410000	2899.961880
1.420000	3022.060841
1.430000	3073.759442
1.440000	3209.615548
1.450000	3259.784792
1.460000	3407.258974
1.470000	3450.875485
1.480000	3450.875485
1.490000	3450.875485
1.500000	2503.884563
1.510000	2379.391043
1.520000	2373.913612
1.530000	2359.133594
1.540000	2359.133594
1.550000	2326.839126
1.560000	2326.839126
1.570000	2297.071197
1.580000	2276.799271
1.590000	2188.715067
1.600000	2157.416301
1.610000	2093.902327
1.620000	2093.902327
1.630000	2093.902327
1.640000	2099.463850
1.650000	2105.288216
1.660000	2149.818551
1.670000	2179.627380
1.680000	2245.593516
1.690000	2290.804746
1.700000	2372.817603
1.710000	2432.797611
1.720000	2524.486502
1.730000	2587.613369
1.740000	2681.620647
1.750000	2751.250930
1.760000	2848.185718
1.770000	2914.725638
1.780000	3015.223926
1.790000	3076.962102
1.800000	3167.786748
1.810000	3226.984294
1.820000	3311.812682
1.830000	3311.812682
1.840000	3311.812682
1.850000	3288.189832
1.860000	3080.551384
1.870000	2706.296105
1.880000	2391.796789
1.890000	2045.670040
1.900000	1130.958907
1.910000	975.305848
1.920000	898.747679
1.930000	764.574513
1.940000	724.469382
1.950000	646.204296
1.960000	645.011714
1.970000	627.298439
1.980000	627.298439
1.990000	627.298439
2.000000	667.249369
2.010000	683.415435
2.020000	753.843367
2.030000	794.434056
2.040000	879.012389
2.050000	925.164851
2.060000	1019.787741
2.070000	1073.552950
2.080000	1171.182458
2.090000	1209.566476
2.100000	1300.308210
2.110000	1337.122850
2.120000	1436.186239
2.130000	1473.159872
2.140000	1581.914656
2.150000	1614.564174
2.160000	1614.564174
2.170000	1614.564174
2.180000	1568.326385
2.190000	1236.911164
2.200000	-156.493818
2.210000	-246.387389
2.220000	-257.033044
2.230000	-381.713853
2.240000	-427.370842
2.250000	-539.830896
2.260000	-571.763375
2.270000	-624.502789
2.280000	-624.502789
2.290000	-624.502789
2.300000	200.450339
2.310000	268.954907
2.320000	380.190705
2.330000	437.011283
2.340000	554.653709
2.350000	606.542720
2.360000	735.997116
2.370000	735.997116
2.380000	735.997116
2.390000	712.020355
2.400000	-624.291720
2.410000	-633.904663
2.420000	-674.613773
2.430000	-720.426993
2.440000	-725.235184
2.450000	-837.300623
2.460000	-837.894461
2.470000	-870.386526
2.480000	-870.386526
2.490000	-870.386526
2.500000	-838.497402
2.510000	-835.718529
2.520000	-744.968428
2.530000	-722.878423
2.540000	-611.177925
2.550000	-578.026363
2.560000	-449.310122
2.570000	-409.020696
2.580000	-409.020696
2.590000	-409.020696
2.600000	-1135.791813
2.610000	-1144.099605
2.620000	-1144.099605
2.630000	-1144.099605
2.640000	-1088.225286
2.650000	-1074.510548
2.660000	-977.373905
2.670000	-935.995767
2.680000	-828.669108
2.690000	-773.001404
2.700000	-664.216627
2.710000	-598.421872
2.720000	-482.106410
2.730000	-411.225758
2.740000	-299.358286
2.750000	-222.338262
2.760000	-114.083307
2.770000	-36.665643
2.780000	67.657903
2.790000	142.831610
2.800000	254.871626
2.810000	339.107196
2.820000	457.570664
2.830000	540.157212
2.840000	540.157212
2.850000	540.157212
2.860000	407.449634
2.870000	83.449334
2.880000	-231.048407
2.890000	-550.325451
2.900000	-1125.058171
2.910000	-1205.214137
2.920000	-1239.221993
2.930000	-1299.933636
2.940000	-1299.933636
2.950000	-1299.933636
2.960000	-1291.955490
2.970000	-1266.067333
2.980000	-1207.688906
2.990000	-1161.312397
3.000000	-1087.052487
3.010000	-1019.624173
3.020000	-930.102991
3.030000	-844.949675
3.040000	-747.897633
3.050000	-653.220426
3.060000	-546.474642
3.070000	-448.449056
3.080000	-344.816177
3.090000	-344.816177
3.100000	-344.816177
3.110000	-560.253031
3.120000	-732.144037
3.130000	-851.476123
3.140000	-921.702790
3.150000	-961.601250
3.160000	-961.601250
3.170000	-961.601250
3.180000	-916.450543
3.190000	-901.925909
3.200000	-901.925909
3.210000	-901.925909
3.220000	-945.644025
3.230000	-990.350955
3.240000	-1028.562288
3.250000	-1031.680296
3.260000	-1031.680296
3.270000	-1031.680296
3.280000	-1004.194278
3.290000	-956.487592
3.300000	-906.946355
3.310000	-836.047425
3.320000	-769.679560
3.330000	-675.302918
3.340000	-592.466632
3.350000	-497.239655
3.360000	-413.239620
3.370000	-302.863283
3.380000	-216.107965
3.390000	-216.107965
3.400000	-216.107965
3.410000	-246.353526
3.420000	-500.249240
3.430000	-662.490038
3.440000	-793.756509
3.450000	-865.233463
3.460000	-926.331049
3.470000	-926.331049
3.480000	-926.331049
3.490000	-912.685380
3.500000	-912.685380
3.510000	-912.685380
3.520000	-917.527134
3.530000	-953.379579
3.540000	-1010.462455
3.550000	-1041.153113
3.560000	-1063.591716
3.570000	-1063.591716
3.580000	-1063.591716
3.590000	-1014.501755
3.600000	-988.927165
3.610000	-915.900193
3.620000	-865.496850
3.630000	-770.768729
3.640000	-710.312325
3.650000	-597.027797
3.660000	-529.482963
3.670000	-401.569498
3.680000	-339.135052
3.690000	-195.205813
3.700000	-35.767675
3.710000	-35.767675
3.720000	-35.767675
3.730000	-232.544953
3.740000	-419.489033
3.750000	-487.269964
3.760000	-554.279919
3.770000	-554.279919
3.780000	-554.279919
3.790000	-522.590867
3.800000	-461.027406
3.810000	-357.483207
3.820000	-294.986973
3.830000	-232.873626
3.840000	-213.010580
3.850000	-177.827835
3.860000	-151.094033
3.870000	-103.472168
3.880000	-44.118733
3.890000	45.123458
3.900000	131.883190
3.910000	226.000888
3.920000	311.981855
3.930000	397.107663
3.940000	485.238374
3.950000	605.451409
3.960000	713.461561
3.970000	833.150998
3.980000	958.772433
3.990000	1081.010297
4.000000	1207.299261
4.010000	1363.089459
4.020000	1525.865157
4.030000	1703.423105
4.040000	1873.520184
4.050000	2042.005948
4.060000	2200.308029
4.070000	2343.772361
4.080000	2477.295278
4.090000	2599.695607
4.100000	2599.695607
4.110000	2599.695607
4.120000	2490.708165
4.130000	2259.096066
4.140000	1996.285938
4.150000	1765.653792
4.160000	1576.891823
4.170000	1424.345158
4.180000	1300.669081
4.190000	1201.220167
4.200000	1130.648290
4.210000	1102.295672
4.220000	1095.711490
4.230000	1081.523660
4.240000	1038.975512
4.250000	979.016054
4.260000	912.416529
4.270000	854.699132
4.280000	800.979277
4.290000	779.775656
4.300000	779.775656
4.310000	779.775656
4.320000	805.408497
4.330000	853.219018
4.340000	930.313353
4.350000	1039.830142
4.360000	1161.332219
4.370000	1290.664848
4.380000	1414.504858
4.390000	1543.745105
4.400000	1645.737025
4.410000	1760.203320
4.420000	1885.033536
4.430000	2022.853837
4.440000	2126.372273
4.450000	2256.982221
4.460000	2373.608942
4.470000	2491.444513
4.480000	2597.948796
4.490000	2729.219719
4.500000	2835.231385
4.510000	2835.231385
4.520000	2835.231385
4.530000	2767.001328
4.540000	2518.547295
4.550000	2302.344094
4.560000	2077.360826
4.570000	1960.298574
4.580000	1960.298574
4.590000	1960.298574
4.600000	2506.666749
4.610000	2644.697675
4.620000	2713.724413
4.630000	2834.485885
4.640000	2903.342780
4.650000	3011.987287
4.660000	3085.680436
4.670000	3196.066836
4.680000	3271.801123
4.690000	3379.701275
4.700000	3450.723699
4.710000	3544.864785
4.720000	3544.864785
4.730000	3544.864785
4.740000	3474.132717
4.750000	3250.416745
4.760000	2914.887833
4.770000	2572.910857
4.780000	2290.706760
4.790000	2116.526378
4.800000	2014.464737
4.810000	2014.464737
4.820000	2014.464737
4.830000	2050.556503
4.840000	2104.202459
4.850000	2152.943649
4.860000	2156.375357
4.870000	2156.375357
4.880000	2156.375357
4.890000	2118.484239
4.900000	2086.004691
4.910000	2086.004691
4.920000	2086.004691
4.930000	2101.790858
4.940000	2125.588081
4.950000	2173.197909
4.960000	2228.242292
4.970000	2288.803082
4.980000	2358.068119
4.990000	2431.543923
5.000000	2495.023193
5.010000	2563.520095
5.020000	2625.058337
5.030000	2677.677090
5.040000	2723.256443
5.050000	2773.011218
5.060000	2810.529230
5.070000	2853.588862
5.080000	2883.851457
5.090000	2915.403215
5.100000	2942.265223
5.110000	2942.265223
5.120000	2942.265223
5.130000	2827.514420
5.140000	2567.271257
5.150000	2201.976534
5.160000	1808.121558
5.170000	1469.598088
5.180000	1199.916526
5.190000	1004.333794
5.200000	855.758304
5.210000	762.300676
5.220000	701.363128
5.230000	701.363128
5.240000	699.575812
5.250000	699.575812
5.260000	676.036897
5.270000	633.194590
5.280000	548.629941
5.290000	491.611326
5.300000	407.005036
5.310000	372.515425
5.320000	325.968835
5.330000	325.968835
5.340000	325.968835
5.350000	351.055610
5.360000	351.078475
5.370000	430.904800
5.380000	449.731665
5.390000	556.662937
5.400000	1446.987792
5.410000	1446.987792
5.420000	1446.987792
5.430000	1251.824995
5.440000	878.317464
5.450000	534.719125
5.460000	188.088582
5.470000	-42.867609
5.480000	-255.632743
5.490000	-373.876901
5.500000	-493.728978
5.510000	-504.449413
5.520000	-504.449413
5.530000	-504.449413
5.540000	-468.586441
5.550000	-468.586441
5.560000	-468.586441
5.570000	-508.746796
5.580000	-574.842333
5.590000	-619.962703
5.600000	-652.573877
5.610000	-652.573877
5.620000	-652.573877
5.630000	-633.901798
5.640000	-607.116009
5.650000	-571.592656
5.660000	-536.885706
5.670000	-482.122637
5.680000	-415.659602
5.690000	-327.527433
5.700000	-225.408350
5.710000	-106.831934
5.720000	12.865184
5.730000	134.979220
5.740000	261.208579
5.750000	390.851320
5.760000	513.591889
5.770000	636.837197
5.780000	757.008907
5.790000	824.856899
5.800000	824.856899
5.810000	824.856899
5.820000	593.035830
5.830000	255.042246
5.840000	-84.090918
5.850000	-368.853215
5.860000	-568.230992
5.870000	-706.848786
5.880000	-800.294795
5.890000	-875.826203
5.900000	-875.826203
5.910000	-875.826203
5.920000	-856.943474
5.930000	-856.943474
5.940000	-856.943474
5.950000	-891.313669
5.960000	-945.693388
5.970000	-1023.749976
5.980000	-1069.673637
5.990000	-1117.394751
6.000000	-1117.394751
6.010000	-1117.394751
6.020000	-1087.746297
6.030000	-1071.542277
6.040000	-998.630843
6.050000	-962.242290
6.060000	-866.967443
6.070000	-823.479633
6.080000	-702.617763
6.090000	-652.451987
6.100000	-512.395031
6.110000	-467.349072
6.120000	-315.085953
6.130000	-277.388786
6.140000	-112.482838
6.150000	-86.804609
6.160000	94.681025
6.170000	102.080673
6.180000	102.080673
6.190000	102.080673
6.200000	-1920.336396
6.210000	-1946.340500
6.220000	-1946.340500
6.230000	-1920.336396
6.240000	-1853.425913
6.250000	-1845.154848
6.260000	-1708.252414
6.270000	-1685.014738
6.280000	-1549.945983
6.290000	-1505.797934
6.300000	-1363.560003
6.310000	-1301.587593
6.320000	-1158.238656
6.330000	-1093.259420
6.340000	-964.087429
6.350000	-897.672891
6.360000	-775.263735
6.370000	-701.703819
6.380000	-579.889669
6.390000	-508.277108
6.400000	-434.836343
6.410000	-434.836343
6.420000	-434.836343
6.430000	-694.849599
6.440000	-1021.024219
6.450000	-1395.592939
6.460000	-1679.891842
6.470000	-1930.886305
6.480000	-2071.404674
6.490000	-2204.689722
6.500000	-2556.268787
6.510000	-2578.692322
6.520000	-2578.692322
6.530000	-2578.692322
6.540000	-2528.994885
6.550000	-2501.333695
6.560000	-2429.329678
6.570000	-2365.322368
6.580000	-2275.449709
6.590000	-2191.514143
6.600000	-2088.437000
6.610000	-2001.897005
6.620000	-1899.261592
6.630000	-1812.482873
6.640000	-1711.943382
6.650000	-1623.247389
6.660000	-1528.533429
6.670000	-1433.103815
6.680000	-1335.132828
6.690000	-1333.129610
6.700000	-1333.129610
6.710000	-1333.129610
6.720000	-1572.310128
6.730000	-1886.095844
6.740000	-2177.725505
6.750000	-2413.267812
6.760000	-2579.230756
6.770000	-2682.530120
6.780000	-2740.800272
6.790000	-2740.800272
6.800000	-2740.800272
6.810000	-2727.218500
6.820000	-2660.897001
6.830000	-2635.276120
6.840000	-2635.276120
6.850000	-2635.276120
6.860000	-2676.902829
6.870000	-2714.821426
6.880000	-2736.151260
6.890000	-2736.151260
6.900000	-2736.151260
6.910000	-2708.044481
6.920000	-2664.819705
6.930000	-2612.752405
6.940000	-2544.491903
6.950000	-2464.534300
6.960000	-2379.210811
6.970000	-2284.329184
6.980000	-2182.991855
6.990000	-2077.163235
7.000000	-1967.812636
7.010000	-1860.051296
7.020000	-1752.658812
7.030000	-1645.986598
7.040000	-1533.529206
7.050000	-1419.995871
7.060000	-1310.443832
7.070000	-1310.443832
7.080000	-1310.443832
7.090000	-1341.272204
7.100000	-1607.381452
7.110000	-1940.304494
7.120000	-2241.249214
7.130000	-2478.564966
7.140000	-2647.233930
7.150000	-2758.915066
7.160000	-2828.270721
7.170000	-2881.340226
7.180000	-2881.340226
7.190000	-2881.340226
7.200000	-2854.265201
7.210000	-2827.140285
7.220000	-2827.140285
7.230000	-2827.140285
7.240000	-2860.286693
7.250000	-2908.863623
7.260000	-2933.235773
7.270000	-2933.235773
7.280000	-2933.235773
7.290000	-2922.913942
7.300000	-2872.860383
7.310000	-2827.236338
7.320000	-2743.455103
7.330000	-2672.857908
7.340000	-2566.816126
7.350000	-2480.805954
7.360000	-2351.892118
7.370000	-2260.186719
7.380000	-2124.564706
7.390000	-2027.054648
7.400000	-1889.836900
7.410000	-1804.425884
7.420000	-1663.601036
7.430000	-1588.461551
7.440000	-1436.678520
7.450000	-1359.339513
7.460000	-1206.966405
7.470000	-1206.966405
7.480000	-1206.966405
7.490000	-1286.159259
7.500000	-2735.876612
7.510000	-2764.994414
7.520000	-2793.802864
7.530000	-2805.322473
7.540000	-2805.662875
7.550000	-2876.797153
7.560000	-2882.721941
7.570000	-2882.721941
7.580000	-2882.721941
7.590000	-2873.557199
7.600000	-2825.604916
7.610000	-2764.327800
7.620000	-2694.925916
7.630000	-2599.059666
7.640000	-2517.434268
7.650000	-2385.526941
7.660000	-2307.429386
7.670000	-2163.402315
7.680000	-2091.153669
7.690000	-1924.464180
7.700000	-1216.714980
7.710000	-1216.714980
7.720000	-1216.714980
7.730000	-1467.485521
7.740000	-1773.401404
7.750000	-1930.591553
7.760000	-2104.116368
7.770000	-2150.865519
7.780000	-2230.236526
7.790000	-2230.236526
7.800000	-2230.236526
7.810000	-2190.637972
7.820000	-2181.827362
7.830000	-2140.326329
7.840000	-2140.326329
7.850000	-2140.326329
7.860000	-2164.976337
7.870000	-2164.976337
7.880000	-2164.976337
7.890000	-2151.153729
7.900000	-906.942226
7.910000	-660.061437
7.920000	-528.091786
7.930000	-297.805369
7.940000	-184.415226
7.950000	-0.439297
7.960000	93.309799
7.970000	271.855369
7.980000	387.154804
7.990000	573.935097
8.000000	624.792894
8.010000	624.792894
8.020000	624.792894
8.030000	456.907057
8.040000	211.020927
8.050000	37.720988
8.060000	-93.231582
8.070000	-125.209301
8.080000	-130.867470
8.090000	-130.867470
8.100000	-130.867470
8.110000	-46.747480
8.120000	32.730723
8.130000	148.554595
8.140000	216.008481
8.150000	304.305354
8.160000	342.929460
8.170000	423.529595
8.180000	451.367683
8.190000	534.340642
8.200000	570.260228
8.210000	670.771413
8.220000	732.595959
8.230000	874.847561
8.240000	948.230112
8.250000	1115.818351
8.260000	1203.977213
8.270000	1393.802234
8.280000	1471.680061
8.290000	1668.046612
8.300000	2999.159810
8.310000	2999.159810
8.320000	2999.159810
8.330000	2918.494806
8.340000	2693.558201
8.350000	2564.336291
8.360000	2409.010647
8.370000	2370.954842
8.380000	2370.954842
8.390000	2370.954842
8.400000	2391.920528
8.410000	2522.331082
8.420000	2621.469275
8.430000	2730.884250
8.440000	2783.775123
8.450000	2855.884410
8.460000	2889.771437
8.470000	2934.233387
8.480000	2963.621048
8.490000	3022.834626
8.500000	3073.300592
8.510000	3143.680418
8.520000	3205.884821
8.530000	3282.727226
8.540000	3351.405602
8.550000	3433.959641
8.560000	3505.861519
8.570000	3587.378697
8.580000	3661.278592
8.590000	3738.941018
8.600000	3798.670003
8.610000	3862.689631
8.620000	3925.050153
8.630000	3994.545292
8.640000	4059.440885
8.650000	4123.510896
8.660000	4181.875556
8.670000	4251.604830
8.680000	4313.278357
8.690000	4313.278357
8.700000	4313.278357
8.710000	4300.153080
8.720000	4071.987648
8.730000	3718.698280
8.740000	3358.732969
8.750000	3072.207973
8.760000	2856.320421
8.770000	2713.802825
8.780000	2627.924432
8.790000	2603.220612
8.800000	2603.220612
8.810000	2603.220612
8.820000	2657.335437
8.830000	2702.052869
8.840000	2724.048166
8.850000	2724.048166
8.860000	2724.048166
8.870000	2712.989362
8.880000	2712.989362
8.890000	2712.989362
8.900000	2727.081346
8.910000	2739.087957
8.920000	2754.219020
8.930000	2782.268049
8.940000	2816.379664
8.950000	2867.565686
8.960000	2928.558331
8.970000	2991.930853
8.980000	3051.808950
8.990000	3128.435144
9.000000	3223.074521
9.010000	3326.978672
9.020000	3416.365186
9.030000	3513.715278
9.040000	3622.669720
9.050000	3728.466537
9.060000	3834.087748
9.070000	3948.297977
9.080000	3948.297977
9.090000	3948.297977
9.100000	3944.819464
9.110000	3733.310336
9.120000	3416.260060
9.130000	3091.739259
9.140000	2810.631450
9.150000	2617.209773
9.160000	2477.847959
9.170000	2384.809783
9.180000	2310.066416
9.190000	2310.066416
9.200000	2310.066416
9.210000	2324.052622
9.220000	2324.052622
9.230000	2324.052622
9.240000	2257.765065
9.250000	2205.761106
9.260000	2126.271617
9.270000	2116.536584
9.280000	2116.536584
9.290000	2116.536584
9.300000	2698.529813
9.310000	2831.195811
9.320000	2937.653519
9.330000	3079.908587
9.340000	3167.402633
9.350000	3271.108500
9.360000	3271.108500
9.370000	3271.108500
9.380000	3205.128166
9.390000	2947.150626
9.400000	2592.470654
9.410000	2250.101349
9.420000	1976.705595
9.430000	1772.933355
9.440000	1641.981535
9.450000	1553.706657
9.460000	1496.339661
9.470000	1496.339661
9.480000	1496.339661
9.490000	1493.795382
9.500000	1493.795382
9.510000	1465.446898
9.520000	1421.770867
9.530000	1323.446833
9.540000	1282.453514
9.550000	1202.896787
9.560000	1196.726738
9.570000	1183.720371
9.580000	1154.767493
9.590000	1144.730305
9.600000	169.725833
9.610000	-26.951286
9.620000	-98.870503
9.630000	-209.284973
9.640000	-209.284973
9.650000	-218.625569
9.660000	-236.941444
9.670000	-244.316249
9.680000	-256.417388
9.690000	-344.016699
9.700000	-412.544403
9.710000	-516.480499
9.720000	-584.326104
9.730000	-655.250227
9.740000	-684.881596
9.750000	-721.278324
9.760000	-722.343704
9.770000	-722.343704
9.780000	-722.343704
9.790000	-707.908892
9.800000	-669.415131
9.810000	-633.415355
9.820000	-583.381474
9.830000	-519.983528
9.840000	-436.342786
9.850000	-345.623675
9.860000	-252.298368
9.870000	-163.289916
9.880000	-163.289916
9.890000	-163.289916
9.900000	-332.246846
9.910000	-637.794312
9.920000	-963.064128
9.930000	-1237.527773
9.940000	-1455.086206
9.950000	-1604.275532
9.960000	-1712.244562
9.970000	-1766.947046
9.980000	-1766.947046
9.990000	-1766.947046
10.000000	-1736.229831
10.010000	-1681.751090
10.020000	-1681.751090
10.030000	-1681.751090
10.040000	-1725.111845
10.050000	-1755.828022
10.060000	-1820.553137
10.070000	-1820.553137
10.080000	-1820.553137
10.090000	-1816.493083
10.100000	-969.739887
10.110000	-830.844801
10.120000	-727.008874
10.130000	-596.924888
10.140000	-490.633556
10.150000	-490.633556
10.160000	-490.633556
10.170000	-618.915677
10.180000	-922.130618
10.190000	-1286.036315
10.200000	-1982.588992
10.210000	-1982.588992
10.220000	-1982.588992
10.230000	-1899.846531
10.240000	-1772.657686
10.250000	-1681.179159
10.260000	-1556.378172
10.270000	-1456.924996
10.280000	-1331.860918
10.290000	-1229.006394
10.300000	-1113.180835
10.310000	-1010.321671
10.320000	-890.413956
10.330000	-793.898200
10.340000	-793.898200
10.350000	-793.898200
10.360000	-839.607072
10.370000	-1119.809351
10.380000	-1444.418395
10.390000	-1736.910607
10.400000	-1965.425993
10.410000	-2132.179867
10.420000	-2246.528418
10.430000	-2338.582134
10.440000	-2396.592654
10.450000	-2396.592654
10.460000	-2396.592654
10.470000	-2369.891950
10.480000	-2369.891950
10.490000	-2369.891950
10.500000	-2380.815145
10.510000	-2424.727821
10.520000	-2469.954184
10.530000	-2503.776140
10.540000	-2503.776140
10.550000	-2503.776140
10.560000	-2487.554142
10.570000	-2447.096407
10.580000	-2388.025010
10.590000	-2315.372921
10.600000	-2233.581429
10.610000	-2134.703106
10.620000	-2032.285087
10.630000	-1924.078601
10.640000	-1817.103377
10.650000	-1709.519405
10.660000	-1605.026981
10.670000	-1500.030709
10.680000	-1396.055620
10.690000	-1288.616903
10.700000	-1182.200707
10.710000	-1067.256756
10.720000	-962.516080
10.730000	-960.649614
10.740000	-960.649614
10.750000	-960.649614
10.760000	-1220.721769
10.770000	-1518.133118
10.780000	-1804.572965
10.790000	-2013.662197
10.800000	-2174.782720
10.810000	-2257.121820
10.820000	-2334.375706
10.830000	-2350.462092
10.840000	-2350.462092
10.850000	-2350.462092
10.860000	-2311.629210
10.870000	-2269.391944
10.880000	-2265.900873
10.890000	-2257.357114
10.900000	-1822.311541
10.910000	-1681.750217
10.920000	-1587.583813
10.930000	-1452.162440
10.940000	-1349.398737
10.950000	-1209.278409
10.960000	-1106.710892
10.970000	-975.105049
10.980000	-880.486721
10.990000	-759.676361
11.000000	-702.442720
11.010000	-702.442720
11.020000	-702.442720
11.030000	-886.148922
11.040000	-1170.462593
11.050000	-1408.846559
11.060000	-1626.053108
11.070000	-1749.376773
11.080000	-1866.183582
11.090000	-1866.183582
11.100000	-1866.183582
11.110000	-1843.744920
11.120000	-1830.581131
11.130000	-1753.535205
11.140000	-1724.120394
11.150000	-1614.769265
11.160000	-1570.508758
11.170000	-1443.298754
11.180000	-1392.842672
11.190000	-1242.003336
11.200000	-805.791968
11.210000	-805.791968
11.220000	-805.791968
11.230000	-1096.988251
11.240000	-1432.743279
11.250000	-1622.638808
11.260000	-1820.740386
11.270000	-1913.654304
11.280000	-2033.511259
11.290000	-2081.133775
11.300000	-2117.025219
11.310000	-2117.025219
11.320000	-2118.686239
11.330000	-2118.686239
11.340000	-2118.686239
11.350000	-2136.004084
11.360000	-2213.906291
11.370000	-2243.796468
11.380000	-2295.212138
11.390000	-2295.212138
11.400000	-2295.212138
11.410000	-2266.146366
11.420000	-2263.411595
11.430000	-2181.460165
11.440000	-2151.445294
11.450000	-2040.143206
11.460000	-1996.348590
11.470000	-1860.072789
11.480000	-1809.274334
11.490000	-1658.096977
11.500000	-690.215819
11.510000	-690.215819
11.520000	-690.215819
11.530000	-909.516254
11.540000	-1263.811621
11.550000	-1515.281830
11.560000	-1764.427458
11.570000	-1890.530165
11.580000	-2029.838959
11.590000	-2083.221411
11.600000	-2152.453440
11.610000	-2152.453440
11.620000	-2152.453440
11.630000	-2099.514319
11.640000	-2099.514319
11.650000	-2099.514319
11.660000	-2127.902075
11.670000	-2158.730518
11.680000	-2195.632234
11.690000	-2195.632234
11.700000	-2195.632234
11.710000	-2165.500875
11.720000	-2121.802979
11.730000	-2051.825761
11.740000	-1973.176325
11.750000	-1860.111555
11.760000	-1737.768688
11.770000	-1600.391052
11.780000	-1465.502823
11.790000	-1326.681872
11.800000	-1187.340315
11.810000	-1039.015666
11.820000	-892.304980
11.830000	-734.359118
11.840000	-575.406304
11.850000	-407.725763
11.860000	-250.653647
11.870000	-95.085205
11.880000	63.014970
11.890000	236.510277
11.900000	398.505862
11.910000	553.123219
11.920000	553.123219
11.930000	553.123219
11.940000	468.015163
11.950000	225.441036
11.960000	-37.814211
11.970000	-258.854118
11.980000	-447.906654
11.990000	-580.114358
12.000000	-669.165636
12.010000	-669.165636
12.020000	-669.165636
12.030000	-612.356742
12.040000	-557.518979
12.050000	-498.303476
12.060000	-498.303476
12.070000	-498.303476
12.080000	-533.901405
12.090000	-557.464970
12.100000	-566.820380
12.110000	-566.820380
12.120000	-566.820380
12.130000	-487.371942
12.140000	-448.635301
12.150000	-352.583517
12.160000	-324.110211
12.170000	-215.092112
12.180000	-176.452516
12.190000	-43.779816
12.200000	879.727479
12.210000	879.727479
12.220000	879.727479
12.230000	703.391193
12.240000	402.055163
12.250000	165.850590
12.260000	-80.385151
12.270000	-228.224295
12.280000	-382.448767
12.290000	-463.830668
12.300000	-547.973704
12.310000	-547.973704
12.320000	-547.973704
12.330000	-533.051462
12.340000	-533.051462
12.350000	-533.051462
12.360000	-542.721321
12.370000	-583.259685
12.380000	-639.466571
12.390000	-669.610581
12.400000	-669.610581
12.410000	-669.610581
12.420000	-651.523140
12.430000	-597.019055
12.440000	-534.744133
12.450000	-453.130158
12.460000	-364.051981
12.470000	-259.207428
12.480000	-149.433097
12.490000	-30.262483
12.500000	86.121130
12.510000	214.739143
12.520000	335.561936
12.530000	447.777290
12.540000	559.010543
12.550000	671.786939
12.560000	784.434013
12.570000	894.782496
12.580000	990.818590
12.590000	1071.732096
12.600000	1071.732096
12.610000	1071.732096
12.620000	887.479175
12.630000	602.808737
12.640000	321.046388
12.650000	84.712479
12.660000	-87.456786
12.670000	-202.458694
12.680000	-269.970730
12.690000	-294.933451
12.700000	-294.933451
12.710000	-294.933451
12.720000	-233.776823
12.730000	-179.321450
12.740000	-174.180682
12.750000	-174.180682
12.760000	-174.180682
12.770000	-230.368134
12.780000	-271.106038
12.790000	-271.106038
12.800000	-271.106038
12.810000	-253.198958
12.820000	-162.221671
12.830000	-69.549364
12.840000	38.566933
12.850000	105.918939
12.860000	229.788812
12.870000	323.895624
12.880000	479.511757
12.890000	586.332914
12.900000	749.842475
12.910000	857.186462
12.920000	1031.839063
12.930000	1121.299637
12.940000	1289.723813
12.950000	1356.485106
12.960000	1516.660541
12.970000	1555.566023
12.980000	1555.566023
12.990000	1555.566023
13.000000	291.703449
13.010000	264.190391
13.020000	264.190391
13.030000	264.190391
13.040000	264.190391
13.050000	262.108313
13.060000	257.282656
13.070000	190.418356
13.080000	190.418356
13.090000	190.418356
13.100000	209.512768
13.110000	235.148120
13.120000	325.215673
13.130000	371.193105
13.140000	454.473986
13.150000	511.875529
13.160000	608.118863
13.170000	682.248775
13.180000	785.107534
13.190000	868.387158
13.200000	983.408025
13.210000	1081.289233
13.220000	1186.950831
13.230000	1289.132257
13.240000	1407.619932
13.250000	1517.895309
13.260000	1632.433036
13.270000	1735.624302
13.280000	1835.354410
13.290000	1835.354410
13.300000	1835.354410
13.310000	1716.030810
13.320000	1458.368353
13.330000	1191.073831
13.340000	960.356800
13.350000	795.117417
13.360000	679.270381
13.370000	621.277691
13.380000	621.277691
13.390000	621.277691
13.400000	852.371927
13.410000	916.444709
13.420000	962.478094
13.430000	1039.832230
13.440000	1107.388946
13.450000	1206.499993
13.460000	1302.144299
13.470000	1419.387580
13.480000	1542.843859
13.490000	1682.400404
13.500000	1801.472102
13.510000	1922.632527
13.520000	2041.082462
13.530000	2166.963453
13.540000	2272.647311
13.550000	2383.498602
13.560000	2486.164926
13.570000	2486.164926
13.580000	2486.164926
13.590000	2395.931041
13.600000	2140.032853
13.610000	1884.183185
13.620000	1655.306985
13.630000	1507.571871
13.640000	1405.396650
13.650000	1366.079110
13.660000	1366.079110
13.670000	1366.079110
13.680000	1412.152374
13.690000	1497.266959
13.700000	1532.675191
13.710000	1552.085241
13.720000	1552.085241
13.730000	1552.085241
13.740000	1507.802664
13.750000	1507.802664
13.760000	1502.826533
13.770000	1507.802664
13.780000	1515.185975
13.790000	1585.416662
13.800000	2188.103351
13.810000	2208.885465
13.820000	2208.885465
13.830000	2208.885465
13.840000	2208.885465
13.850000	2295.518827
13.860000	2358.767354
13.870000	2459.734481
13.880000	2503.426489
13.890000	2551.785332
13.900000	2551.785332
13.910000	2556.460819
13.920000	2562.639340
13.930000	2564.153111
13.940000	2569.805642
13.950000	2611.977353
13.960000	2646.530421
13.970000	2706.079043
13.980000	2760.148472
13.990000	2834.401360
14.000000	2905.698801
14.010000	2995.913476
14.020000	3082.192297
14.030000	3184.609326
14.040000	3284.645428
14.050000	3391.446575
14.060000	3497.116930
14.070000	3611.397186
14.080000	3723.596959
14.090000	3835.446252
14.100000	3941.120257
14.110000	3941.120257
14.120000	3941.120257
14.130000	3818.639358
14.140000	3539.362369
14.150000	3218.036213
14.160000	2919.106874
14.170000	2690.448642
14.180000	2526.765925
14.190000	2416.905035
14.200000	2338.453563
14.210000	2300.092684
14.220000	2300.092684
14.230000	2300.092684
14.240000	2313.755962
14.250000	2313.755962
14.260000	2313.755962
14.270000	2266.584352
14.280000	2203.692163
14.290000	2146.420967
14.300000	2095.625345
14.310000	2071.362870
14.320000	2071.362870
14.330000	2071.362870
14.340000	2082.414032
14.350000	2112.540236
14.360000	2154.361860
14.370000	2202.697922
14.380000	2264.389957
14.390000	2330.859697
14.400000	2402.488278
14.410000	2470.039836
14.420000	2547.694841
14.430000	2629.206932
14.440000	2708.945272
14.450000	2789.437716
14.460000	2789.437716
14.470000	2789.437716
14.480000	2637.458289
14.490000	2347.968178
14.500000	2013.974198
14.510000	1719.384880
14.520000	1491.368790
14.530000	1320.735217
14.540000	1200.802735
14.550000	1112.081790
14.560000	1053.783282
14.570000	1053.783282
14.580000	1053.783282
14.590000	1053.783282
14.600000	1053.783282
14.610000	1019.398417
14.620000	960.836882
14.630000	899.933351
14.640000	844.391568
14.650000	805.498683
14.660000	789.529912
14.670000	789.529912
14.680000	789.529912
14.690000	806.610259
14.700000	838.172800
14.710000	887.164101
14.720000	941.787799
14.730000	1003.766522
14.740000	1070.400939
14.750000	1146.398404
14.760000	1227.998767
14.770000	1313.041442
14.780000	1398.600067
14.790000	1482.691452
14.800000	1482.691452
14.810000	1482.691452
14.820000	1430.622760
14.830000	1161.047710
14.840000	807.294717
14.850000	464.895582
14.860000	186.845613
14.870000	-31.420133
14.880000	-204.638184
14.890000	-337.716875
14.900000	-450.171387
14.910000	-516.901627
14.920000	-540.482650
14.930000	-541.122434
14.940000	-542.798774
14.950000	-561.336429
14.960000	-615.158685
14.970000	-686.494535
14.980000	-761.859449
14.990000	-814.637130
15.000000	-861.701454
15.010000	-869.643090
15.020000	-869.643090
15.030000	-869.643090
15.040000	-853.860028
15.050000	-814.483895
15.060000	-775.178856
15.070000	-715.233105
15.080000	-659.654737
15.090000	-659.654737
15.100000	-659.654737
15.110000	-982.647153
15.120000	-1323.269328
15.130000	-1579.164946
15.140000	-1790.231194
15.150000	-1937.560925
15.160000	-2081.451444
15.170000	-2177.711898
15.180000	-2258.925662
15.190000	-2261.643321
15.200000	-2289.185625
15.210000	-2289.905214
15.220000	-2350.331504
15.230000	-2402.331891
15.240000	-2507.172639
15.250000	-2562.076206
15.260000	-2651.579843
15.270000	-2656.313064
15.280000	-2656.313064
15.290000	-2656.313064
15.300000	-2672.856154
15.310000	-2672.856154
15.320000	-2743.945702
15.330000	-2928.323324
15.340000	-3124.578249
15.350000	-3229.834759
15.360000	-3358.869415
15.370000	-3415.829333
15.380000	-3446.450550
15.390000	-3455.616847
15.400000	-3461.153144
15.410000	-3461.153144
15.420000	-3520.103730
15.430000	-3570.370037
15.440000	-3655.487343
15.450000	-3689.820772
15.460000	-3747.377588
15.470000	-3747.377588
15.480000	-3747.377588
15.490000	-3730.641212
15.500000	-3722.717653
15.510000	-3650.922429
15.520000	-3609.253378
15.530000	-3510.778683
15.540000	-3460.388380
15.550000	-3335.081871
15.560000	-3274.317507
15.570000	-3133.679024
15.580000	-3072.153968
15.590000	-2920.448886
15.600000	-2406.986211
15.610000	-2406.986211
15.620000	-2406.986211
15.630000	-2678.474191
15.640000	-2984.325970
15.650000	-3156.195747
15.660000	-3329.576536
15.670000	-3410.363197
15.680000	-3509.466889
15.690000	-3537.433429
15.700000	-3537.433429
15.710000	-3537.433429
15.720000	-3527.217957
15.730000	-3527.217957
15.740000	-3527.217957
15.750000	-3558.224995
15.760000	-3614.924484
15.770000	-3643.820042
15.780000	-3661.129867
15.790000	-3661.129867
15.800000	-3661.129867
15.810000	-3617.834792
15.820000	-3570.562525
15.830000	-3509.286441
15.840000	-3444.127306
15.850000	-3354.730992
15.860000	-3260.878719
15.870000	-3153.171566
15.880000	-3051.787287
15.890000	-2938.582539
15.900000	-2830.868596
15.910000	-2717.991759
15.920000	-2615.095487
15.930000	-2511.404176
15.940000	-2415.449433
15.950000	-2304.805214
15.960000	-2202.000106
15.970000	-2088.165399
15.980000	-1975.709109
15.990000	-1842.502718
16.000000	-1719.635821
16.010000	-1583.761605
16.020000	-1583.761605
16.030000	-1583.761605
16.040000	-1638.212177
16.050000	-1885.079718
16.060000	-2164.587666
16.070000	-2402.165345
16.080000	-2592.220168
16.090000	-2723.301893
16.100000	-2826.034676
16.110000	-2884.376135
16.120000	-2884.376135
16.130000	-2884.376135
16.140000	-2882.500699
16.150000	-2827.922080
16.160000	-2827.922080
16.170000	-2827.922080
16.180000	-2864.188140
16.190000	-2865.516025
16.200000	-2875.566550
16.210000	-2875.566550
16.220000	-2875.566550
16.230000	-2808.323553
16.240000	-2786.277065
16.250000	-2654.298801
16.260000	-2598.652701
16.270000	-2434.308452
16.280000	-2374.174618
16.290000	-2186.148261
16.300000	-701.174630
16.310000	-473.264330
16.320000	-370.099510
16.330000	-154.888735
16.340000	-55.347953
16.350000	-55.347953
16.360000	-55.347953
16.370000	-123.065429
16.380000	-414.857497
16.390000	-644.877346
16.400000	-894.783880
16.410000	-1056.208441
16.420000	-1225.312165
16.430000	-1326.105895
16.440000	-1427.276024
16.450000	-1480.719812
16.460000	-1496.121904
16.470000	-1496.121904
16.480000	-1501.976087
16.490000	-1501.976087
16.500000	-1501.976087
16.510000	-1524.233749
16.520000	-1564.041351
16.530000	-1581.029129
16.540000	-1581.029129
16.550000	-1581.029129
16.560000	-1563.819612
16.570000	-1514.187457
16.580000	-1453.439778
16.590000	-1368.655286
16.600000	-1273.153485
16.610000	-1163.096334
16.620000	-1050.931129
16.630000	-935.518127
16.640000	-821.742233
16.650000	-688.885355
16.660000	-554.673521
16.670000	-420.220382
16.680000	-285.614244
16.690000	-152.570956
16.700000	-23.566956
16.710000	106.089439
16.720000	225.429783
16.730000	337.782746
16.740000	440.404669
16.750000	539.496624
16.760000	636.363286
16.770000	734.214088
16.780000	835.318850
16.790000	835.318850
16.800000	835.318850
16.810000	773.478518
16.820000	556.359701
16.830000	337.265579
16.840000	157.374030
16.850000	25.972646
16.860000	-58.633072
16.870000	-108.338437
16.880000	-108.338437
16.890000	-108.338437
16.900000	-101.576873
16.910000	-42.882265
16.920000	22.391885
16.930000	69.879606
16.940000	69.879606
16.950000	69.879606
16.960000	64.806633
16.970000	64.806633
16.980000	64.806633
16.990000	90.049859
17.000000	131.112755
17.010000	177.687430
17.020000	246.520103
17.030000	310.231863
17.040000	399.115036
17.050000	486.650579
17.060000	591.866517
17.070000	684.967773
17.080000	800.829318
17.090000	904.126980
17.100000	1031.024401
17.110000	1137.101906
17.120000	1267.503630
17.130000	1373.859237
17.140000	1510.304743
17.150000	1610.326622
17.160000	1745.527705
17.170000	1836.422599
17.180000	1836.422599
17.190000	1836.422599
17.200000	1555.875496
17.210000	1514.580375
17.220000	1514.580375
17.230000	1514.580375
17.240000	1570.859540
17.250000	1605.219139
17.260000	1651.842914
17.270000	1651.842914
17.280000	1651.842914
17.290000	1609.098804
17.300000	1594.377062
17.310000	1591.246299
17.320000	1591.246299
17.330000	1591.246299
17.340000	1628.142303
17.350000	1663.663398
17.360000	1722.346067
17.370000	1780.009380
17.380000	1860.745959
17.390000	1940.286914
17.400000	2025.296017
17.410000	2100.570414
17.420000	2176.984527
17.430000	2251.884376
17.440000	2332.769322
17.450000	2404.204511
17.460000	2488.728327
17.470000	2564.473333
17.480000	2639.841842
17.490000	2714.791037
17.500000	2793.038452
17.510000	2878.181852
17.520000	2971.302247
17.530000	3067.631339
17.540000	3067.631339
17.550000	3067.631339
17.560000	2942.931896
17.570000	2749.886723
17.580000	2552.465534
17.590000	2402.683131
17.600000	2299.933337
17.610000	2227.514518
17.620000	2227.514518
17.630000	2227.514518
17.640000	2241.286332
17.650000	2331.336690
17.660000	2436.993562
17.670000	2506.316554
17.680000	2519.948847
17.690000	2519.948847
17.700000	2519.948847
17.710000	2485.564966
17.720000	2450.048053
17.730000	2450.048053
17.740000	2450.048053
17.750000	2457.212629
17.760000	2479.377865
17.770000	2511.678043
17.780000	2550.655684
17.790000	2602.254841
17.800000	2657.979614
17.810000	2718.943996
17.820000	2786.390034
17.830000	2850.689595
17.840000	2919.935569
17.850000	2992.495049
17.860000	3065.564564
17.870000	3154.436971
17.880000	3238.180902
17.890000	3327.552814
17.900000	3414.833416
17.910000	3498.773358
17.920000	3575.565827
17.930000	3575.565827
17.940000	3575.565827
17.950000	3438.495178
17.960000	3202.169762
17.970000	2959.231804
17.980000	2749.024743
17.990000	2670.189230
18.000000	2665.927939
18.010000	2665.927939
18.020000	2667.843726
18.030000	2667.843726
18.040000	2690.313333
18.050000	2726.925452
18.060000	2770.379203
18.070000	2833.145842
18.080000	2895.440525
18.090000	2976.557282
18.100000	3056.477240
18.110000	3146.136745
18.120000	3234.536326
18.130000	3333.862105
18.140000	3431.609389
18.150000	3530.711216
18.160000	3628.748639
18.170000	3730.660937
18.180000	3830.939084
18.190000	3928.702734
18.200000	4013.181175
18.210000	4013.181175
18.220000	4013.181175
18.230000	3915.088614
18.240000	3654.729184
18.250000	3337.587717
18.260000	3040.213678
18.270000	2803.061937
18.280000	2627.664780
18.290000	2506.584269
18.300000	2425.168035
18.310000	2370.181667
18.320000	2370.181667
18.330000	2370.181667
18.340000	2381.220256
18.350000	2381.220256
18.360000	2381.220256
18.370000	2334.300197
18.380000	2277.062048
18.390000	2221.166278
18.400000	2175.960806
18.410000	2142.070774
18.420000	2142.070774
18.430000	2142.070774
18.440000	2147.012491
18.450000	2174.984551
18.460000	2215.088512
18.470000	2266.060200
18.480000	2324.213252
18.490000	2394.213103
18.500000	2464.346254
18.510000	2539.463667
18.520000	2611.494832
18.530000	2689.812091
18.540000	2769.653413
18.550000	2846.208061
18.560000	2922.881076
18.570000	2922.881076
18.580000	2922.881076
18.590000	2845.988130
18.600000	2585.460731
18.610000	2252.569165
18.620000	1937.996740
18.630000	1687.063491
18.640000	1501.449473
18.650000	1367.551114
18.660000	1271.936630
18.670000	1209.093107
18.680000	1209.093107
18.690000	1209.093107
18.700000	1213.629705
18.710000	1213.629705
18.720000	1213.629705
18.730000	1167.799952
18.740000	1110.275586
18.750000	1047.427922
18.760000	1000.983923
18.770000	975.026303
18.780000	975.026303
18.790000	975.026303
18.800000	980.297488
18.810000	1004.430888
18.820000	1042.956962
18.830000	1089.131712
18.840000	1144.648451
18.850000	1205.825156
18.860000	1271.352376
18.870000	1343.532968
18.880000	1425.060339
18.890000	1504.202638
18.900000	1579.797316
18.910000	1608.517120
18.920000	1608.517120
18.930000	1608.517120
18.940000	1381.053934
18.950000	1055.373866
18.960000	715.806604
18.970000	419.144223
18.980000	182.437799
18.990000	10.868083
19.000000	-119.025141
19.010000	-221.399556
19.020000	-291.454637
19.030000	-300.901936
19.040000	-309.028336
19.050000	-311.652412
19.060000	-314.654595
19.070000	-363.138048
19.080000	-434.240352
19.090000	-503.369511
19.100000	-564.909422
19.110000	-604.610016
19.120000	-617.533971
19.130000	-617.533971
19.140000	-617.533971
19.150000	-588.080411
19.160000	-555.444114
19.170000	-501.297763
19.180000	-443.497222
19.190000	-443.497222
19.200000	-443.497222
19.210000	-764.949273
19.220000	-1086.963435
19.230000	-1331.271710
19.240000	-1529.242147
19.250000	-1679.558618
19.260000	-1803.639041
19.270000	-1899.839416
19.280000	-1970.104504
19.290000	-1985.094472
19.300000	-1991.841369
19.310000	-2008.332841
19.320000	-2057.656763
19.330000	-2127.540031
19.340000	-2204.536285
19.350000	-2276.820421
19.360000	-2334.491220
19.370000	-2373.187523
19.380000	-2373.187523
19.390000	-2373.187523
19.400000	-2364.674632
19.410000	-2333.120079
19.420000	-2282.865792
19.430000	-2222.744114
19.440000	-2156.122614
19.450000	-2072.411738
19.460000	-1992.549191
19.470000	-1905.074768
19.480000	-1824.131690
19.490000	-1737.752884
19.500000	-1647.840269
19.510000	-1555.518029
19.520000	-1466.652204
19.530000	-1448.367047
19.540000	-1448.367047
19.550000	-1448.367047
19.560000	-1693.697017
19.570000	-2031.211073
19.580000	-2367.723947
19.590000	-2658.285804
19.600000	-2890.940806
19.610000	-3069.504231
19.620000	-3209.290684
19.630000	-3325.825709
19.640000	-3421.708547
19.650000	-3474.182031
19.660000	-3475.773131
19.670000	-3478.280741
19.680000	-3488.906675
19.690000	-3536.462981
19.700000	-3605.554787
19.710000	-3672.232476
19.720000	-3734.373727
19.730000	-3776.075824
19.740000	-3776.075824
19.750000	-3776.075824
19.760000	-3773.436521
19.770000	-3738.122977
19.780000	-3687.620302
19.790000	-3627.346275
19.800000	-3553.896676
19.810000	-3472.711327
19.820000	-3379.263755
19.830000	-3281.228563
19.840000	-3182.740356
19.850000	-3083.854391
19.860000	-2981.328227
19.870000	-2880.624967
19.880000	-2783.025942
19.890000	-2685.505516
19.900000	-2588.856403
19.910000	-2487.491238
19.920000	-2386.840241
19.930000	-2290.595709
19.940000	-2290.595709
19.950000	-2290.595709
19.960000	-2488.258528
19.970000	-2790.161773
19.980000	-3107.472357
19.990000	-3372.589236
20.000000	-3578.979850
20.010000	-3728.165031
20.020000	-3844.677015
20.030000	-3940.833985
20.040000	-4006.439259
20.050000	-4006.439259
20.060000	-4006.439259
20.070000	-4022.350145
20.080000	-4022.350145
20.090000	-4024.754950
20.100000	-4072.485784
20.110000	-4123.932681
20.120000	-4166.753401
20.130000	-4177.745151
20.140000	-4177.745151
20.150000	-4177.745151
20.160000	-4145.655170
20.170000	-4095.333538
20.180000	-4033.329246
20.190000	-3959.029358
20.200000	-3875.139348
20.210000	-3778.836691
20.220000	-3679.108339
20.230000	-3571.733934
20.240000	-3459.221707
20.250000	-3347.766888
20.260000	-3235.438002
20.270000	-3122.931953
20.280000	-3008.772845
20.290000	-2898.239688
20.300000	-2790.213816
20.310000	-2675.648913
20.320000	-2558.814170
20.330000	-2450.197558
20.340000	-2406.312643
20.350000	-2406.312643
20.360000	-2406.312643
20.370000	-2614.814625
20.380000	-2882.090195
20.390000	-3124.651203
20.400000	-3304.110219
20.410000	-3422.717394
20.420000	-3490.268348
20.430000	-3495.212127
20.440000	-3495.212127
20.450000	-3495.212127
20.460000	-3435.855353
20.470000	-3352.690051
20.480000	-3283.368382
20.490000	-3240.210857
20.500000	-3209.922727
20.510000	-3169.816727
20.520000	-3116.640481
20.530000	-3057.560392
20.540000	-2967.377652
20.550000	-2843.473497
20.560000	-2694.251611
20.570000	-2525.484965
20.580000	-2354.261292
20.590000	-2181.555864
20.600000	-2008.373763
20.610000	-1830.714731
20.620000	-1650.603495
20.630000	-1470.975797
20.640000	-1299.946118
20.650000	-1131.295123
20.660000	-975.430991
20.670000	-832.682290
20.680000	-712.034102
20.690000	-622.161999
20.700000	-539.641365
20.710000	-445.745852
20.720000	-331.365196
20.730000	-219.506989
20.740000	-105.099888
20.750000	-105.099888
20.760000	-105.099888
20.770000	-168.366916
20.780000	-421.935053
20.790000	-705.160779
20.800000	-947.963405
20.810000	-1128.166536
20.820000	-1248.138389
20.830000	-1331.308248
20.840000	-1382.338823
20.850000	-1382.338823
20.860000	-1382.338823
20.870000	-1358.880231
20.880000	-1312.895080
20.890000	-1295.766010
20.900000	-1295.766010
20.910000	-1295.766010
20.920000	-1295.766010
20.930000	-1295.766010
20.940000	-1285.205828
20.950000	-1258.851596
20.960000	-1219.778441
20.970000	-1163.491654
20.980000	-1097.444384
20.990000	-1008.133431
21.000000	-905.232015
21.010000	-791.813863
21.020000	-674.083769
21.030000	-557.546633
21.040000	-438.964503
21.050000	-335.386845
21.060000	-239.829672
21.070000	-151.292658
21.080000	-64.731620
21.090000	25.757287
21.100000	114.288732
21.110000	211.809426
21.120000	314.225018
21.130000	418.823891
21.140000	526.130002
21.150000	630.783284
21.160000	631.911738
21.170000	631.911738
21.180000	631.911738
21.190000	421.394556
21.200000	185.961572
21.210000	-3.789060
21.220000	-143.199757
21.230000	-239.032838
21.240000	-304.406085
21.250000	-362.330078
21.260000	-366.759131
21.270000	-366.759131
21.280000	-366.759131
21.290000	-327.995798
21.300000	-324.361784
21.310000	-324.361784
21.320000	-324.361784
21.330000	-370.569250
21.340000	-425.658101
21.350000	-478.877250
21.360000	-502.319166
21.370000	-502.319166
21.380000	-502.319166
21.390000	-465.523032
21.400000	-408.676504
21.410000	-333.860149
21.420000	-244.040910
21.430000	-142.200643
21.440000	-22.382804
21.450000	105.414304
21.460000	234.284360
21.470000	373.074386
21.480000	518.922532
21.490000	664.727291
21.500000	808.580733
21.510000	950.392245
21.520000	1090.247767
21.530000	1237.091161
21.540000	1381.876302
21.550000	1526.833232
21.560000	1682.541217
21.570000	1824.493641
21.580000	1824.493641
21.590000	1824.493641
21.600000	1720.870725
21.610000	1493.057834
21.620000	1257.666846
21.630000	1065.909016
21.640000	930.380107
21.650000	838.716018
21.660000	790.150765
21.670000	790.150765
21.680000	790.150765
21.690000	825.234177
21.700000	891.933854
21.710000	944.024952
21.720000	963.824168
21.730000	963.824168
21.740000	963.824168
21.750000	963.824168
21.760000	963.824168
21.770000	990.701762
21.780000	1012.896745
21.790000	1048.769501
21.800000	1097.884718
21.810000	1156.871571
21.820000	1241.970024
21.830000	1337.931696
21.840000	1446.146629
21.850000	1566.033058
21.860000	1676.314092
21.870000	1788.272583
21.880000	1900.496449
21.890000	2015.573873
21.900000	2127.707556
21.910000	2236.943987
21.920000	2337.957665
21.930000	2442.415496
21.940000	2550.231168
21.950000	2648.909537
21.960000	2743.610700
21.970000	2743.610700
21.980000	2743.610700
21.990000	2711.928166
22.000000	2485.541445
22.010000	2188.658433
22.020000	1902.256685
22.030000	1676.367243
22.040000	1516.915117
22.050000	1404.070430
22.060000	1325.660467
22.070000	1294.583724
22.080000	1294.583724
22.090000	1294.583724
22.100000	1305.526141
22.110000	1305.526141
22.120000	1305.526141
22.130000	1246.340379
22.140000	1174.698089
22.150000	1118.352888
22.160000	1089.057663
22.170000	1089.057663
22.180000	1089.057663
22.190000	1118.670462
22.200000	1153.314307
22.210000	1197.984637
22.220000	1264.667265
22.230000	1334.291267
22.240000	1402.138028
22.250000	1483.732505
22.260000	1573.630823
22.270000	1669.261865
22.280000	1777.229646
22.290000	1896.852630
22.300000	2013.873174
22.310000	2110.516293
22.320000	2205.700595
22.330000	2312.246861
22.340000	2408.517557
22.350000	2495.123233
22.360000	2525.385009
22.370000	2525.385009
22.380000	2525.385009
22.390000	2353.065453
22.400000	2128.518105
22.410000	1910.303004
22.420000	1735.680575
22.430000	1618.564703
22.440000	1544.854755
22.450000	1487.880906
22.460000	1487.880906
22.470000	1487.880906
22.480000	1495.524306
22.490000	1536.860113
22.500000	1536.860113
22.510000	1536.860113
22.520000	1534.662948
22.530000	1492.083887
22.540000	1458.438409
22.550000	1441.607627
22.560000	1441.607627
22.570000	1441.607627
22.580000	1468.220621
22.590000	1510.527375
22.600000	1563.223453
22.610000	1623.547794
22.620000	1689.321783
22.630000	1761.671388
22.640000	1840.511077
22.650000	1930.903598
22.660000	2024.758891
22.670000	2124.258824
22.680000	2234.108586
22.690000	2350.686264
22.700000	2465.540224
22.710000	2575.222763
22.720000	2682.083190
22.730000	2776.822754
22.740000	2776.822754
22.750000	2776.822754
22.760000	2685.477196
22.770000	2473.262855
22.780000	2225.420727
22.790000	2000.221464
22.800000	1824.373128
22.810000	1711.238926
22.820000	1642.333496
22.830000	1642.333496
22.840000	1642.333496
22.850000	1683.627542
22.860000	1758.517223
22.870000	1813.919045
22.880000	1850.827714
22.890000	1850.827714
22.900000	1850.827714
22.910000	1844.697378
22.920000	1844.697378
22.930000	1844.697378
22.940000	1856.541421
22.950000	1886.804190
22.960000	1931.311595
22.970000	1988.474627
22.980000	2051.159443
22.990000	2129.284547
23.000000	2211.039992
23.010000	2299.226695
23.020000	2396.010600
23.030000	2495.237486
23.040000	2599.095292
23.050000	2701.315885
23.060000	2803.291505
23.070000	2908.490097
23.080000	3010.550445
23.090000	3113.782940
23.100000	3186.221477
23.110000	3186.221477
23.120000	3186.221477
23.130000	3013.542710
23.140000	2746.829643
23.150000	2439.146627
23.160000	2150.542957
23.170000	1924.791248
23.180000	1761.219037
23.190000	1645.482575
23.200000	1564.983572
23.210000	1537.077910
23.220000	1537.077910
23.230000	1537.077910
23.240000	1537.077910
23.250000	1537.077910
23.260000	1521.891394
23.270000	1472.983897
23.280000	1413.042054
23.290000	1361.100433
23.300000	1323.234272
23.310000	1322.606142
23.320000	1322.606142
23.330000	1322.606142
23.340000	1348.717348
23.350000	1391.034953
23.360000	1443.010491
23.370000	1500.542546
23.380000	1569.402048
23.390000	1642.084205
23.400000	1724.901304
23.410000	1812.663232
23.420000	1904.480533
23.430000	1997.303676
23.440000	2091.134671
23.450000	2183.001647
23.460000	2183.001647
23.470000	2183.001647
23.480000	2111.610486
23.490000	1873.508196
23.500000	1572.537208
23.510000	1286.531456
23.520000	1058.427577
23.530000	894.512615
23.540000	784.329576
23.550000	708.526012
23.560000	708.526012
23.570000	708.526012
23.580000	721.355266
23.590000	732.900786
23.600000	732.900786
23.610000	732.900786
23.620000	690.607340
23.630000	642.143889
23.640000	605.849663
23.650000	592.719411
23.660000	592.719411
23.670000	592.719411
23.680000	623.395525
23.690000	665.090123
23.700000	716.723327
23.710000	775.496977
23.720000	848.117071
23.730000	924.897621
23.740000	1006.577226
23.750000	1095.338973
23.760000	1185.050239
23.770000	1281.848675
23.780000	1377.517419
23.790000	1443.884959
23.800000	1443.884959
23.810000	1443.884959
23.820000	1237.488327
23.830000	916.555528
23.840000	566.229980
23.850000	260.220661
23.860000	19.852606
23.870000	-156.152563
23.880000	-281.536399
23.890000	-383.541392
23.900000	-446.116543
23.910000	-446.116543
23.920000	-446.116543
23.930000	-446.116543
23.940000	-446.116543
23.950000	-478.716949
23.960000	-534.509584
23.970000	-588.074191
23.980000	-629.685696
23.990000	-647.753796
24.000000	-647.753796
24.010000	-647.753796
24.020000	-621.106470
24.030000	-577.029001
24.040000	-522.364466
24.050000	-456.279305
24.060000	-377.618836
24.070000	-293.550795
24.080000	-204.855058
24.090000	-107.810383
24.100000	-7.115933
24.110000	86.912013
24.120000	191.695730
24.130000	299.560768
24.140000	401.497954
24.150000	401.497954
24.160000	401.497954
24.170000	260.763288
24.180000	-49.952823
24.190000	-401.383241
24.200000	-726.202702
24.210000	-975.593861
24.220000	-1166.647932
24.230000	-1313.812615
24.240000	-1425.091919
24.250000	-1516.069696
24.260000	-1549.916880
24.270000	-1549.916880
24.280000	-1563.447666
24.290000	-1564.402602
24.300000	-1567.369531
24.310000	-1614.084128
24.320000	-1669.793552
24.330000	-1723.464983
24.340000	-1760.233625
24.350000	-1760.233625
24.360000	-1760.233625
24.370000	-1745.348830
24.380000	-1707.277409
24.390000	-1649.787166
24.400000	-1585.915838
24.410000	-1511.210518
24.420000	-1424.597487
24.430000	-1334.695303
24.440000	-1231.263013
24.450000	-1125.274888
24.460000	-1016.936339
24.470000	-911.907672
24.480000	-806.623374
24.490000	-699.586011
24.500000	-587.345741
24.510000	-482.349520
24.520000	-378.058281
24.530000	-375.126246
24.540000	-375.126246
24.550000	-375.126246
24.560000	-637.729348
24.570000	-980.870378
24.580000	-1303.472383
24.590000	-1560.817217
24.600000	-1760.407542
24.610000	-1903.797190
24.620000	-2012.447618
24.630000	-2099.806145
24.640000	-2152.606162
24.650000	-2152.606162
24.660000	-2152.606162
24.670000	-2152.606162
24.680000	-2152.606162
24.690000	-2183.229847
24.700000	-2236.930057
24.710000	-2287.477596
24.720000	-2322.150337
24.730000	-2322.150337
24.740000	-2322.150337
24.750000	-2308.156335
24.760000	-2272.856389
24.770000	-2221.560638
24.780000	-2154.311096
24.790000	-2077.042412
24.800000	-1988.808717
24.810000	-1894.602821
24.820000	-1794.355254
24.830000	-1689.229923
24.840000	-1577.958893
24.850000	-1475.967117
24.860000	-1368.544459
24.870000	-1255.810179
24.880000	-1154.240521
24.890000	-1045.623964
24.900000	-937.072550
24.910000	-823.470988
24.920000	-711.002837
24.930000	-598.365072
24.940000	-598.365072
24.950000	-598.365072
24.960000	-691.186799
24.970000	-972.358440
24.980000	-1279.176636
24.990000	-1541.417509
25.000000	-1739.375504
25.010000	-1876.611116
25.020000	-1977.703087
25.030000	-2046.819989
25.040000	-2054.632478
25.050000	-2054.632478
25.060000	-2054.632478
25.070000	-2020.771272
25.080000	-2020.771272
25.090000	-2020.771272
25.100000	-2060.892450
25.110000	-2099.168030
25.120000	-2137.681490
25.130000	-2137.681490
25.140000	-2137.681490
25.150000	-2125.995612
25.160000	-2092.727808
25.170000	-2036.409191
25.180000	-1972.984906
25.190000	-1893.830296
25.200000	-1806.361190
25.210000	-1702.283491
25.220000	-1597.880310
25.230000	-1479.730518
25.240000	-1369.571489
25.250000	-1239.115706
25.260000	-1126.520777
25.270000	-993.366225
25.280000	-880.764204
25.290000	-880.764204
25.300000	-880.764204
25.310000	-956.815007
25.320000	-1240.251550
25.330000	-1401.348390
25.340000	-1536.819487
25.350000	-1638.669984
25.360000	-1736.566654
25.370000	-1782.854978
25.380000	-1802.042047
25.390000	-1804.594767
25.400000	-1816.812116
25.410000	-1854.204950
25.420000	-1919.103823
25.430000	-1982.349768
25.440000	-2046.558115
25.450000	-2054.614511
25.460000	-2054.614511
25.470000	-2054.614511
25.480000	-2014.992032
25.490000	-1965.819073
25.500000	-1912.844313
25.510000	-1851.068389
25.520000	-1778.779701
25.530000	-1692.386408
25.540000	-1600.823137
25.550000	-1503.752370
25.560000	-1404.951040
25.570000	-1300.169198
25.580000	-1192.170857
25.590000	-1073.630693
25.600000	-961.529531
25.610000	-856.118048
25.620000	-753.949566
25.630000	-665.715451
25.640000	-590.408381
25.650000	-520.365174
25.660000	-447.937525
25.670000	-373.105819
25.680000	-291.524434
25.690000	-208.943517
25.700000	-208.943517
25.710000	-208.943517
25.720000	-304.046603
25.730000	-596.812014
25.740000	-951.673301
25.750000	-1276.750805
25.760000	-1543.541069
25.770000	-1732.781633
25.780000	-1873.608070
25.790000	-1986.855607
25.800000	-2082.711395
25.810000	-2149.935916
25.820000	-2163.094464
25.830000	-2172.169361
25.840000	-2172.487151
25.850000	-2172.487151
25.860000	-2198.305298
25.870000	-2228.841004
25.880000	-2260.600828
25.890000	-2288.251448
25.900000	-2288.251448
25.910000	-2288.251448
25.920000	-2269.354307
25.930000	-2224.323002
25.940000	-2159.761084
25.950000	-2073.991026
25.960000	-1972.244658
25.970000	-1847.683113
25.980000	-1727.879348
25.990000	-1602.326587
26.000000	-1481.627354
26.010000	-1363.990708
26.020000	-1254.448125
26.030000	-1135.646708
26.040000	-1004.360378
26.050000	-867.382223
26.060000	-735.334453
26.070000	-599.114168
26.080000	-461.390765
26.090000	-328.906494
26.100000	-189.443484
26.110000	-49.798815
26.120000	98.498681
26.130000	243.205637
26.140000	280.304194
26.150000	280.304194
26.160000	280.304194
26.170000	58.915620
26.180000	-206.611285
26.190000	-438.237271
26.200000	-609.710332
26.210000	-710.473889
26.220000	-759.931570
26.230000	-784.034857
26.240000	-784.034857
26.250000	-784.034857
26.260000	-729.475641
26.270000	-669.325166
26.280000	-617.853264
26.290000	-598.960868
26.300000	-595.648872
26.310000	-594.217880
26.320000	-594.217880
26.330000	-580.314065
26.340000	-545.100171
26.350000	-498.743051
26.360000	-431.530246
26.370000	-352.251524
26.380000	-256.953210
26.390000	-149.809428
26.400000	-45.431163
26.410000	57.651296
26.420000	177.110634
26.430000	314.042525
26.440000	461.607458
26.450000	632.464915
26.460000	801.980239
26.470000	958.903236
26.480000	1098.350453
26.490000	1235.377037
26.500000	1374.673683
26.510000	1507.797004
26.520000	1643.025833
26.530000	1784.188482
26.540000	1924.332840
26.550000	1961.821334
26.560000	1961.821334
26.570000	1961.821334
26.580000	1807.004280
26.590000	1607.164668
26.600000	1399.401989
26.610000	1222.501912
26.620000	1092.727760
26.630000	1004.770459
26.640000	940.008145
26.650000	880.031388
26.660000	849.620431
26.670000	844.559748
26.680000	844.273440
26.690000	844.273440
26.700000	809.841186
26.710000	750.909269
26.720000	679.074017
26.730000	605.254256
26.740000	549.328568
26.750000	516.556769
26.760000	505.915539
26.770000	505.915539
26.780000	505.915539
26.790000	554.019812
26.800000	633.232629
26.810000	725.192651
26.820000	820.576082
26.830000	929.420747
26.840000	1040.864743
26.850000	1154.681191
26.860000	1275.169497
26.870000	1400.930160
26.880000	1516.440146
26.890000	1632.255945
26.900000	1755.707612
26.910000	1884.561624
26.920000	2018.988314
26.930000	2165.892896
26.940000	2278.536884
26.950000	2278.536884
26.960000	2278.536884
26.970000	2109.414025
26.980000	1885.969470
26.990000	1658.764859
27.000000	1472.395630
27.010000	1341.042474
27.020000	1245.741417
27.030000	1235.656588
27.040000	1235.656588
27.050000	1235.656588
27.060000	1302.532224
27.070000	1373.963339
27.080000	1423.900182
27.090000	1423.900182
27.100000	1423.900182
27.110000	1412.780822
27.120000	1383.651268
27.130000	1369.809926
27.140000	1369.809926
27.150000	1369.809926
27.160000	1421.385372
27.170000	1496.227948
27.180000	1588.838626
27.190000	1692.658325
27.200000	1797.296819
27.210000	1901.128419
27.220000	2003.774252
27.230000	2103.611072
27.240000	2196.260242
27.250000	2280.117608
27.260000	2365.796174
27.270000	2442.582063
27.280000	2517.397135
27.290000	2594.054653
27.300000	2662.978058
27.310000	2662.978058
27.320000	2662.978058
27.330000	2569.107211
27.340000	2334.057363
27.350000	2027.739396
27.360000	1699.742103
27.370000	1409.415139
27.380000	1178.339800
27.390000	1015.071728
27.400000	894.862570
27.410000	817.813025
27.420000	817.813025
27.430000	817.813025
27.440000	840.917894
27.450000	840.917894
27.460000	840.917894
27.470000	808.147308
27.480000	764.039036
27.490000	713.940208
27.500000	670.688541
27.510000	638.725349
27.520000	638.725349
27.530000	638.725349
27.540000	646.092810
27.550000	684.233691
27.560000	732.816744
27.570000	787.007593
27.580000	854.589548
27.590000	928.755464
27.600000	1009.394610
27.610000	1098.522860
27.620000	1187.183029
27.630000	1276.330781
27.640000	1366.984719
27.650000	1456.140543
27.660000	1540.799095
27.670000	1617.962755
27.680000	1617.962755
27.690000	1617.962755
27.700000	1521.484279
27.710000	1269.480311
27.720000	936.456905
27.730000	589.405918
27.740000	289.423942
27.750000	50.211654
27.760000	-138.665305
27.770000	-282.960050
27.780000	-385.737768
27.790000	-436.084259
27.800000	-450.877767
27.810000	-467.255612
27.820000	-513.986577
27.830000	-597.357305
27.840000	-711.053156
27.850000	-834.412258
27.860000	-960.149424
27.870000	-1069.428714
27.880000	-1164.296547
27.890000	-1241.424173
27.900000	-1306.462361
27.910000	-1354.384587
27.920000	-1384.634981
27.930000	-1384.634981
27.940000	-1384.634981
27.950000	-1381.321269
27.960000	-1359.919323
27.970000	-1332.336884
27.980000	-1293.997553
27.990000	-1241.351329
28.000000	-1177.089113
28.010000	-1103.360647
28.020000	-1020.171305
28.030000	-939.399252
28.040000	-937.219295
28.050000	-937.219295
28.060000	-937.219295
28.070000	-1170.693050
28.080000	-1456.028917
28.090000	-1703.708699
28.100000	-1884.000335
28.110000	-1973.740079
28.120000	-2006.239136
28.130000	-2006.239136
28.140000	-2006.239136
28.150000	-1944.647051
28.160000	-1835.334086
28.170000	-1716.711668
28.180000	-1613.389206
28.190000	-1543.757291
28.200000	-1505.385223
28.210000	-1491.376263
28.220000	-1490.787099
28.230000	-1484.777050
28.240000	-1462.403149
28.250000	-1430.806500
28.260000	-1387.402803
28.270000	-1329.834363
28.280000	-1247.377191
28.290000	-1138.886162
28.300000	-1010.368755
28.310000	-863.924655
28.320000	-715.395380
28.330000	-548.873149
28.340000	-375.493362
28.350000	-203.811513
28.360000	-22.533653
28.370000	154.183527
28.380000	322.457714
28.390000	339.078666
28.400000	339.078666
28.410000	339.078666
28.420000	162.556994
28.430000	-10.828206
28.440000	-156.448051
28.450000	-259.758443
28.460000	-318.482333
28.470000	-318.482333
28.480000	-318.482333
28.490000	-310.669865
28.500000	-240.470950
28.510000	-147.678546
28.520000	-61.483822
28.530000	7.368796
28.540000	52.520846
28.550000	77.448780
28.560000	103.580583
28.570000	134.485613
28.580000	182.670903
28.590000	241.475970
28.600000	311.788256
28.610000	400.489224
28.620000	495.861089
28.630000	595.534848
28.640000	701.953959
28.650000	810.568205
28.660000	923.071038
28.670000	1040.607230
28.680000	1156.173021
28.690000	1279.700158
28.700000	1396.214083
28.710000	1514.866928
28.720000	1627.214473
28.730000	1738.077864
28.740000	1738.077864
28.750000	1738.077864
28.760000	1575.020934
28.770000	1308.647484
28.780000	997.045969
28.790000	698.026687
