Time(s)	RED_denoised_wiener
0.000000	40.039495
0.010000	69.706601
0.020000	62.814125
0.030000	51.311314
0.040000	57.130610
0.050000	54.783622
0.060000	-14.981366
0.070000	-132.864282
0.080000	-217.258407
0.090000	-237.655628
0.100000	-232.394535
0.110000	-229.756244
0.120000	-233.467013
0.130000	-228.475974
0.140000	-212.913275
0.150000	-205.924565
0.160000	-208.313859
0.170000	-209.346387
0.180000	-204.068800
0.190000	-210.837597
0.200000	-238.135542
0.210000	-258.903660
0.220000	-268.603491
0.230000	-267.656247
0.240000	-264.767311
0.250000	-255.044818
0.260000	-242.629479
0.270000	-231.105609
0.280000	-221.826141
0.290000	-220.853497
0.300000	-213.640563
0.310000	-199.313509
0.320000	-179.804130
0.330000	-166.140142
0.340000	-157.944877
0.350000	-148.959320
0.360000	-134.766248
0.370000	-122.151698
0.380000	-108.237032
0.390000	-94.030903
0.400000	-79.380971
0.410000	-74.949682
0.420000	-78.833794
0.430000	-70.828449
0.440000	-57.370235
0.450000	-58.421669
0.460000	-56.815523
0.470000	-39.035934
0.480000	-53.441961
0.490000	-144.317068
0.500000	-271.849007
0.510000	-350.484341
0.520000	-368.804965
0.530000	-359.117186
0.540000	-342.074580
0.550000	-323.053915
0.560000	-302.677159
0.570000	-294.706268
0.580000	-301.260802
0.590000	-314.344052
0.600000	-320.843783
0.610000	-326.714426
0.620000	-352.814756
0.630000	-390.684830
0.640000	-425.783079
0.650000	-443.335476
0.660000	-453.500921
0.670000	-458.980167
0.680000	-461.898532
0.690000	-456.952620
0.700000	-443.657691
0.710000	-429.963365
0.720000	-419.754286
0.730000	-401.948409
0.740000	-366.201786
0.750000	-321.669353
0.760000	-282.345053
0.770000	-259.398479
0.780000	-246.456202
0.790000	-239.149302
0.800000	-229.908210
0.810000	-217.266659
0.820000	-200.378480
0.830000	-175.058190
0.840000	-133.188079
0.850000	-106.643143
0.860000	-104.953335
0.870000	-86.437920
0.880000	-44.164622
0.890000	-34.757966
0.900000	-103.027610
0.910000	-195.492313
0.920000	-244.536152
0.930000	-251.433694
0.940000	-236.113862
0.950000	-206.025505
0.960000	-168.375724
0.970000	-127.962286
0.980000	-109.376977
0.990000	-102.488830
1.000000	-90.378151
1.010000	-68.735343
1.020000	-47.437059
1.030000	-44.356023
1.040000	-43.421712
1.050000	-42.367021
1.060000	-37.421409
1.070000	-27.738657
1.080000	-10.100629
1.090000	10.514390
1.100000	33.880299
1.110000	58.410698
1.120000	79.165580
1.130000	96.301135
1.140000	115.780175
1.150000	143.838921
1.160000	178.017382
1.170000	209.672788
1.180000	234.245431
1.190000	255.174815
1.200000	274.448910
1.210000	284.630265
1.220000	291.668362
1.230000	311.759621
1.240000	331.117779
1.250000	330.519579
1.260000	327.981566
1.270000	348.276732
1.280000	348.638368
1.290000	281.666221
1.300000	178.489129
1.310000	115.825740
1.320000	105.138680
1.330000	116.850431
1.340000	132.463092
1.350000	152.571864
1.360000	168.405949
1.370000	180.295664
1.380000	170.610047
1.390000	158.430737
1.400000	159.114216
1.410000	153.113447
1.420000	125.273815
1.430000	72.472430
1.440000	40.878555
1.450000	39.706197
1.460000	56.399647
1.470000	80.588637
1.480000	107.913109
1.490000	134.782245
1.500000	168.431889
1.510000	199.906823
1.520000	221.930577
1.530000	237.033489
1.540000	255.091113
1.550000	282.124429
1.560000	307.848243
1.570000	328.541295
1.580000	348.602088
1.590000	372.265304
1.600000	387.619022
1.610000	388.311866
1.620000	384.655510
1.630000	387.333073
1.640000	414.017992
1.650000	446.228271
1.660000	460.673725
1.670000	480.223200
1.680000	511.256949
1.690000	516.738148
1.700000	449.785553
1.710000	349.461382
1.720000	299.408652
1.730000	302.935830
1.740000	324.563552
1.750000	343.756131
1.760000	364.423539
1.770000	389.210705
1.780000	408.219958
1.790000	407.290916
1.800000	394.715185
1.810000	398.395258
1.820000	422.114223
1.830000	438.383555
1.840000	426.501532
1.850000	412.803791
1.860000	419.513407
1.870000	432.092031
1.880000	441.843407
1.890000	449.708592
1.900000	465.499393
1.910000	490.603403
1.920000	518.434630
1.930000	544.805715
1.940000	559.988654
1.950000	566.007397
1.960000	575.873032
1.970000	588.470204
1.980000	599.381343
1.990000	604.901044
2.000000	611.550221
2.010000	626.967167
2.020000	645.314028
2.030000	658.324956
2.040000	657.709159
2.050000	661.385842
2.060000	673.363571
2.070000	673.009580
2.080000	667.725219
2.090000	674.957515
2.100000	669.265374
2.110000	601.135329
2.120000	477.589827
2.130000	386.831480
2.140000	359.049995
2.150000	368.000692
2.160000	383.794557
2.170000	395.850346
2.180000	418.902399
2.190000	434.234877
2.200000	433.331338
2.210000	418.943102
2.220000	409.428885
2.230000	415.923552
2.240000	409.374441
2.250000	384.594257
2.260000	361.011965
2.270000	354.880244
2.280000	359.877806
2.290000	358.759521
2.300000	354.756154
2.310000	350.593318
2.320000	345.246411
2.330000	343.397968
2.340000	338.995327
2.350000	341.198841
2.360000	345.995461
2.370000	358.979795
2.380000	378.261687
2.390000	396.030759
2.400000	414.842273
2.410000	435.027789
2.420000	462.389673
2.430000	484.593069
2.440000	499.917233
2.450000	507.110251
2.460000	511.412842
2.470000	517.575904
2.480000	537.544289
2.490000	553.241441
2.500000	555.649214
2.510000	569.949094
2.520000	587.275059
2.530000	555.819486
2.540000	447.579877
2.550000	334.912016
2.560000	282.810544
2.570000	282.079745
2.580000	291.565301
2.590000	296.932565
2.600000	309.668635
2.610000	325.017988
2.620000	338.048256
2.630000	335.356475
2.640000	341.140364
2.650000	365.932862
2.660000	380.397952
2.670000	370.826700
2.680000	348.331119
2.690000	341.040893
2.700000	344.782050
2.710000	345.166393
2.720000	346.890964
2.730000	354.229160
2.740000	361.911630
2.750000	365.230961
2.760000	361.541644
2.770000	358.196767
2.780000	356.089982
2.790000	357.435118
2.800000	360.562759
2.810000	361.936295
2.820000	363.986058
2.830000	367.366237
2.840000	379.360720
2.850000	386.338063
2.860000	395.056883
2.870000	402.548171
2.880000	415.377068
2.890000	426.317733
2.900000	435.982273
2.910000	459.389851
2.920000	474.080346
2.930000	474.102606
2.940000	472.492013
2.950000	479.067454
2.960000	451.019537
2.970000	346.962759
2.980000	220.734617
2.990000	150.182833
3.000000	141.511212
3.010000	155.870253
3.020000	155.882403
3.030000	156.290845
3.040000	165.826563
3.050000	174.582523
3.060000	171.355568
3.070000	160.170557
3.080000	167.533642
3.090000	171.880008
3.100000	149.959994
3.110000	110.930829
3.120000	82.355381
3.130000	76.858557
3.140000	77.587193
3.150000	81.407476
3.160000	83.062803
3.170000	82.887496
3.180000	86.802287
3.190000	93.930161
3.200000	100.782028
3.210000	107.897438
3.220000	117.345635
3.230000	130.776007
3.240000	136.785283
3.250000	137.603361
3.260000	138.143087
3.270000	136.990234
3.280000	128.732919
3.290000	114.637904
3.300000	111.607591
3.310000	113.797768
3.320000	112.047265
3.330000	105.554145
3.340000	117.124773
3.350000	124.091387
3.360000	114.135910
3.370000	110.965551
3.380000	128.691435
3.390000	112.888321
3.400000	26.531034
3.410000	-92.748139
3.420000	-171.629530
3.430000	-202.998516
3.440000	-211.977949
3.450000	-208.306515
3.460000	-207.108265
3.470000	-197.644481
3.480000	-198.420464
3.490000	-203.350361
3.500000	-204.831175
3.510000	-188.474172
3.520000	-175.443325
3.530000	-180.016750
3.540000	-198.444192
3.550000	-210.954109
3.560000	-218.274030
3.570000	-224.674416
3.580000	-223.514332
3.590000	-218.865126
3.600000	-212.523244
3.610000	-208.169748
3.620000	-205.630848
3.630000	-205.252285
3.640000	-205.176094
3.650000	-205.785210
3.660000	-190.118473
3.670000	-168.505064
3.680000	-151.173084
3.690000	-147.669423
3.700000	-140.934862
3.710000	-123.641283
3.720000	-113.546847
3.730000	-124.049671
3.740000	-137.188399
3.750000	-140.923885
3.760000	-154.365591
3.770000	-172.850086
3.780000	-183.638410
3.790000	-182.584888
3.800000	-219.177395
3.810000	-313.357921
3.820000	-431.689672
3.830000	-522.200465
3.840000	-565.412135
3.850000	-569.908205
3.860000	-566.317113
3.870000	-568.358646
3.880000	-565.277851
3.890000	-561.641318
3.900000	-562.363526
3.910000	-559.011808
3.920000	-534.216288
3.930000	-515.297164
3.940000	-521.171911
3.950000	-547.645462
3.960000	-562.510830
3.970000	-560.194282
3.980000	-548.347250
3.990000	-526.850071
4.000000	-502.665232
4.010000	-481.632012
4.020000	-462.092316
4.030000	-443.881537
4.040000	-424.309730
4.050000	-409.285728
4.060000	-402.987218
4.070000	-392.775669
4.080000	-371.813016
4.090000	-343.092095
4.100000	-315.120545
4.110000	-291.528810
4.120000	-269.878856
4.130000	-251.109345
4.140000	-239.447840
4.150000	-231.136679
4.160000	-221.149160
4.170000	-193.269527
4.180000	-171.430752
4.190000	-162.826819
4.200000	-147.107529
4.210000	-130.595291
4.220000	-163.041927
4.230000	-269.434499
4.240000	-381.191834
4.250000	-423.730135
4.260000	-413.732406
4.270000	-397.246828
4.280000	-391.334171
4.290000	-376.470919
4.300000	-348.787213
4.310000	-325.561779
4.320000	-332.405552
4.330000	-343.654617
4.340000	-325.143742
4.350000	-292.026504
4.360000	-284.762084
4.370000	-316.133409
4.380000	-336.687574
4.390000	-326.800710
4.400000	-301.854727
4.410000	-285.302741
4.420000	-272.424104
4.430000	-251.933389
4.440000	-224.172436
4.450000	-201.076605
4.460000	-187.047840
4.470000	-180.351096
4.480000	-182.079510
4.490000	-181.742636
4.500000	-172.604054
4.510000	-159.983551
4.520000	-143.930746
4.530000	-121.700441
4.540000	-82.051450
4.550000	-30.280460
4.560000	19.652654
4.570000	68.026872
4.580000	100.497811
4.590000	132.597119
4.600000	180.525304
4.610000	236.281034
4.620000	284.378687
4.630000	323.182406
4.640000	359.099882
4.650000	359.822796
4.660000	297.344548
4.670000	208.151609
4.680000	155.841259
4.690000	150.176437
4.700000	162.074779
4.710000	164.383024
4.720000	166.250759
4.730000	170.414369
4.740000	176.259529
4.750000	163.566815
4.760000	152.553932
4.770000	165.565958
4.780000	193.602713
4.790000	206.346638
4.800000	190.538046
4.810000	173.076936
4.820000	172.288759
4.830000	183.917086
4.840000	194.853311
4.850000	203.961213
4.860000	209.252893
4.870000	220.541397
4.880000	226.765057
4.890000	229.325333
4.900000	232.119869
4.910000	240.615638
4.920000	254.627483
4.930000	266.052121
4.940000	269.643802
4.950000	272.355896
4.960000	276.146447
4.970000	280.151559
4.980000	278.802066
4.990000	275.804851
5.000000	278.967353
5.010000	284.256950
5.020000	283.619170
5.030000	295.612635
5.040000	313.698794
5.050000	321.103190
5.060000	308.962709
5.070000	289.814658
5.080000	260.679045
5.090000	178.911799
5.100000	61.720618
5.110000	-33.052371
5.120000	-65.794561
5.130000	-68.386687
5.140000	-73.151839
5.150000	-85.154117
5.160000	-93.640758
5.170000	-101.802025
5.180000	-117.986458
5.190000	-121.212421
5.200000	-86.163729
5.210000	4.511402
5.220000	102.634680
5.230000	156.380442
5.240000	140.995586
5.250000	92.905223
5.260000	50.181629
5.270000	12.477998
5.280000	-16.802278
5.290000	-10.397714
5.300000	57.361663
5.310000	178.786737
5.320000	318.601189
5.330000	438.781232
5.340000	509.012377
5.350000	430.404096
5.360000	250.976681
5.370000	75.665788
5.380000	27.806916
5.390000	95.036389
5.400000	160.163742
5.410000	209.839589
5.420000	240.360672
5.430000	283.219287
5.440000	312.880354
5.450000	309.092425
5.460000	298.005958
5.470000	293.075383
5.480000	309.279983
5.490000	320.756605
5.500000	311.725017
5.510000	302.346061
5.520000	298.272592
5.530000	280.676868
5.540000	206.561906
5.550000	98.996784
5.560000	16.087967
5.570000	-15.295721
5.580000	-9.024963
5.590000	14.867277
5.600000	51.041086
5.610000	97.176721
5.620000	133.530287
5.630000	148.980383
5.640000	142.183071
5.650000	146.682787
5.660000	165.220360
5.670000	165.424051
5.680000	131.437832
5.690000	81.727259
5.700000	56.181343
5.710000	48.704215
5.720000	40.021559
5.730000	21.509511
5.740000	10.063805
5.750000	2.725062
5.760000	-8.109061
5.770000	-35.945111
5.780000	-61.394902
5.790000	-68.829415
5.800000	-63.609348
5.810000	-57.937280
5.820000	-64.029081
5.830000	-71.522197
5.840000	-72.327938
5.850000	-68.006975
5.860000	-62.841441
5.870000	-62.369521
5.880000	-70.558760
5.890000	-85.257200
5.900000	-100.140372
5.910000	-109.021488
5.920000	-104.261369
5.930000	-87.020462
5.940000	-86.336592
5.950000	-96.802965
5.960000	-104.600652
5.970000	-116.186907
5.980000	-179.190684
5.990000	-297.330274
6.000000	-402.798098
6.010000	-453.090779
6.020000	-461.774283
6.030000	-464.126155
6.040000	-465.550788
6.050000	-463.021204
6.060000	-447.193231
6.070000	-448.576123
6.080000	-467.971608
6.090000	-481.614879
6.100000	-474.325321
6.110000	-464.631755
6.120000	-487.610457
6.130000	-520.375848
6.140000	-537.776216
6.150000	-542.416789
6.160000	-545.185766
6.170000	-547.319353
6.180000	-542.128771
6.190000	-527.790921
6.200000	-517.335290
6.210000	-516.131248
6.220000	-524.752178
6.230000	-529.322503
6.240000	-528.761890
6.250000	-528.088588
6.260000	-523.305315
6.270000	-517.098564
6.280000	-520.430726
6.290000	-530.630736
6.300000	-537.762874
6.310000	-534.062606
6.320000	-531.376329
6.330000	-529.689717
6.340000	-513.508787
6.350000	-513.338385
6.360000	-537.810082
6.370000	-553.433968
6.380000	-543.721033
6.390000	-549.918109
6.400000	-627.233995
6.410000	-745.063899
6.420000	-843.898586
6.430000	-895.861258
6.440000	-916.915277
6.450000	-913.196978
6.460000	-899.521478
6.470000	-881.072234
6.480000	-875.060350
6.490000	-886.814796
6.500000	-897.432909
6.510000	-892.470140
6.520000	-887.121034
6.530000	-903.712851
6.540000	-930.951537
6.550000	-954.515574
6.560000	-970.044660
6.570000	-986.256406
6.580000	-995.662384
6.590000	-1001.596321
6.600000	-1008.185222
6.610000	-1022.179950
6.620000	-1047.269722
6.630000	-1080.983622
6.640000	-1106.217879
6.650000	-1121.734929
6.660000	-1124.732667
6.670000	-1120.746930
6.680000	-1106.461126
6.690000	-1084.012078
6.700000	-1060.775653
6.710000	-1039.168787
6.720000	-1021.996591
6.730000	-1006.883436
6.740000	-992.459276
6.750000	-971.822020
6.760000	-944.846508
6.770000	-930.385460
6.780000	-928.087185
6.790000	-926.825617
6.800000	-939.299721
6.810000	-1006.917823
6.820000	-1127.967122
6.830000	-1237.075246
6.840000	-1294.277792
6.850000	-1315.292505
6.860000	-1322.848026
6.870000	-1325.043290
6.880000	-1329.323566
6.890000	-1340.694527
6.900000	-1357.688521
6.910000	-1379.588385
6.920000	-1400.279236
6.930000	-1407.706534
6.940000	-1415.514481
6.950000	-1441.744037
6.960000	-1492.958805
6.970000	-1533.238774
6.980000	-1550.375480
6.990000	-1562.056145
7.000000	-1585.698558
7.010000	-1619.059937
7.020000	-1652.909465
7.030000	-1700.031143
7.040000	-1785.728287
7.050000	-1889.115588
7.060000	-1975.081363
7.070000	-2030.166046
7.080000	-2060.060117
7.090000	-2077.809646
7.100000	-2081.236508
7.110000	-2073.373510
7.120000	-2035.592513
7.130000	-1959.203585
7.140000	-1873.625226
7.150000	-1812.951659
7.160000	-1782.483784
7.170000	-1751.505495
7.180000	-1714.315480
7.190000	-1718.443034
7.200000	-1769.268637
7.210000	-1797.077927
7.220000	-1798.306790
7.230000	-1878.582390
7.240000	-2092.106382
7.250000	-2323.189253
7.260000	-2450.124792
7.270000	-2489.076440
7.280000	-2506.850246
7.290000	-2541.786341
7.300000	-2565.960865
7.310000	-2573.122516
7.320000	-2584.379613
7.330000	-2649.102183
7.340000	-2738.816630
7.350000	-2779.187479
7.360000	-2771.358719
7.370000	-2788.701735
7.380000	-2848.643871
7.390000	-2877.862909
7.400000	-2839.257443
7.410000	-2758.090393
7.420000	-2699.541737
7.430000	-2673.058602
7.440000	-2678.693392
7.450000	-2698.870909
7.460000	-2704.705826
7.470000	-2674.594371
7.480000	-2619.030205
7.490000	-2566.924820
7.500000	-2537.550439
7.510000	-2534.767851
7.520000	-2546.247013
7.530000	-2557.825875
7.540000	-2554.159563
7.550000	-2546.508714
7.560000	-2544.953111
7.570000	-2549.380285
7.580000	-2546.593250
7.590000	-2539.176853
7.600000	-2527.106978
7.610000	-2508.180610
7.620000	-2494.539017
7.630000	-2509.426166
7.640000	-2542.088023
7.650000	-2578.204632
7.660000	-2641.616888
7.670000	-2760.201557
7.680000	-2915.558334
7.690000	-3038.597906
7.700000	-3103.155263
7.710000	-3131.664251
7.720000	-3147.623874
7.730000	-3168.916143
7.740000	-3182.540841
7.750000	-3190.741930
7.760000	-3219.052628
7.770000	-3266.023270
7.780000	-3310.705980
7.790000	-3322.137657
7.800000	-3330.720513
7.810000	-3361.762750
7.820000	-3406.498196
7.830000	-3440.199429
7.840000	-3460.190536
7.850000	-3482.540325
7.860000	-3504.014548
7.870000	-3516.384128
7.880000	-3524.389385
7.890000	-3548.117176
7.900000	-3580.869621
7.910000	-3613.019658
7.920000	-3620.151876
7.930000	-3613.193650
7.940000	-3615.307288
7.950000	-3643.187856
7.960000	-3694.246113
7.970000	-3735.600286
7.980000	-3762.094202
7.990000	-3776.198445
8.000000	-3768.405818
8.010000	-3726.617530
8.020000	-3676.313622
8.030000	-3643.863606
8.040000	-3658.385071
8.050000	-3657.345583
8.060000	-3584.292348
8.070000	-3454.508532
8.080000	-3327.803990
8.090000	-3343.369680
8.100000	-3497.401139
8.110000	-3713.507780
8.120000	-3877.034212
8.130000	-3930.943171
8.140000	-3940.807743
8.150000	-3972.514426
8.160000	-4037.230599
8.170000	-4073.350006
8.180000	-4087.970925
8.190000	-4130.093979
8.200000	-4229.449474
8.210000	-4297.970051
8.220000	-4292.504823
8.230000	-4293.302919
8.240000	-4341.568542
8.250000	-4401.537712
8.260000	-4359.529270
8.270000	-4204.830658
8.280000	-4040.241408
8.290000	-3979.256897
8.300000	-4028.762231
8.310000	-4079.797344
8.320000	-4060.815728
8.330000	-4011.069529
8.340000	-3995.030060
8.350000	-4007.238669
8.360000	-4004.226447
8.370000	-3981.264736
8.380000	-3970.605641
8.390000	-3985.316702
8.400000	-4015.664799
8.410000	-4054.448850
8.420000	-4097.469375
8.430000	-4164.046692
8.440000	-4248.269642
8.450000	-4343.036793
8.460000	-4435.446686
8.470000	-4544.170136
8.480000	-4692.356348
8.490000	-4825.474205
8.500000	-4852.212806
8.510000	-4726.614360
8.520000	-4512.078152
8.530000	-4354.018620
8.540000	-4368.565527
8.550000	-4609.283757
8.560000	-4984.349861
8.570000	-5324.362299
8.580000	-5547.063523
8.590000	-5654.024536
8.600000	-5690.580949
8.610000	-5660.920725
8.620000	-5595.848484
8.630000	-5503.428129
8.640000	-5372.734172
8.650000	-5210.651357
8.660000	-5104.838517
8.670000	-5089.053212
8.680000	-5147.463164
8.690000	-5222.994765
8.700000	-5277.789993
8.710000	-5284.277045
8.720000	-5245.844034
8.730000	-5211.656905
8.740000	-5191.424523
8.750000	-5178.623275
8.760000	-5157.273037
8.770000	-5153.662611
8.780000	-5160.649443
8.790000	-5168.644416
8.800000	-5182.343718
8.810000	-5225.954522
8.820000	-5267.821988
8.830000	-5277.869066
8.840000	-5277.370719
8.850000	-5310.104113
8.860000	-5364.354987
8.870000	-5390.151248
8.880000	-5393.740013
8.890000	-5398.153313
8.900000	-5408.313244
8.910000	-5427.718496
8.920000	-5459.448065
8.930000	-5489.127499
8.940000	-5503.139036
8.950000	-5550.926056
8.960000	-5677.028468
8.970000	-5839.695082
8.980000	-5968.040868
8.990000	-6031.439809
9.000000	-6045.373803
9.010000	-6021.697204
9.020000	-5983.923423
9.030000	-5974.185728
9.040000	-5986.181955
9.050000	-6006.491896
9.060000	-6013.583950
9.070000	-6021.389719
9.080000	-6036.120799
9.090000	-6047.393119
9.100000	-6055.499864
9.110000	-6089.282847
9.120000	-6140.914452
9.130000	-6144.143299
9.140000	-6084.597634
9.150000	-6045.392484
9.160000	-6090.677875
9.170000	-6121.638017
9.180000	-6069.612982
9.190000	-5997.344552
9.200000	-6018.449269
9.210000	-6086.032994
9.220000	-6109.248874
9.230000	-6080.361651
9.240000	-6079.362571
9.250000	-6115.563824
9.260000	-6133.025814
9.270000	-6130.639779
9.280000	-6125.456501
9.290000	-6151.139940
9.300000	-6176.749295
9.310000	-6182.705124
9.320000	-6165.113217
9.330000	-6188.480413
9.340000	-6292.425169
9.350000	-6442.061572
9.360000	-6561.963686
9.370000	-6639.814677
9.380000	-6705.276775
9.390000	-6750.116928
9.400000	-6762.894862
9.410000	-6762.142513
9.420000	-6733.724736
9.430000	-6694.214402
9.440000	-6650.149422
9.450000	-6619.934962
9.460000	-6635.888726
9.470000	-6679.452481
9.480000	-6774.341074
9.490000	-6862.669689
9.500000	-6946.207905
9.510000	-7013.093546
9.520000	-7080.057435
9.530000	-7138.344939
9.540000	-7185.815990
9.550000	-7223.823396
9.560000	-7264.481474
9.570000	-7327.192430
9.580000	-7406.943606
9.590000	-7490.395400
9.600000	-7544.534898
9.610000	-7568.529623
9.620000	-7568.982439
9.630000	-7561.183115
9.640000	-7541.198794
9.650000	-7527.378903
9.660000	-7505.131876
9.670000	-7447.005964
9.680000	-7377.667378
9.690000	-7368.212456
9.700000	-7449.202707
9.710000	-7553.587881
9.720000	-7622.189180
9.730000	-7652.206793
9.740000	-7661.647171
9.750000	-7674.916674
9.760000	-7691.769816
9.770000	-7704.998719
9.780000	-7712.289397
9.790000	-7724.826829
9.800000	-7748.829776
9.810000	-7804.720452
9.820000	-7888.655358
9.830000	-7993.615841
9.840000	-8078.389432
9.850000	-8139.943706
9.860000	-8215.887896
9.870000	-8323.861256
9.880000	-8456.286689
9.890000	-8571.981096
9.900000	-8645.682083
9.910000	-8689.147049
9.920000	-8729.054405
9.930000	-8772.854260
9.940000	-8801.606384
9.950000	-8790.455379
9.960000	-8747.483609
9.970000	-8681.618171
9.980000	-8607.259738
9.990000	-8522.611475
10.000000	-8453.310625
10.010000	-8418.443884
10.020000	-8384.063917
10.030000	-8324.137011
10.040000	-8271.141093
10.050000	-8297.761226
10.060000	-8398.815819
10.070000	-8479.608372
10.080000	-8504.111128
10.090000	-8522.475597
10.100000	-8594.540309
10.110000	-8688.522273
10.120000	-8703.534564
10.130000	-8607.837464
10.140000	-8513.659841
10.150000	-8500.120934
10.160000	-8544.889254
10.170000	-8576.642803
10.180000	-8579.634385
10.190000	-8567.264542
10.200000	-8475.175778
10.210000	-8291.028944
10.220000	-8048.834173
10.230000	-7812.187499
10.240000	-7634.099525
10.250000	-7533.879275
10.260000	-7521.287478
10.270000	-7562.723774
10.280000	-7624.068768
10.290000	-7695.552812
10.300000	-7775.111730
10.310000	-7862.951395
10.320000	-7934.974007
10.330000	-7991.291914
10.340000	-8049.415499
10.350000	-8130.496470
10.360000	-8209.239348
10.370000	-8255.185949
10.380000	-8291.699246
10.390000	-8324.637983
10.400000	-8339.235482
10.410000	-8360.320724
10.420000	-8438.620387
10.430000	-8580.648438
10.440000	-8703.514956
10.450000	-8765.834124
10.460000	-8793.660775
10.470000	-8817.754069
10.480000	-8847.457711
10.490000	-8873.989377
10.500000	-8887.271392
10.510000	-8893.946010
10.520000	-8889.050312
10.530000	-8852.847502
10.540000	-8788.532586
10.550000	-8728.123407
10.560000	-8697.615059
10.570000	-8678.548725
10.580000	-8660.980475
10.590000	-8649.595106
10.600000	-8645.906003
10.610000	-8633.482242
10.620000	-8601.391172
10.630000	-8556.283322
10.640000	-8527.458590
10.650000	-8527.880577
10.660000	-8542.945619
10.670000	-8549.604193
10.680000	-8547.632409
10.690000	-8531.771839
10.700000	-8498.101468
10.710000	-8484.486868
10.720000	-8530.662235
10.730000	-8626.472026
10.740000	-8728.191815
10.750000	-8785.821429
10.760000	-8821.956018
10.770000	-8857.521846
10.780000	-8878.968099
10.790000	-8881.241762
10.800000	-8899.072469
10.810000	-8983.309117
10.820000	-9112.601795
10.830000	-9220.863552
10.840000	-9316.599254
10.850000	-9380.591693
10.860000	-9339.684942
10.870000	-9161.320851
10.880000	-8908.241637
10.890000	-8675.333908
10.900000	-8556.310351
10.910000	-8653.204638
10.920000	-8850.268584
10.930000	-8983.750662
10.940000	-8965.226928
10.950000	-8882.560114
10.960000	-8763.786164
10.970000	-8598.682276
10.980000	-8495.407527
10.990000	-8518.741411
11.000000	-8583.325058
11.010000	-8585.444363
11.020000	-8518.522591
11.030000	-8445.002344
11.040000	-8393.611858
11.050000	-8328.018112
11.060000	-8217.003754
11.070000	-8064.404111
11.080000	-7948.526142
11.090000	-7916.281775
11.100000	-7940.407921
11.110000	-7958.611519
11.120000	-7925.202051
11.130000	-7861.978454
11.140000	-7812.225380
11.150000	-7762.344320
11.160000	-7714.097658
11.170000	-7677.190307
11.180000	-7726.926579
11.190000	-7828.495104
11.200000	-7900.038941
11.210000	-7908.999311
11.220000	-7877.015473
11.230000	-7845.257058
11.240000	-7809.217658
11.250000	-7750.144607
11.260000	-7688.180042
11.270000	-7631.303181
11.280000	-7586.428277
11.290000	-7542.685984
11.300000	-7497.957869
11.310000	-7470.700153
11.320000	-7453.976730
11.330000	-7436.579040
11.340000	-7403.846624
11.350000	-7355.007267
11.360000	-7296.899252
11.370000	-7241.261374
11.380000	-7191.057408
11.390000	-7135.925676
11.400000	-7076.008327
11.410000	-7010.334576
11.420000	-6949.054475
11.430000	-6891.428571
11.440000	-6832.454194
11.450000	-6787.260037
11.460000	-6773.192371
11.470000	-6820.776883
11.480000	-6886.693678
11.490000	-6928.913286
11.500000	-6898.776141
11.510000	-6838.883018
11.520000	-6769.697076
11.530000	-6690.009058
11.540000	-6598.817597
11.550000	-6554.814536
11.560000	-6600.391932
11.570000	-6671.810155
11.580000	-6701.420185
11.590000	-6667.044961
11.600000	-6619.078319
11.610000	-6554.546640
11.620000	-6474.811326
11.630000	-6386.441731
11.640000	-6308.273231
11.650000	-6235.282560
11.660000	-6140.335027
11.670000	-6035.206865
11.680000	-5967.788559
11.690000	-5942.620554
11.700000	-5917.036749
11.710000	-5857.298908
11.720000	-5773.294029
11.730000	-5700.920394
11.740000	-5615.906791
11.750000	-5524.127770
11.760000	-5434.680476
11.770000	-5365.159502
11.780000	-5308.837286
11.790000	-5232.885017
11.800000	-5148.863665
11.810000	-5052.964778
11.820000	-4961.657642
11.830000	-4862.993803
11.840000	-4768.191278
11.850000	-4674.642904
11.860000	-4571.007626
11.870000	-4486.024076
11.880000	-4404.640952
11.890000	-4321.350611
11.900000	-4240.870049
11.910000	-4244.102596
11.920000	-4325.058501
11.930000	-4358.038927
11.940000	-4259.524370
11.950000	-4063.775388
11.960000	-3844.557087
11.970000	-3606.094213
11.980000	-3348.667326
11.990000	-3121.617778
12.000000	-3053.045483
12.010000	-3182.932512
12.020000	-3348.882555
12.030000	-3382.560582
12.040000	-3292.850885
12.050000	-3136.947360
12.060000	-2908.251517
12.070000	-2631.007834
12.080000	-2508.380665
12.090000	-2512.652705
12.100000	-2381.064199
12.110000	-2024.957107
12.120000	-1682.140464
12.130000	-1616.811421
12.140000	-1718.646875
12.150000	-1752.763762
12.160000	-1629.306422
12.170000	-1438.613819
12.180000	-1259.317929
12.190000	-1080.917819
12.200000	-925.432134
12.210000	-846.971297
12.220000	-853.061008
12.230000	-863.073213
12.240000	-840.415992
12.250000	-809.596032
12.260000	-768.599152
12.270000	-685.251620
12.280000	-538.676859
12.290000	-351.203972
12.300000	-158.283274
12.310000	8.380055
12.320000	143.728359
12.330000	274.949607
12.340000	394.560491
12.350000	504.813724
12.360000	628.736269
12.370000	762.242056
12.380000	875.164523
12.390000	946.371398
12.400000	1042.863121
12.410000	1178.067290
12.420000	1336.548206
12.430000	1501.510608
12.440000	1663.690528
12.450000	1818.087571
12.460000	1965.990766
12.470000	2114.840768
12.480000	2267.456333
12.490000	2424.117021
12.500000	2580.123581
12.510000	2741.657158
12.520000	2901.673803
12.530000	3069.847791
12.540000	3242.142877
12.550000	3394.291279
12.560000	3527.007548
12.570000	3677.513892
12.580000	3836.441627
12.590000	3940.972238
12.600000	3958.359312
12.610000	3955.791189
12.620000	4029.795464
12.630000	4181.136739
12.640000	4365.582692
12.650000	4550.005804
12.660000	4735.642308
12.670000	4918.055589
12.680000	5080.883741
12.690000	5236.416881
12.700000	5411.415939
12.710000	5607.979632
12.720000	5792.470659
12.730000	5940.205761
12.740000	6075.984816
12.750000	6236.806963
12.760000	6426.099669
12.770000	6627.397729
12.780000	6818.260236
12.790000	7008.156151
12.800000	7213.203589
12.810000	7428.973799
12.820000	7629.220436
12.830000	7787.943253
12.840000	7954.279116
12.850000	8164.396838
12.860000	8390.365729
12.870000	8610.422204
12.880000	8803.025265
12.890000	9005.198151
12.900000	9209.503114
12.910000	9402.247990
12.920000	9606.389946
12.930000	9824.567542
12.940000	10039.230652
12.950000	10159.712674
12.960000	10185.027756
12.970000	10219.540864
12.980000	10368.571409
12.990000	10585.713083
13.000000	10786.120337
13.010000	10961.890849
13.020000	11165.312098
13.030000	11406.446722
13.040000	11637.522254
13.050000	11848.967857
13.060000	12077.402634
13.070000	12330.970427
13.080000	12576.077567
13.090000	12774.552410
13.100000	12956.213951
13.110000	13186.188724
13.120000	13459.798535
13.130000	13740.058715
13.140000	13976.016231
13.150000	14192.490617
13.160000	14434.324954
13.170000	14713.216324
13.180000	14984.545900
13.190000	15226.085730
13.200000	15460.988900
13.210000	15732.790310
13.220000	16044.782251
13.230000	16359.525489
13.240000	16663.465166
13.250000	16968.502609
13.260000	17269.621598
13.270000	17528.923919
13.280000	17722.030745
13.290000	17888.417165
13.300000	18063.004807
13.310000	18234.040390
13.320000	18334.098113
13.330000	18356.449675
13.340000	18346.634742
13.350000	18386.271455
13.360000	18510.370284
13.370000	18677.222852
13.380000	18846.128886
13.390000	18978.212729
13.400000	19049.976252
13.410000	19033.249244
13.420000	18961.064010
13.430000	18935.894822
13.440000	19014.791264
13.450000	19143.344332
13.460000	19252.600984
13.470000	19354.818202
13.480000	19543.112882
13.490000	19848.279651
13.500000	20233.610001
13.510000	20651.226128
13.520000	21114.469261
13.530000	21623.341466
13.540000	22120.387578
13.550000	22530.302551
13.560000	22866.121072
13.570000	23203.352071
13.580000	23580.346846
13.590000	23965.146833
13.600000	24320.506993
13.610000	24645.333505
13.620000	24972.730595
13.630000	25307.756097
13.640000	25619.511662
13.650000	25896.230572
13.660000	26137.666666
13.670000	26355.756935
13.680000	26561.513525
13.690000	26775.680229
13.700000	27039.796679
13.710000	27373.264039
13.720000	27774.752861
13.730000	28231.889289
13.740000	28694.351559
13.750000	29127.980470
13.760000	29508.072387
13.770000	29853.294708
13.780000	30210.649235
13.790000	30597.981139
13.800000	30982.546633
13.810000	31313.417490
13.820000	31604.428618
13.830000	31907.772556
13.840000	32253.736926
13.850000	32617.134668
13.860000	32984.910693
13.870000	33369.404526
13.880000	33783.262291
13.890000	34209.107697
13.900000	34606.404625
13.910000	34973.777805
13.920000	35326.456762
13.930000	35680.318490
13.940000	36028.653381
13.950000	36389.136833
13.960000	36788.422617
13.970000	37242.811749
13.980000	37742.675801
13.990000	38271.024872
14.000000	38780.072521
14.010000	39246.536211
14.020000	39669.764869
14.030000	40078.697938
14.040000	40459.912047
14.050000	40815.475217
14.060000	41142.286270
14.070000	41473.594898
14.080000	41838.893801
14.090000	42235.537411
14.100000	42663.419959
14.110000	43070.248528
14.120000	43455.333147
14.130000	43808.512022
14.140000	44172.302239
14.150000	44569.966402
14.160000	44966.353610
14.170000	45342.707199
14.180000	45729.446496
14.190000	46167.046844
14.200000	46639.286051
14.210000	47089.842961
14.220000	47527.200793
14.230000	47966.551666
14.240000	48426.348661
14.250000	48890.719976
14.260000	49338.364908
14.270000	49761.136814
14.280000	50158.610235
14.290000	50544.127837
14.300000	50942.418055
14.310000	51382.656838
14.320000	51869.679010
14.330000	52390.651209
14.340000	52904.369527
14.350000	53395.885107
14.360000	53839.190023
14.370000	54272.782470
14.380000	54712.760898
14.390000	55188.520194
14.400000	55706.731469
14.410000	56216.887575
14.420000	56676.501687
14.430000	57055.724519
14.440000	57399.235006
14.450000	57771.697957
14.460000	58181.217421
14.470000	58613.670612
14.480000	59030.849405
14.490000	59417.075963
14.500000	59807.981192
14.510000	60204.733235
14.520000	60600.758949
14.530000	60992.720243
14.540000	61393.221254
14.550000	61801.965444
14.560000	62203.588285
14.570000	62613.225964
14.580000	63069.269116
14.590000	63577.631879
14.600000	64102.721477
14.610000	64606.901591
14.620000	65099.154773
14.630000	65597.365061
14.640000	66096.677604
14.650000	66572.909708
14.660000	67027.386621
14.670000	67473.251059
14.680000	67921.501702
14.690000	68363.263732
14.700000	68803.360512
14.710000	69257.993538
14.720000	69716.143121
14.730000	70171.045854
14.740000	70612.873288
14.750000	71061.446969
14.760000	71534.175140
14.770000	72031.022331
14.780000	72520.255491
14.790000	72994.506459
14.800000	73457.851627
14.810000	73906.094270
14.820000	74311.484408
14.830000	74683.192629
14.840000	75075.958840
14.850000	75540.637023
14.860000	76065.591431
14.870000	76610.973002
14.880000	77137.500134
14.890000	77629.620378
14.900000	78110.398986
14.910000	78605.462918
14.920000	79134.439717
14.930000	79647.576332
14.940000	80149.393532
14.950000	80672.833915
14.960000	81251.383207
14.970000	81852.579166
14.980000	82390.528854
14.990000	82935.355734
15.000000	83546.881923
15.010000	84231.520388
15.020000	84861.366066
15.030000	85344.916368
15.040000	85832.944480
15.050000	86408.518871
15.060000	87067.639336
15.070000	87633.966183
15.080000	88127.821187
15.090000	88623.135740
15.100000	89130.364637
15.110000	89576.238343
15.120000	89949.200429
15.130000	90376.470899
15.140000	90899.508188
15.150000	91491.849252
15.160000	92087.998692
15.170000	92686.316640
15.180000	93293.716134
15.190000	93845.413111
15.200000	94352.757333
15.210000	94875.712482
15.220000	95481.508681
15.230000	96127.687667
15.240000	96773.193927
15.250000	97268.915149
15.260000	97558.300922
15.270000	97613.673954
15.280000	97529.813504
15.290000	97642.781332
15.300000	98328.069603
15.310000	99636.915410
15.320000	101108.451253
15.330000	102253.785447
15.340000	102961.295588
15.350000	103299.857315
15.360000	103508.258303
15.370000	103601.243856
15.380000	103353.435864
15.390000	102346.919642
15.400000	100584.864411
15.410000	98692.006132
15.420000	97345.081083
15.430000	96641.086778
15.440000	95920.413326
15.450000	94758.947807
15.460000	93355.529448
15.470000	92298.222827
15.480000	92209.356099
15.490000	92295.830908
15.500000	92055.806989
15.510000	92205.879520
15.520000	93053.831539
15.530000	94273.151066
15.540000	94183.704673
15.550000	93278.892883
15.560000	92354.509019
15.570000	91837.321398
15.580000	91751.172626
15.590000	91920.098818
15.600000	92136.244181
15.610000	91516.447618
15.620000	89859.545092
15.630000	87407.298618
15.640000	85265.433517
15.650000	83941.984270
15.660000	83099.403545
15.670000	82396.324087
15.680000	81720.594530
15.690000	80630.944241
15.700000	78855.694642
15.710000	76515.009149
15.720000	74489.175726
15.730000	72880.153763
15.740000	71271.708060
15.750000	69258.392457
15.760000	67051.588485
15.770000	65089.831342
15.780000	63588.353829
15.790000	61582.114940
15.800000	58567.393763
15.810000	54461.483143
15.820000	50460.126989
15.830000	43597.523255
15.840000	33172.110140
15.850000	18261.937652
15.860000	12318.642753
15.870000	11702.363784
15.880000	13572.881144
15.890000	16107.286250
15.900000	17825.261958
15.910000	16461.171715
15.920000	13367.284599
15.930000	10241.295831
15.940000	9948.388587
15.950000	8324.907558
15.960000	2528.064939
15.970000	-22780.634468
15.980000	-56841.895980
15.990000	-81329.809707
16.000000	-93875.532078
16.010000	-100961.774564
16.020000	-105912.758963
16.030000	-109971.030671
16.040000	-114023.664637
16.050000	-116167.976892
16.060000	-116682.659214
16.070000	-116970.853580
16.080000	-116932.444165
16.090000	-116631.510140
16.100000	-115611.202897
16.110000	-114771.038196
16.120000	-114132.436882
16.130000	-114152.055479
16.140000	-114127.855003
16.150000	-113975.541406
16.160000	-113652.898659
16.170000	-113248.968433
16.180000	-112985.290070
16.190000	-112759.893297
16.200000	-112379.218136
16.210000	-111909.053158
16.220000	-111360.920260
16.230000	-110863.858620
16.240000	-110348.131625
16.250000	-109827.012272
16.260000	-109267.065878
16.270000	-108715.635917
16.280000	-108148.113578
16.290000	-107592.443897
16.300000	-107025.455789
16.310000	-106467.199734
16.320000	-105902.590877
16.330000	-105342.977116
16.340000	-104768.982764
16.350000	-104176.529273
16.360000	-103558.489959
16.370000	-102961.409455
16.380000	-102382.765953
16.390000	-101783.816021
16.400000	-101133.076086
16.410000	-100502.575451
16.420000	-99922.727533
16.430000	-99347.968246
16.440000	-98704.529358
16.450000	-98062.703065
16.460000	-97476.617698
16.470000	-96912.912443
16.480000	-96363.540415
16.490000	-95788.180751
16.500000	-95172.397253
16.510000	-94577.568502
16.520000	-93888.728547
16.530000	-93192.850020
16.540000	-92416.003444
16.550000	-91728.567235
16.560000	-91285.044665
16.570000	-90991.456563
16.580000	-90826.851809
16.590000	-90645.612350
16.600000	-90426.652809
16.610000	-90110.022261
16.620000	-89655.577572
16.630000	-89140.197531
16.640000	-88618.927013
16.650000	-88094.420359
16.660000	-87568.505218
16.670000	-87039.236222
16.680000	-86510.407733
16.690000	-85985.063168
16.700000	-85466.695355
16.710000	-84952.961479
16.720000	-84438.097288
16.730000	-83917.689660
16.740000	-83397.054022
16.750000	-82875.965433
16.760000	-82345.918359
16.770000	-81800.544441
16.780000	-81250.827556
16.790000	-80713.836683
16.800000	-80194.766137
16.810000	-79680.171370
16.820000	-79147.471064
16.830000	-78577.337069
16.840000	-77969.413648
16.850000	-77348.119337
16.860000	-76758.323416
16.870000	-76226.457316
16.880000	-75750.456122
16.890000	-75298.709727
16.900000	-74842.954164
16.910000	-74353.674943
16.920000	-73802.531295
16.930000	-73187.814997
16.940000	-72555.366072
16.950000	-71967.151297
16.960000	-71434.571698
16.970000	-70906.516294
16.980000	-70318.297302
16.990000	-69650.586241
17.000000	-68933.762457
17.010000	-68250.424857
17.020000	-67629.727850
17.030000	-67012.355531
17.040000	-66337.043871
17.050000	-65630.236921
17.060000	-64986.944790
17.070000	-64456.408857
17.080000	-64033.465134
17.090000	-63716.377924
17.100000	-63472.038818
17.110000	-63271.516029
17.120000	-63093.141013
17.130000	-62895.458951
17.140000	-62591.661340
17.150000	-62074.906027
17.160000	-61386.162909
17.170000	-60715.353171
17.180000	-60238.231843
17.190000	-59938.895111
17.200000	-59708.013258
17.210000	-59475.528169
17.220000	-59245.328162
17.230000	-58987.411962
17.240000	-58637.572654
17.250000	-58196.175999
17.260000	-57697.960095
17.270000	-57205.075823
17.280000	-56693.516318
17.290000	-56119.337541
17.300000	-55520.057143
17.310000	-54997.213146
17.320000	-54630.987534
17.330000	-54382.219013
17.340000	-54137.180654
17.350000	-53787.382601
17.360000	-53296.724738
17.370000	-52745.693675
17.380000	-52249.533019
17.390000	-51860.341182
17.400000	-51548.634565
17.410000	-51244.067604
17.420000	-50883.286612
17.430000	-50437.426547
17.440000	-49944.666776
17.450000	-49477.429376
17.460000	-49088.882775
17.470000	-48768.818757
17.480000	-48459.533872
17.490000	-48102.442549
17.500000	-47678.534819
17.510000	-47216.108109
17.520000	-46762.837871
17.530000	-46355.997398
17.540000	-45993.956161
17.550000	-45645.062489
17.560000	-45271.652071
17.570000	-44864.468661
17.580000	-44442.691107
17.590000	-44034.499606
17.600000	-43655.965012
17.610000	-43299.401228
17.620000	-42943.805794
17.630000	-42570.245906
17.640000	-42178.301778
17.650000	-41786.747704
17.660000	-41404.040275
17.670000	-41034.508538
17.680000	-40674.025178
17.690000	-40314.861447
17.700000	-39960.976228
17.710000	-39608.124360
17.720000	-39258.542526
17.730000	-38906.627845
17.740000	-38547.370299
17.750000	-38182.741185
17.760000	-37819.465734
17.770000	-37471.793479
17.780000	-37137.765051
17.790000	-36801.719752
17.800000	-36453.320242
17.810000	-36095.920961
17.820000	-35744.808050
17.830000	-35404.320905
17.840000	-35075.176773
17.850000	-34743.566990
17.860000	-34403.113562
17.870000	-34057.717029
17.880000	-33719.944395
17.890000	-33396.716104
17.900000	-33079.925924
17.910000	-32759.896712
17.920000	-32427.755850
17.930000	-32091.296079
17.940000	-31759.421743
17.950000	-31439.851496
17.960000	-31131.883341
17.970000	-30828.200239
17.980000	-30522.150728
17.990000	-30205.674678
18.000000	-29879.898322
18.010000	-29553.951297
18.020000	-29238.756073
18.030000	-28936.300123
18.040000	-28639.677474
18.050000	-28340.724720
18.060000	-28035.681160
18.070000	-27729.233499
18.080000	-27428.409535
18.090000	-27136.106295
18.100000	-26842.134260
18.110000	-26539.677411
18.120000	-26227.553437
18.130000	-25918.622496
18.140000	-25621.953861
18.150000	-25337.523695
18.160000	-25054.294389
18.170000	-24761.050531
18.180000	-24460.956153
18.190000	-24163.532028
18.200000	-23880.549938
18.210000	-23611.226699
18.220000	-23347.025085
18.230000	-23077.139318
18.240000	-22797.063085
18.250000	-22512.613735
18.260000	-22234.970337
18.270000	-21973.592229
18.280000	-21720.993982
18.290000	-21458.690773
18.300000	-21173.837235
18.310000	-20875.641062
18.320000	-20589.837313
18.330000	-20334.334743
18.340000	-20102.187338
18.350000	-19867.380796
18.360000	-19610.947867
18.370000	-19337.201551
18.380000	-19065.112238
18.390000	-18807.020381
18.400000	-18559.569025
18.410000	-18309.466581
18.420000	-18052.691606
18.430000	-17800.246607
18.440000	-17561.755073
18.450000	-17332.249900
18.460000	-17097.040399
18.470000	-16852.517307
18.480000	-16607.578760
18.490000	-16373.661937
18.500000	-16152.946739
18.510000	-15935.279090
18.520000	-15709.803781
18.530000	-15471.387435
18.540000	-15228.157107
18.550000	-14992.618627
18.560000	-14771.589825
18.570000	-14559.561743
18.580000	-14342.729543
18.590000	-14112.566388
18.600000	-13873.268394
18.610000	-13639.614687
18.620000	-13422.127118
18.630000	-13217.272841
18.640000	-13010.587750
18.650000	-12792.559919
18.660000	-12565.679976
18.670000	-12342.122115
18.680000	-12132.666709
18.690000	-11935.196957
18.700000	-11739.829840
18.710000	-11536.117559
18.720000	-11323.516992
18.730000	-11108.202865
18.740000	-10895.664545
18.750000	-10689.394259
18.760000	-10488.895271
18.770000	-10293.662249
18.780000	-10101.848020
18.790000	-9910.969891
18.800000	-9717.822473
18.810000	-9521.623438
18.820000	-9324.125307
18.830000	-9128.584642
18.840000	-8938.380717
18.850000	-8755.141933
18.860000	-8578.881184
18.870000	-8406.923211
18.880000	-8233.920838
18.890000	-8055.903231
18.900000	-7873.148841
18.910000	-7687.044637
18.920000	-7498.515532
18.930000	-7309.978330
18.940000	-7128.330902
18.950000	-6956.986963
18.960000	-6794.198030
18.970000	-6633.697168
18.980000	-6469.761973
18.990000	-6300.761894
19.000000	-6128.326071
19.010000	-5959.480525
19.020000	-5796.497368
19.030000	-5637.455697
19.040000	-5477.576639
19.050000	-5313.665440
19.060000	-5148.216115
19.070000	-4985.071125
19.080000	-4828.028669
19.090000	-4675.616463
19.100000	-4523.635424
19.110000	-4369.615776
19.120000	-4213.010857
19.130000	-4058.707550
19.140000	-3909.772946
19.150000	-3765.160435
19.160000	-3619.208834
19.170000	-3468.954575
19.180000	-3318.979976
19.190000	-3173.375888
19.200000	-3032.349613
19.210000	-2890.705474
19.220000	-2747.635009
19.230000	-2607.600492
19.240000	-2476.121493
19.250000	-2350.317833
19.260000	-2220.749214
19.270000	-2082.520760
19.280000	-1942.195336
19.290000	-1811.171048
19.300000	-1692.031802
19.310000	-1573.845893
19.320000	-1443.237013
19.330000	-1298.575563
19.340000	-1153.152860
19.350000	-1023.631232
19.360000	-915.000464
19.370000	-817.925109
19.380000	-713.747079
19.390000	-591.144140
19.400000	-454.422009
19.410000	-319.928685
19.420000	-202.940144
19.430000	-101.492404
19.440000	0.105861
19.450000	118.158292
19.460000	249.330289
19.470000	376.690299
19.480000	487.504533
19.490000	586.895932
19.500000	690.685699
19.510000	807.077804
19.520000	930.512506
19.530000	1046.605162
19.540000	1149.418516
19.550000	1245.910208
19.560000	1350.105805
19.570000	1467.306080
19.580000	1589.557729
19.590000	1700.165218
19.600000	1790.538757
19.610000	1868.930342
19.620000	1953.426068
19.630000	2057.916080
19.640000	2178.516219
19.650000	2298.805219
19.660000	2400.558747
19.670000	2481.381310
19.680000	2551.966840
19.690000	2628.321057
19.700000	2718.053709
19.710000	2817.283835
19.720000	2917.201035
19.730000	3009.006696
19.740000	3091.147683
19.750000	3167.877614
19.760000	3246.587724
19.770000	3334.585724
19.780000	3430.861636
19.790000	3526.481395
19.800000	3609.689712
19.810000	3677.649371
19.820000	3741.824086
19.830000	3819.118499
19.840000	3912.559050
19.850000	4008.867360
19.860000	4091.629032
19.870000	4154.673749
19.880000	4214.476339
19.890000	4288.550495
19.900000	4379.703106
19.910000	4472.816855
19.920000	4550.715360
19.930000	4613.273459
19.940000	4670.250416
19.950000	4740.268941
19.960000	4824.938796
19.970000	4908.769665
19.980000	4980.208993
19.990000	5040.896386
20.000000	5105.122433
20.010000	5175.952808
20.020000	5255.011113
20.030000	5326.960485
20.040000	5386.276520
20.050000	5433.352767
20.060000	5486.310843
20.070000	5553.456819
20.080000	5634.411848
20.090000	5718.976204
20.100000	5788.283091
20.110000	5837.680376
20.120000	5872.011158
20.130000	5910.606715
20.140000	5962.244206
20.150000	6035.752054
20.160000	6120.995549
20.170000	6202.805426
20.180000	6263.346209
20.190000	6303.869270
20.200000	6334.697868
20.210000	6368.934826
20.220000	6414.714583
20.230000	6473.679170
20.240000	6544.771716
20.250000	6615.123406
20.260000	6677.260465
20.270000	6723.668753
20.280000	6757.898541
20.290000	6787.695568
20.300000	6821.024795
20.310000	6865.225830
20.320000	6919.651826
20.330000	6980.621308
20.340000	7036.815560
20.350000	7081.604763
20.360000	7118.599895
20.370000	7157.213959
20.380000	7200.326712
20.390000	7242.778743
20.400000	7279.715900
20.410000	7313.709275
20.420000	7351.144695
20.430000	7396.347004
20.440000	7445.948905
20.450000	7490.381212
20.460000	7525.531875
20.470000	7554.549347
20.480000	7587.264014
20.490000	7630.189307
20.500000	7680.133839
20.510000	7725.988552
20.520000	7757.871375
20.530000	7779.038151
20.540000	7801.196275
20.550000	7833.661831
20.560000	7875.088991
20.570000	7915.542088
20.580000	7948.287022
20.590000	7972.752096
20.600000	7995.166145
20.610000	8021.306149
20.620000	8052.728449
20.630000	8085.890409
20.640000	8115.680045
20.650000	8140.895014
20.660000	8164.067459
20.670000	8188.008518
20.680000	8214.910494
20.690000	8243.251610
20.700000	8271.241664
20.710000	8295.996270
20.720000	8318.102593
20.730000	8340.282615
20.740000	8365.849846
20.750000	8394.459104
20.760000	8421.835274
20.770000	8443.900493
20.780000	8462.115609
20.790000	8482.315543
20.800000	8507.030414
20.810000	8531.703187
20.820000	8549.278877
20.830000	8560.467751
20.840000	8573.919760
20.850000	8596.279052
20.860000	8625.269970
20.870000	8651.820373
20.880000	8670.059133
20.890000	8681.493540
20.900000	8693.657795
20.910000	8713.973990
20.920000	8739.383185
20.930000	8762.612918
20.940000	8777.629845
20.950000	8787.141481
20.960000	8797.767251
20.970000	8813.557308
20.980000	8832.797408
20.990000	8849.885247
21.000000	8861.437271
21.010000	8871.518022
21.020000	8884.710313
21.030000	8903.457330
21.040000	8923.959218
21.050000	8943.406246
21.060000	8960.232248
21.070000	8974.393820
21.080000	8987.892416
21.090000	9001.105442
21.100000	9014.628624
21.110000	9023.557609
21.120000	9031.490656
21.130000	9043.462957
21.140000	9060.805122
21.150000	9079.496201
21.160000	9093.269276
21.170000	9101.714593
21.180000	9105.585500
21.190000	9107.132399
21.200000	9110.448456
21.210000	9115.092399
21.220000	9119.542682
21.230000	9122.633812
21.240000	9121.893228
21.250000	9115.115286
21.260000	9104.541343
21.270000	9098.244103
21.280000	9102.495085
21.290000	9112.666080
21.300000	9117.766918
21.310000	9109.443272
21.320000	9090.429536
21.330000	9073.955249
21.340000	9069.800881
21.350000	9078.839811
21.360000	9086.204834
21.370000	9082.828214
21.380000	9077.089970
21.390000	9087.289078
21.400000	9113.047591
21.410000	9128.816434
21.420000	9111.826930
21.430000	9072.260100
21.440000	9042.170497
21.450000	9041.519653
21.460000	9063.634906
21.470000	9080.927257
21.480000	9074.005444
21.490000	9047.295278
21.500000	9025.003315
21.510000	9024.228059
21.520000	9033.184023
21.530000	9022.719811
21.540000	8973.676619
21.550000	8887.563824
21.560000	8783.189888
21.570000	8686.745546
21.580000	8617.679623
21.590000	8564.180557
21.600000	8514.519509
21.610000	8467.672282
21.620000	8419.722769
21.630000	8361.197341
21.640000	8289.336964
21.650000	8228.867561
21.660000	8184.977629
21.670000	8146.917877
21.680000	8106.726843
21.690000	8069.782695
21.700000	8042.600630
21.710000	8025.762871
21.720000	8022.958089
21.730000	8033.215491
21.740000	8059.488286
21.750000	8108.182892
21.760000	8180.519488
21.770000	8268.316288
21.780000	8346.038029
21.790000	8382.311786
21.800000	8349.120338
21.810000	8240.264789
21.820000	8100.249131
21.830000	7985.500694
21.840000	7924.561028
21.850000	7901.216192
21.860000	7890.460738
21.870000	7882.595080
21.880000	7876.681875
21.890000	7871.947740
21.900000	7866.883555
21.910000	7863.301279
21.920000	7859.075326
21.930000	7855.674694
21.940000	7852.279860
21.950000	7847.407667
21.960000	7842.195256
21.970000	7836.516403
21.980000	7831.167938
21.990000	7826.687981
22.000000	7821.540564
22.010000	7817.282401
22.020000	7812.661813
22.030000	7808.647864
22.040000	7803.215008
22.050000	7797.804864
22.060000	7792.555096
22.070000	7786.758431
22.080000	7781.373680
22.090000	7775.188269
22.100000	7770.358686
22.110000	7766.108774
22.120000	7760.514096
22.130000	7756.892023
22.140000	7749.501046
22.150000	7743.569847
22.160000	7738.678236
22.170000	7734.461507
22.180000	7730.409924
22.190000	7723.575867
22.200000	7718.399081
22.210000	7711.914804
22.220000	7705.318935
22.230000	7699.178923
22.240000	7693.839342
22.250000	7689.384369
22.260000	7682.299401
22.270000	7676.567391
22.280000	7671.043092
22.290000	7666.393793
22.300000	7661.093129
22.310000	7655.210872
22.320000	7650.474554
22.330000	7644.350241
22.340000	7638.207808
22.350000	7632.501935
22.360000	7629.969185
22.370000	7624.658592
22.380000	7618.120243
22.390000	7610.186486
22.400000	7604.330749
22.410000	7599.090381
22.420000	7594.274372
22.430000	7587.390933
22.440000	7582.646004
22.450000	7576.085274
22.460000	7571.461548
22.470000	7564.854446
22.480000	7558.730321
22.490000	7553.727352
22.500000	7549.778932
22.510000	7546.052902
22.520000	7540.284616
22.530000	7534.524189
22.540000	7528.256639
22.550000	7523.816136
22.560000	7519.369455
22.570000	7515.272360
22.580000	7509.640359
22.590000	7504.242122
22.600000	7498.748223
22.610000	7494.398085
22.620000	7490.037194
22.630000	7483.411119
22.640000	7477.874023
22.650000	7471.614737
22.660000	7468.269522
22.670000	7465.016548
22.680000	7461.560067
22.690000	7457.311124
22.700000	7451.749789
22.710000	7448.521499
22.720000	7443.494498
22.730000	7442.340426
22.740000	7437.456271
22.750000	7433.785854
22.760000	7429.329486
22.770000	7424.506866
22.780000	7421.481473
22.790000	7414.485074
22.800000	7410.953662
22.810000	7407.723010
22.820000	7403.725310
22.830000	7398.928974
22.840000	7393.801614
22.850000	7391.784444
22.860000	7391.510727
22.870000	7388.281407
22.880000	7385.229913
22.890000	7380.424221
22.900000	7376.626247
22.910000	7373.560729
22.920000	7371.029227
22.930000	7370.044684
22.940000	7366.433056
22.950000	7363.902980
22.960000	7360.177349
22.970000	7357.468012
22.980000	7354.945152
22.990000	7354.409546
23.000000	7353.742163
23.010000	7351.730863
23.020000	7350.930755
23.030000	7351.430534
23.040000	7349.497829
23.050000	7347.539847
23.060000	7345.120295
23.070000	7344.389845
23.080000	7341.463428
23.090000	7340.669934
23.100000	7337.861049
23.110000	7336.050995
23.120000	7334.666933
23.130000	7334.189835
23.140000	7334.228696
23.150000	7332.752456
23.160000	7332.234417
23.170000	7330.737803
23.180000	7329.353165
23.190000	7330.501346
23.200000	7332.571832
23.210000	7332.708864
23.220000	7332.920946
23.230000	7335.704454
23.240000	7340.718600
23.250000	7342.812720
23.260000	7342.660981
23.270000	7340.384326
23.280000	7340.081897
23.290000	7339.742796
23.300000	7340.651504
23.310000	7341.569924
23.320000	7345.377239
23.330000	7345.852733
23.340000	7345.944641
23.350000	7346.615670
23.360000	7349.334731
23.370000	7352.192965
23.380000	7351.880236
23.390000	7355.627388
23.400000	7360.561700
23.410000	7364.228826
23.420000	7367.754306
23.430000	7368.322812
23.440000	7370.138246
23.450000	7371.909065
23.460000	7375.038875
23.470000	7377.998429
23.480000	7381.458546
23.490000	7386.603992
23.500000	7390.383111
23.510000	7391.733243
23.520000	7395.510474
23.530000	7400.366933
23.540000	7404.827190
23.550000	7408.862477
23.560000	7415.010300
23.570000	7422.208901
23.580000	7425.712095
23.590000	7428.774097
23.600000	7430.600850
23.610000	7434.884259
23.620000	7439.674610
23.630000	7446.873308
23.640000	7452.936151
23.650000	7458.744966
23.660000	7464.400335
23.670000	7472.161631
23.680000	7478.722552
23.690000	7483.459849
23.700000	7488.259995
23.710000	7494.967052
23.720000	7502.666354
23.730000	7511.688176
23.740000	7519.275363
23.750000	7525.294889
23.760000	7529.763702
23.770000	7534.786742
23.780000	7542.130960
23.790000	7548.812456
23.800000	7556.725541
23.810000	7564.710676
23.820000	7573.539907
23.830000	7582.151880
23.840000	7590.906358
23.850000	7599.807067
23.860000	7609.489569
23.870000	7617.000774
23.880000	7626.975301
23.890000	7635.385627
23.900000	7645.362172
23.910000	7653.299955
23.920000	7662.315260
23.930000	7671.751409
23.940000	7681.817900
23.950000	7694.421001
23.960000	7704.180261
23.970000	7714.326855
23.980000	7721.068768
23.990000	7733.145342
24.000000	7744.460809
24.010000	7753.520095
24.020000	7762.405607
24.030000	7771.097925
24.040000	7783.235172
24.050000	7796.867619
24.060000	7809.268923
24.070000	7820.851312
24.080000	7829.834375
24.090000	7839.719530
24.100000	7851.929716
24.110000	7864.111839
24.120000	7877.234124
24.130000	7890.030056
24.140000	7903.408603
24.150000	7915.804240
24.160000	7927.449403
24.170000	7939.775002
24.180000	7952.677798
24.190000	7965.267214
24.200000	7978.767368
24.210000	7992.608238
24.220000	8008.047352
24.230000	8023.124092
24.240000	8036.510967
24.250000	8048.825351
24.260000	8060.151305
24.270000	8073.711491
24.280000	8088.287059
24.290000	8102.770191
24.300000	8116.594479
24.310000	8129.999153
24.320000	8144.404345
24.330000	8159.720945
24.340000	8175.374239
24.350000	8191.604004
24.360000	8207.497616
24.370000	8221.974149
24.380000	8236.111990
24.390000	8250.826378
24.400000	8267.206786
24.410000	8284.149890
24.420000	8300.108314
24.430000	8316.620422
24.440000	8331.468612
24.450000	8347.237050
24.460000	8362.280638
24.470000	8379.660334
24.480000	8395.865347
24.490000	8412.552158
24.500000	8429.562981
24.510000	8446.892486
24.520000	8464.705961
24.530000	8479.330554
24.540000	8496.981067
24.550000	8513.842677
24.560000	8532.705829
24.570000	8549.096222
24.580000	8567.880763
24.590000	8586.082493
24.600000	8603.146321
24.610000	8618.482289
24.620000	8636.502164
24.630000	8657.610499
24.640000	8677.246610
24.650000	8695.148856
24.660000	8712.389104
24.670000	8731.414703
24.680000	8749.570566
24.690000	8768.741883
24.700000	8787.454159
24.710000	8805.446197
24.720000	8823.710716
24.730000	8843.182201
24.740000	8863.658278
24.750000	8884.272730
24.760000	8903.288629
24.770000	8924.057862
24.780000	8942.574786
24.790000	8959.861484
24.800000	8978.866193
24.810000	8999.318111
24.820000	9021.148501
24.830000	9042.755986
24.840000	9063.413722
24.850000	9083.171503
24.860000	9101.313958
24.870000	9121.564546
24.880000	9143.830543
24.890000	9162.564209
24.900000	9180.987531
24.910000	9199.834678
24.920000	9221.086852
24.930000	9244.365451
24.940000	9265.436855
24.950000	9288.174189
24.960000	9306.676750
24.970000	9326.258110
24.980000	9346.807050
24.990000	9370.247122
25.000000	9392.146870
25.010000	9411.132252
25.020000	9430.715186
25.030000	9450.883411
25.040000	9473.491576
25.050000	9495.150292
25.060000	9520.814798
25.070000	9544.571630
25.080000	9564.994989
25.090000	9581.834449
25.100000	9599.018462
25.110000	9621.592297
25.120000	9644.499582
25.130000	9669.180083
25.140000	9691.103044
25.150000	9712.585335
25.160000	9732.154615
25.170000	9751.450781
25.180000	9775.326392
25.190000	9798.058238
25.200000	9822.619393
25.210000	9843.064761
25.220000	9863.355991
25.230000	9885.474998
25.240000	9908.820682
25.250000	9932.612573
25.260000	9952.663093
25.270000	9971.815722
25.280000	9993.545960
25.290000	10015.032691
25.300000	10036.794781
25.310000	10060.602147
25.320000	10084.040033
25.330000	10106.175745
25.340000	10125.609489
25.350000	10147.417969
25.360000	10170.805612
25.370000	10192.621748
25.380000	10214.641785
25.390000	10237.106265
25.400000	10259.753234
25.410000	10281.189304
25.420000	10301.461846
25.430000	10321.191969
25.440000	10343.085683
25.450000	10365.082425
25.460000	10389.948311
25.470000	10411.164167
25.480000	10432.714434
25.490000	10455.436370
25.500000	10474.655584
25.510000	10496.252056
25.520000	10515.406104
25.530000	10538.595058
25.540000	10562.951380
25.550000	10586.083858
25.560000	10608.640159
25.570000	10627.354334
25.580000	10646.131597
25.590000	10667.059920
25.600000	10687.373541
25.610000	10708.865534
25.620000	10730.686004
25.630000	10752.406956
25.640000	10773.055091
25.650000	10792.666009
25.660000	10815.473905
25.670000	10838.266073
25.680000	10859.247949
25.690000	10877.208878
25.700000	10895.365023
25.710000	10913.462691
25.720000	10932.462235
25.730000	10952.346821
25.740000	10973.850640
25.750000	10993.832164
25.760000	11015.190153
25.770000	11036.562915
25.780000	11057.444984
25.790000	11076.192626
25.800000	11092.929140
25.810000	11112.047519
25.820000	11130.929741
25.830000	11150.436514
25.840000	11168.769697
25.850000	11187.670593
25.860000	11205.758409
25.870000	11226.731187
25.880000	11245.189866
25.890000	11263.602881
25.900000	11279.051040
25.910000	11295.593210
25.920000	11315.662101
25.930000	11334.640007
25.940000	11353.686271
25.950000	11367.053081
25.960000	11383.790936
25.970000	11401.462317
25.980000	11422.257153
25.990000	11438.514395
26.000000	11454.413439
26.010000	11469.198046
26.020000	11484.542373
26.030000	11499.160309
26.040000	11513.617167
26.050000	11531.391978
26.060000	11546.581484
26.070000	11564.557057
26.080000	11580.072830
26.090000	11596.288419
26.100000	11609.408538
26.110000	11620.550267
26.120000	11634.925946
26.130000	11648.945108
26.140000	11662.597002
26.150000	11675.134983
26.160000	11688.726284
26.170000	11705.093621
26.180000	11718.591667
26.190000	11730.814765
26.200000	11740.511398
26.210000	11750.929901
26.220000	11762.791886
26.230000	11774.726309
26.240000	11785.412114
26.250000	11796.857307
26.260000	11807.667547
26.270000	11819.293030
26.280000	11829.194557
26.290000	11839.676808
26.300000	11848.963920
26.310000	11857.305110
26.320000	11868.300109
26.330000	11881.130822
26.340000	11888.814090
26.350000	11895.500278
26.360000	11903.487846
26.370000	11914.350898
26.380000	11921.273263
26.390000	11924.339987
26.400000	11929.846654
26.410000	11937.399614
26.420000	11947.161738
26.430000	11954.169838
26.440000	11960.872961
26.450000	11965.288035
26.460000	11968.938248
26.470000	11971.061937
26.480000	11975.662745
26.490000	11982.119991
26.500000	11986.993675
26.510000	11990.786967
26.520000	11993.572021
26.530000	11995.352791
26.540000	11997.035572
26.550000	11996.108903
26.560000	11996.700575
26.570000	11997.683935
26.580000	11997.180258
26.590000	11998.406358
26.600000	11997.423593
26.610000	11997.247689
26.620000	11996.404162
26.630000	11993.154212
26.640000	11992.786227
26.650000	11990.397811
26.660000	11987.199609
26.670000	11985.642061
26.680000	11983.246008
26.690000	11980.189402
26.700000	11973.227964
26.710000	11966.684904
26.720000	11961.109275
26.730000	11956.069707
26.740000	11951.866787
26.750000	11945.969712
26.760000	11937.801359
26.770000	11928.026795
26.780000	11921.549803
26.790000	11913.173525
26.800000	11905.084332
26.810000	11892.715856
26.820000	11882.712066
26.830000	11872.944702
26.840000	11862.368169
26.850000	11850.515244
26.860000	11837.681111
26.870000	11826.394564
26.880000	11815.601346
26.890000	11804.205319
26.900000	11788.092518
26.910000	11771.933697
26.920000	11755.444437
26.930000	11742.528724
26.940000	11726.269163
26.950000	11708.297068
26.960000	11690.558492
26.970000	11672.837040
26.980000	11655.941961
26.990000	11637.774030
27.000000	11619.051787
27.010000	11597.401349
27.020000	11575.521165
27.030000	11554.015261
27.040000	11532.627179
27.050000	11509.242987
27.060000	11484.673317
27.070000	11460.050125
27.080000	11437.279811
27.090000	11414.050199
27.100000	11389.407448
27.110000	11361.544827
27.120000	11334.026147
27.130000	11305.481559
27.140000	11278.423768
27.150000	11250.151430
27.160000	11220.220849
27.170000	11189.864891
27.180000	11159.366629
27.190000	11128.908305
27.200000	11096.147890
27.210000	11063.586215
27.220000	11030.520257
27.230000	10995.507308
27.240000	10961.127463
27.250000	10925.618769
27.260000	10889.254321
27.270000	10850.885424
27.280000	10812.861519
27.290000	10777.935483
27.300000	10738.868401
27.310000	10699.086727
27.320000	10655.908426
27.330000	10613.284072
27.340000	10570.274134
27.350000	10527.803479
27.360000	10484.260916
27.370000	10440.268091
27.380000	10394.158114
27.390000	10348.973238
27.400000	10301.911031
27.410000	10254.873848
27.420000	10205.813008
27.430000	10156.589083
27.440000	10107.491803
27.450000	10055.720810
27.460000	10005.257988
27.470000	9951.541554
27.480000	9900.408877
27.490000	9845.662314
27.500000	9791.230850
27.510000	9734.050610
27.520000	9676.665044
27.530000	9619.673736
27.540000	9561.643781
27.550000	9502.828180
27.560000	9441.453474
27.570000	9379.806742
27.580000	9317.043916
27.590000	9254.557117
27.600000	9191.704040
27.610000	9127.357640
27.620000	9062.397304
27.630000	8995.489138
27.640000	8927.409455
27.650000	8857.572633
27.660000	8786.021658
27.670000	8717.576775
27.680000	8646.822421
27.690000	8576.462315
27.700000	8501.770913
27.710000	8427.517717
27.720000	8353.157519
27.730000	8277.666727
27.740000	8201.953176
27.750000	8125.190156
27.760000	8046.770674
27.770000	7966.043369
27.780000	7883.563342
27.790000	7800.846313
27.800000	7716.938171
27.810000	7631.548493
27.820000	7544.184946
27.830000	7457.105768
27.840000	7370.916379
27.850000	7284.121415
27.860000	7194.417968
27.870000	7103.562103
27.880000	7012.639749
27.890000	6921.696729
27.900000	6829.195360
27.910000	6736.819723
27.920000	6640.689839
27.930000	6541.885077
27.940000	6442.423515
27.950000	6343.492607
27.960000	6243.334689
27.970000	6138.923328
27.980000	6035.736950
27.990000	5932.444087
28.000000	5829.560667
28.010000	5723.009547
28.020000	5614.765889
28.030000	5505.577383
28.040000	5396.618858
28.050000	5286.091081
28.060000	5173.403270
28.070000	5059.176957
28.080000	4944.063970
28.090000	4828.445621
28.100000	4712.548403
28.110000	4595.509382
28.120000	4476.805759
28.130000	4354.648858
28.140000	4232.463803
28.150000	4110.473053
28.160000	3990.460104
28.170000	3866.584036
28.180000	3740.759168
28.190000	3610.939315
28.200000	3479.298684
28.210000	3347.495700
28.220000	3213.337118
28.230000	3080.551464
28.240000	2944.810133
28.250000	2807.720487
28.260000	2671.354940
28.270000	2534.257206
28.280000	2397.256935
28.290000	2255.101636
28.300000	2113.152655
28.310000	1969.530894
28.320000	1823.630045
28.330000	1674.845111
28.340000	1523.635418
28.350000	1377.009132
28.360000	1227.071755
28.370000	1076.647894
28.380000	921.908515
28.390000	766.031319
28.400000	609.770752
28.410000	450.744972
28.420000	292.294251
28.430000	132.061891
28.440000	-29.916736
28.450000	-194.056789
28.460000	-358.916956
28.470000	-525.336034
28.480000	-694.432218
28.490000	-863.478961
28.500000	-1034.862395
28.510000	-1205.868715
28.520000	-1380.932996
28.530000	-1554.545225
28.540000	-1732.040730
28.550000	-1910.900774
28.560000	-2091.884667
28.570000	-2273.671054
28.580000	-2455.844773
28.590000	-2639.585948
28.600000	-2823.965859
28.610000	-3013.041164
28.620000	-3202.951671
28.630000	-3395.758939
28.640000	-3586.190103
28.650000	-3779.137183
28.660000	-3973.738379
28.670000	-4171.206512
28.680000	-4371.327843
28.690000	-4571.674558
28.700000	-4773.358158
28.710000	-4977.266094
28.720000	-5181.865542
28.730000	-5390.380658
28.740000	-5598.220975
28.750000	-5810.083094
28.760000	-6022.810020
28.770000	-6237.411606
28.780000	-6454.371665
28.790000	-6669.393741
28.800000	-6887.317827
28.810000	-7105.407120
28.820000	-7326.022632
28.830000	-7549.853092
28.840000	-7775.518107
28.850000	-8003.459545
28.860000	-8230.518243
28.870000	-8460.291465
28.880000	-8694.077952
28.890000	-8930.373833
28.900000	-9165.916516
28.910000	-9401.777273
28.920000	-9639.758351
28.930000	-9880.871846
28.940000	-10123.645313
28.950000	-10369.050335
28.960000	-10614.959492
28.970000	-10862.030665
28.980000	-11110.090642
28.990000	-11359.857695
29.000000	-11614.765097
29.010000	-11871.560405
29.020000	-12132.038916
29.030000	-12390.853714
29.040000	-12651.304676
29.050000	-12912.795750
29.060000	-13177.929808
29.070000	-13442.761465
29.080000	-13708.969714
29.090000	-13978.484779
29.100000	-14252.120965
29.110000	-14528.340120
29.120000	-14803.762972
29.130000	-15080.062388
29.140000	-15358.948612
29.150000	-15641.349759
29.160000	-15924.047075
29.170000	-16208.263739
29.180000	-16496.119175
29.190000	-16786.162424
29.200000	-17078.546758
29.210000	-17370.761331
29.220000	-17663.714297
29.230000	-17959.450178
29.240000	-18255.646137
29.250000	-18557.625690
29.260000	-18862.376667
29.270000	-19167.981601
29.280000	-19474.980367
29.290000	-19782.555781
29.300000	-20093.504776
29.310000	-20406.050180
29.320000	-20718.651162
29.330000	-21033.197082
29.340000	-21352.130439
29.350000	-21673.016789
29.360000	-21996.993759
29.370000	-22321.221033
29.380000	-22648.288553
29.390000	-22975.849236
29.400000	-23306.054039
29.410000	-23637.279423
29.420000	-23972.331245
29.430000	-24309.216372
29.440000	-24648.823217
29.450000	-24990.041444
29.460000	-25330.558776
29.470000	-25676.823922
29.480000	-26023.548406
29.490000	-26374.269757
29.500000	-26722.836522
29.510000	-27076.095543
29.520000	-27430.793467
29.530000	-27788.984630
29.540000	-28148.472781
29.550000	-28509.967558
29.560000	-28873.922224
29.570000	-29239.068054
29.580000	-29608.523971
29.590000	-29976.970066
29.600000	-30350.332226
29.610000	-30724.370520
29.620000	-31102.705653
29.630000	-31480.976330
29.640000	-31861.675360
29.650000	-32244.836154
29.660000	-32631.257720
29.670000	-33017.979118
29.680000	-33406.829422
29.690000	-33798.778421
29.700000	-34192.402222
29.710000	-34589.944237
29.720000	-34986.326575
29.730000	-35388.864093
29.740000	-35789.944727
29.750000	-36194.567959
29.760000	-36599.637703
29.770000	-37008.734688
29.780000	-37419.439296
29.790000	-37833.384655
29.800000	-38241.697585
29.810000	-38642.218496
29.820000	-39012.745906
29.830000	-39331.912444
29.840000	-39543.569012
29.850000	-39543.356552
29.860000	-39171.133489
29.870000	-38666.137265
29.880000	-38597.521975
29.890000	-39171.516988
29.900000	-40060.049805
29.910000	-40746.997852
29.920000	-41174.798617
29.930000	-41459.928536
29.940000	-41624.937973
29.950000	-41691.515157
29.960000	-41744.919765
29.970000	-42030.886304
29.980000	-42664.562338
29.990000	-43378.902592
30.000000	-43764.517297
30.010000	-43542.321671
30.020000	-42800.199680
30.030000	-41801.951112
30.040000	-40722.706466
30.050000	-39965.949494
30.060000	-39909.558226
30.070000	-41222.168395
30.080000	-43486.856724
30.090000	-45758.036378
30.100000	-47148.422310
30.110000	-47772.100583
30.120000	-48505.867259
30.130000	-49426.089223
30.140000	-50301.595124
30.150000	-50308.247913
30.160000	-49613.850210
30.170000	-48304.321622
30.180000	-47110.352947
30.190000	-46095.041655
30.200000	-45363.119502
30.210000	-45017.575620
30.220000	-45050.067958
30.230000	-45404.133779
30.240000	-45667.196412
30.250000	-45745.393515
30.260000	-45793.501809
30.270000	-45572.733884
30.280000	-45031.483495
30.290000	-44196.786074
30.300000	-43581.294822
30.310000	-42995.070813
30.320000	-42317.792437
30.330000	-40700.849534
30.340000	-38551.900369
30.350000	-36300.513656
30.360000	-34906.287713
30.370000	-34072.549160
30.380000	-33527.229082
30.390000	-31763.343724
30.400000	-27782.382043
30.410000	-23221.857346
30.420000	-18321.171130
30.430000	-14687.601044
30.440000	-10172.113138
30.450000	-6234.389629
30.460000	-1642.458864
30.470000	2785.063268
30.480000	1000.711051
30.490000	-6661.993319
30.500000	-13800.330337
30.510000	-18341.359313
30.520000	-22570.549466
30.530000	-31382.311545
30.540000	-41276.893210
30.550000	-50570.338648
30.560000	-58725.314421
30.570000	-65590.229295
30.580000	-70206.585576
30.590000	-71906.998729
30.600000	-72694.264359
30.610000	-73501.564959
30.620000	-74592.164746
30.630000	-75215.401182
30.640000	-75493.175955
30.650000	-75507.166826
30.660000	-75776.754423
30.670000	-76276.459085
30.680000	-77731.408505
30.690000	-79664.119389
30.700000	-80654.802194
30.710000	-80333.313141
30.720000	-80205.320761
30.730000	-82103.365961
30.740000	-85067.117751
30.750000	-87374.262656
30.760000	-88588.704430
30.770000	-89293.869626
30.780000	-89958.204594
30.790000	-90583.409256
30.800000	-91244.104425
30.810000	-91877.421520
30.820000	-92542.506616
30.830000	-93183.267588
30.840000	-93846.657979
30.850000	-94490.316421
30.860000	-95153.797084
30.870000	-95803.574717
30.880000	-96472.174620
30.890000	-97130.032408
30.900000	-97801.047908
30.910000	-98461.352856
30.920000	-99131.013596
30.930000	-99795.192997
30.940000	-100467.649933
30.950000	-101136.196581
30.960000	-101810.890719
30.970000	-102479.991661
30.980000	-103153.683811
30.990000	-103822.531691
31.000000	-104498.306766
31.010000	-105172.760488
31.020000	-105853.020528
31.030000	-106532.638076
31.040000	-107218.426978
31.050000	-107904.773981
31.060000	-108595.119603
31.070000	-109287.123504
31.080000	-109984.358814
31.090000	-110685.289513
31.100000	-111392.405761
31.110000	-112105.209464
31.120000	-112824.516581
31.130000	-113545.471523
31.140000	-114266.624497
31.150000	-114987.352948
31.160000	-115710.989013
31.170000	-116435.760691
31.180000	-117164.199567
31.190000	-117895.286058
31.200000	-118632.174731
31.210000	-119369.833791
31.220000	-120109.837192
31.230000	-120848.994487
31.240000	-121590.432537
31.250000	-122331.343152
31.260000	-123073.867061
31.270000	-123817.798183
31.280000	-124563.034479
31.290000	-125310.942215
31.300000	-126059.161554
31.310000	-126809.685575
31.320000	-127559.478888
31.330000	-128311.598986
31.340000	-129062.546653
31.350000	-129815.914641
31.360000	-130569.929304
31.370000	-131327.853143
31.380000	-132087.183717
31.390000	-132848.298248
31.400000	-133610.210024
31.410000	-134373.465997
31.420000	-135138.229002
31.430000	-135905.905350
31.440000	-136673.444219
31.450000	-137443.842575
31.460000	-138213.728473
31.470000	-138989.163323
31.480000	-139763.940203
31.490000	-140541.741770
31.500000	-141317.293031
31.510000	-142097.787790
31.520000	-142876.307175
31.530000	-143659.837949
31.540000	-144440.511448
31.550000	-145229.769502
31.560000	-146014.406242
31.570000	-146806.123315
31.580000	-147591.179731
31.590000	-148385.099895
31.600000	-149169.662487
31.610000	-149964.240329
31.620000	-150748.019854
31.630000	-151545.747673
31.640000	-152328.393817
31.650000	-153123.830516
31.660000	-153898.605868
31.670000	-154688.696925
31.680000	-155451.781134
31.690000	-156226.214301
31.700000	-156950.361291
31.710000	-157661.933237
31.720000	-158266.087608
31.730000	-158789.744052
31.740000	-159121.771784
31.750000	-159287.511975
31.760000	-159070.618688
31.770000	-158445.874660
31.780000	-157319.589621
31.790000	-156011.927414
31.800000	-154686.925433
31.810000	-153837.917624
31.820000	-153356.546693
31.830000	-153312.572471
31.840000	-153160.556784
31.850000	-152754.973026
31.860000	-151720.818434
31.870000	-150608.029389
31.880000	-149399.203181
31.890000	-148601.439337
31.900000	-147621.710071
31.910000	-147156.765275
31.920000	-146530.047454
31.930000	-145893.864751
31.940000	-144007.282214
31.950000	-141438.884349
31.960000	-136948.390807
31.970000	-129059.763772
31.980000	-113692.578809
31.990000	-76888.074916
32.000000	-26762.408303
32.010000	-39148.446084
32.020000	-75178.057867
32.030000	-91875.695012
32.040000	-101372.558177
32.050000	-107390.354860
32.060000	-112868.606839
32.070000	-121635.205267
32.080000	-133246.090424
32.090000	-140484.255709
32.100000	-142881.368475
32.110000	-141953.214901
32.120000	-139118.372182
32.130000	-134636.559619
32.140000	-128565.268383
32.150000	-121562.212810
32.160000	-113883.933797
32.170000	-105653.915305
32.180000	-96348.780249
32.190000	-86491.992948
32.200000	-77711.702293
32.210000	-70658.969412
32.220000	-65426.212880
32.230000	-61040.683148
32.240000	-56864.846489
32.250000	-53310.353285
32.260000	-49970.512564
32.270000	-46081.527714
32.280000	-38670.133281
32.290000	-28288.256112
32.300000	-15124.889196
32.310000	353.820070
32.320000	15450.975094
32.330000	28134.745682
32.340000	42125.543113
32.350000	59973.349700
32.360000	90469.596052
32.370000	114145.959286
32.380000	127874.880891
32.390000	128409.498583
32.400000	117812.529111
32.410000	87870.506733
32.420000	45192.950636
32.430000	40141.588580
32.440000	36573.504033
32.450000	35861.838652
32.460000	40153.476939
32.470000	73289.515116
32.480000	111521.792728
32.490000	127839.218906
32.500000	136377.231248
32.510000	144536.850991
32.520000	152169.846441
32.530000	157342.516648
32.540000	158399.034383
32.550000	158602.964867
32.560000	158768.654491
32.570000	158082.216989
32.580000	157100.765299
32.590000	155684.728961
32.600000	155122.752700
32.610000	154822.474733
32.620000	157180.461468
32.630000	161741.009540
32.640000	160951.076519
32.650000	155447.256547
32.660000	147711.352989
32.670000	143208.380504
32.680000	140796.957658
32.690000	143414.351740
32.700000	148302.291529
32.710000	152222.480304
32.720000	151439.504876
32.730000	148729.172103
32.740000	146349.743660
32.750000	144216.642334
32.760000	142642.719268
32.770000	140643.960343
32.780000	138929.852815
32.790000	137392.636336
32.800000	136404.335202
32.810000	135730.438436
32.820000	135452.905536
32.830000	135289.551671
32.840000	134781.393265
32.850000	133730.542536
32.860000	131832.839635
32.870000	131293.097518
32.880000	135726.587983
32.890000	138991.369140
32.900000	139101.018689
32.910000	133543.217764
32.920000	128922.596185
32.930000	126299.027838
32.940000	125243.023544
32.950000	125703.567090
32.960000	126018.797971
32.970000	125005.941138
32.980000	122452.503097
32.990000	119599.652876
33.000000	117195.277058
33.010000	115601.807420
33.020000	114473.016518
33.030000	114066.608926
33.040000	114483.388868
33.050000	115538.096791
33.060000	116925.979250
33.070000	118408.720156
33.080000	119846.532682
33.090000	120868.138822
33.100000	121417.454197
33.110000	121300.083848
33.120000	120763.899781
33.130000	119233.145085
33.140000	116288.555154
33.150000	110904.722328
33.160000	106320.169340
33.170000	106616.179607
33.180000	133803.461385
33.190000	145716.551117
33.200000	145796.396927
33.210000	136347.637985
33.220000	127764.371214
33.230000	122083.814362
33.240000	119730.840796
33.250000	118775.451989
33.260000	119220.826893
33.270000	118820.843502
33.280000	117167.517455
33.290000	113798.130614
33.300000	109672.884745
33.310000	105946.442318
33.320000	102978.613956
33.330000	100671.428928
33.340000	99131.557330
33.350000	98163.289686
33.360000	97890.468290
33.370000	97820.598844
33.380000	97655.772261
33.390000	96591.090831
33.400000	94474.494078
33.410000	91000.835999
33.420000	93838.504379
33.430000	104002.976771
33.440000	120907.975310
33.450000	119987.455881
33.460000	113327.312148
33.470000	107694.354491
33.480000	104474.892269
33.490000	101844.476646
33.500000	99172.168935
33.510000	95482.446545
33.520000	91662.063043
33.530000	88121.652415
33.540000	84917.234024
33.550000	81190.303934
33.560000	77617.952812
33.570000	74980.274068
33.580000	73277.604004
33.590000	71817.787490
33.600000	70468.274859
33.610000	69192.417246
33.620000	67966.871686
33.630000	66643.295827
33.640000	65543.053026
33.650000	64706.398615
33.660000	64198.667652
33.670000	63542.075122
33.680000	62905.825355
33.690000	62079.508627
33.700000	61589.506181
33.710000	62947.513954
33.720000	69453.383118
33.730000	80903.465724
33.740000	87434.346610
33.750000	87877.328566
33.760000	83573.358118
33.770000	80505.810590
33.780000	78793.010528
33.790000	77816.380771
33.800000	78307.177704
33.810000	79541.790467
33.820000	80791.193005
33.830000	81591.150853
33.840000	81958.111882
33.850000	82558.238499
33.860000	82981.042009
33.870000	83206.391717
33.880000	83109.368977
33.890000	82744.412913
33.900000	82266.704856
33.910000	81890.685424
33.920000	81488.545101
33.930000	81169.408387
33.940000	80768.454095
33.950000	80558.174585
33.960000	80527.446693
33.970000	82020.211762
33.980000	85522.652029
33.990000	87250.440572
34.000000	86175.700825
34.010000	82267.364413
34.020000	79220.625331
34.030000	77067.217702
34.040000	75069.110021
34.050000	71013.376977
34.060000	64312.096810
34.070000	56978.066442
34.080000	52071.361598
34.090000	50271.633513
34.100000	49542.261916
34.110000	49046.271490
34.120000	48388.163807
34.130000	47812.134847
34.140000	47234.980628
34.150000	46719.558980
34.160000	46094.659317
34.170000	45505.702371
34.180000	45106.889626
34.190000	44789.328267
34.200000	44461.383105
34.210000	43892.465329
34.220000	43185.027550
34.230000	42450.539889
34.240000	41642.493706
34.250000	40976.265291
34.260000	40468.354203
34.270000	40152.988712
34.280000	40039.103049
34.290000	41003.729162
34.300000	45413.584154
34.310000	54160.267213
34.320000	63593.213765
34.330000	66839.614283
34.340000	64422.461063
34.350000	60859.142633
34.360000	59131.506646
34.370000	57686.236237
34.380000	56676.599531
34.390000	56029.071881
34.400000	54892.927262
34.410000	53167.675117
34.420000	50859.926681
34.430000	48926.268561
34.440000	47775.472354
34.450000	47377.042583
34.460000	47727.481785
34.470000	47939.113326
34.480000	47796.397759
34.490000	47241.679828
34.500000	46835.073956
34.510000	46563.737188
34.520000	46347.630885
34.530000	45821.744277
34.540000	45155.387974
34.550000	44283.172576
34.560000	43501.871876
34.570000	42834.246374
34.580000	44438.952657
34.590000	48451.158427
34.600000	51663.580899
34.610000	52210.815353
34.620000	50219.738310
34.630000	48848.519442
34.640000	48101.619264
34.650000	47315.103483
34.660000	46730.365852
34.670000	45506.757731
34.680000	40832.068921
34.690000	34015.766450
34.700000	27323.427507
34.710000	24254.856490
34.720000	23507.616185
34.730000	23287.276584
34.740000	23106.404020
34.750000	22709.002960
34.760000	22211.212318
34.770000	21840.360700
34.780000	21713.036563
34.790000	21834.058883
34.800000	21928.734387
34.810000	23226.523335
34.820000	29058.932214
34.830000	43706.570991
34.840000	47850.952893
34.850000	46654.510452
34.860000	42647.608918
34.870000	40880.178997
34.880000	39552.705074
34.890000	38516.292416
34.900000	37623.040354
34.910000	36846.300085
34.920000	36164.609024
34.930000	35570.556512
34.940000	35048.689891
34.950000	34579.326170
34.960000	34155.654637
34.970000	33754.556348
34.980000	33352.446656
34.990000	32951.341753
35.000000	32598.838261
35.010000	32293.790288
35.020000	31991.563160
35.030000	31633.976558
35.040000	31265.333142
35.050000	30931.920349
35.060000	30630.373755
35.070000	30294.085515
35.080000	29913.955275
35.090000	29554.824415
35.100000	29244.459782
35.110000	28972.136391
35.120000	28701.559987
35.130000	28446.238023
35.140000	28216.624779
35.150000	28017.283035
35.160000	27837.928095
35.170000	27682.967271
35.180000	27527.402244
35.190000	27380.315930
35.200000	27254.108701
35.210000	27128.784346
35.220000	26947.574936
35.230000	26678.165902
35.240000	26359.400954
35.250000	26068.468646
35.260000	25844.924179
35.270000	25668.726140
35.280000	25504.508120
35.290000	25317.739615
35.300000	25128.646856
35.310000	24944.773212
35.320000	24796.888073
35.330000	24674.716344
35.340000	24549.751570
35.350000	24394.651626
35.360000	24228.715234
35.370000	24097.948619
35.380000	24005.499012
35.390000	23924.751019
35.400000	23843.558857
35.410000	23767.153158
35.420000	23722.546079
35.430000	23723.702405
35.440000	23763.974875
35.450000	23822.358834
35.460000	23878.533779
35.470000	23938.196414
35.480000	23987.797498
35.490000	24019.120819
35.500000	24004.059783
35.510000	23936.807202
35.520000	23822.032293
35.530000	23692.232037
35.540000	23575.635523
35.550000	23479.889723
35.560000	23432.228723
35.570000	23435.730546
35.580000	23482.688282
35.590000	23526.674018
35.600000	23562.449511
35.610000	23603.169272
35.620000	23625.591283
35.630000	23590.079104
35.640000	23508.646810
35.650000	23474.963907
35.660000	23562.375870
35.670000	23738.265541
35.680000	23915.307566
35.690000	24032.971884
35.700000	24090.713196
35.710000	24137.768726
35.720000	24202.994387
35.730000	24304.779312
35.740000	24437.095141
35.750000	24600.003906
35.760000	24772.980464
35.770000	24928.360352
35.780000	25067.741146
35.790000	25224.910239
35.800000	25419.544654
35.810000	25618.372674
35.820000	25767.659504
35.830000	25875.348136
35.840000	25994.885545
35.850000	26184.632397
35.860000	26424.500354
35.870000	26682.129290
35.880000	26951.743120
35.890000	27244.536174
35.900000	27570.821789
35.910000	27889.615260
35.920000	28187.096097
35.930000	28444.108486
35.940000	28642.776974
35.950000	28736.232546
35.960000	28716.248354
35.970000	28673.620008
35.980000	28696.677941
35.990000	28823.140139
36.000000	29009.796790
36.010000	29255.995035
36.020000	29517.319484
36.030000	29669.126269
36.040000	29621.072213
36.050000	29371.275244
36.060000	29063.973145
36.070000	28776.292014
36.080000	28547.460511
36.090000	28453.739234
36.100000	28594.645197
36.110000	28955.143133
36.120000	29399.072856
36.130000	29803.128824
36.140000	30171.033214
36.150000	30532.339744
36.160000	30869.321611
36.170000	31157.292878
36.180000	31401.757497
36.190000	31668.111463
36.200000	31996.126811
36.210000	32379.108887
36.220000	32782.027223
36.230000	33197.426568
36.240000	33618.475928
36.250000	34025.557561
36.260000	34413.781832
36.270000	34823.263683
36.280000	35263.422840
36.290000	35721.629667
36.300000	36171.714544
36.310000	36606.034995
36.320000	37040.359358
36.330000	37451.923426
36.340000	37862.348246
36.350000	38280.632357
36.360000	38714.488203
36.370000	39165.110519
36.380000	39621.681257
36.390000	40100.380976
36.400000	40567.754598
36.410000	41007.346298
36.420000	41443.218711
36.430000	41882.509006
36.440000	42286.765619
36.450000	42597.789362
36.460000	42846.024828
36.470000	43130.022293
36.480000	43495.200044
36.490000	43926.447067
36.500000	44372.931123
36.510000	44819.586330
36.520000	45281.322792
36.530000	45758.224858
36.540000	46243.196174
36.550000	46719.967460
36.560000	47201.907774
36.570000	47678.027233
36.580000	48129.943446
36.590000	48570.142839
36.600000	49021.605366
36.610000	49501.131642
36.620000	49992.358810
36.630000	50489.290329
36.640000	50987.884193
36.650000	51484.842479
36.660000	51982.440836
36.670000	52487.380284
36.680000	52999.241986
36.690000	53509.115730
36.700000	54010.895043
36.710000	54525.392231
36.720000	55064.279360
36.730000	55601.276433
36.740000	56111.668485
36.750000	56602.202450
36.760000	57116.067649
36.770000	57664.905961
36.780000	58221.845683
36.790000	58743.669382
36.800000	59251.525102
36.810000	59798.531310
36.820000	60278.062199
36.830000	60646.481366
36.840000	60924.308952
36.850000	61217.818343
36.860000	61565.806005
36.870000	61944.703516
36.880000	62412.864357
36.890000	62942.304274
36.900000	63501.147442
36.910000	64034.693413
36.920000	64535.359600
36.930000	65033.935798
36.940000	65549.568759
36.950000	66084.107043
36.960000	66612.627745
36.970000	67151.929481
36.980000	67703.126420
36.990000	68266.177262
37.000000	68841.333081
37.010000	69436.431305
37.020000	70029.053215
37.030000	70613.271271
37.040000	71198.299187
37.050000	71790.865181
37.060000	72377.860857
37.070000	72954.126737
37.080000	73519.356860
37.090000	74076.593226
37.100000	74620.967821
37.110000	75175.546945
37.120000	75738.861929
37.130000	76291.073639
37.140000	76830.033817
37.150000	77365.467420
37.160000	77882.243392
37.170000	78339.500822
37.180000	78729.859064
37.190000	79117.982944
37.200000	79532.897233
37.210000	79999.910965
37.220000	80485.832724
37.230000	81049.417586
37.240000	81613.989874
37.250000	82204.397074
37.260000	82763.382100
37.270000	83401.898531
37.280000	84043.251103
37.290000	84695.222535
37.300000	85319.180982
37.310000	86057.830258
37.320000	86890.377586
37.330000	87716.197411
37.340000	88410.749584
37.350000	89006.498704
37.360000	89462.016167
37.370000	89890.248948
37.380000	90331.367997
37.390000	90931.501638
37.400000	91559.094310
37.410000	92215.515083
37.420000	92718.971160
37.430000	93296.228303
37.440000	93867.172905
37.450000	94748.455241
37.460000	95519.696620
37.470000	95753.597826
37.480000	95380.391433
37.490000	94450.513532
37.500000	90681.708909
37.510000	82335.426188
37.520000	60505.945764
37.530000	34373.268125
37.540000	6436.880487
37.550000	-13034.029426
37.560000	-26717.908653
37.570000	-38577.675834
37.580000	-49435.983843
37.590000	-59626.949525
37.600000	-69093.349680
37.610000	-76134.693421
37.620000	-80711.681525
37.630000	-83356.398016
37.640000	-85685.443825
37.650000	-88000.356138
37.660000	-90362.491751
37.670000	-92531.175990
37.680000	-94394.663841
37.690000	-95744.578690
37.700000	-96718.378344
37.710000	-97239.061960
37.720000	-97384.932110
37.730000	-97090.973488
37.740000	-96631.648746
37.750000	-96194.284129
37.760000	-96451.744758
37.770000	-97700.012201
37.780000	-100450.959129
37.790000	-104220.602701
37.800000	-108171.872946
37.810000	-108349.702924
37.820000	-103220.915865
37.830000	-96587.002079
37.840000	-98245.042005
37.850000	-110330.366282
37.860000	-137159.081935
37.870000	-160395.638687
37.880000	-188961.395236
37.890000	-204854.440275
37.900000	-213065.011139
37.910000	-217591.259796
37.920000	-220729.873854
37.930000	-222372.811681
37.940000	-223253.976691
37.950000	-223555.834733
37.960000	-223752.255650
37.970000	-223681.208968
37.980000	-223536.664033
37.990000	-223183.884549
38.000000	-222747.707304
38.010000	-222051.035865
38.020000	-221407.451617
38.030000	-220895.943164
38.040000	-220814.911106
38.050000	-220976.672129
38.060000	-221237.691393
38.070000	-221292.196468
38.080000	-221100.149230
38.090000	-220690.897747
38.100000	-220223.319825
38.110000	-219667.139078
38.120000	-219088.850331
38.130000	-218462.253108
38.140000	-217835.744819
38.150000	-217173.659111
38.160000	-216485.649049
38.170000	-215691.063405
38.180000	-214809.768705
38.190000	-213985.104519
38.200000	-213345.167856
38.210000	-212851.030574
38.220000	-212327.891838
38.230000	-211707.633989
38.240000	-211035.329388
38.250000	-210357.327273
38.260000	-209695.468345
38.270000	-209026.680300
38.280000	-208351.802478
38.290000	-207670.170457
38.300000	-206972.264003
38.310000	-206209.714786
38.320000	-205376.677724
38.330000	-204519.243737
38.340000	-203684.608406
38.350000	-202900.236430
38.360000	-202168.992189
38.370000	-201440.271062
38.380000	-200633.482606
38.390000	-199735.010906
38.400000	-198727.815894
38.410000	-197573.206659
38.420000	-196192.215786
38.430000	-194472.147614
38.440000	-192252.648673
38.450000	-189751.616183
38.460000	-187132.410775
38.470000	-184248.702255
38.480000	-180817.921351
38.490000	-176221.976193
38.500000	-170156.054038
38.510000	-162691.362373
38.520000	-153040.962227
38.530000	-140137.764971
38.540000	-115142.703881
38.550000	-77824.029810
38.560000	-25441.094693
38.570000	62127.815820
38.580000	155874.943476
38.590000	208773.340104
38.600000	233201.446391
38.610000	243297.058576
38.620000	249177.657398
38.630000	251935.555826
38.640000	253915.999913
38.650000	255344.082964
38.660000	256564.537221
38.670000	257692.523998
38.680000	258712.603564
38.690000	259341.124488
38.700000	259596.402175
38.710000	259657.407619
38.720000	259781.327210
38.730000	259922.104733
38.740000	260112.716487
38.750000	260235.968591
38.760000	260262.255933
38.770000	260134.328233
38.780000	259904.996546
38.790000	259503.907341
38.800000	258983.957337
38.810000	258349.891489
38.820000	257928.326814
38.830000	258027.335074
38.840000	258767.676317
38.850000	259902.245291
38.860000	261120.643216
38.870000	262166.407502
38.880000	263070.481012
38.890000	263704.523114
38.900000	264291.315146
38.910000	264757.830988
38.920000	265220.980124
38.930000	265591.852205
38.940000	266165.278878
38.950000	266726.686939
38.960000	267220.859130
38.970000	267356.680430
38.980000	267687.860948
38.990000	268133.658734
39.000000	268466.143747
39.010000	266781.007504
39.020000	262735.979419
39.030000	259799.371132
39.040000	259206.515384
39.050000	260423.658727
39.060000	259248.372547
39.070000	257525.900507
39.080000	261327.458482
39.090000	268670.650040
39.100000	274681.126692
39.110000	274966.339127
39.120000	273348.427014
39.130000	271444.689230
39.140000	269403.615278
39.150000	265053.521982
39.160000	261511.783533
39.170000	258382.421252
39.180000	256769.716594
39.190000	253721.416231
39.200000	251902.239157
39.210000	249331.738152
39.220000	248758.757911
39.230000	248076.316704
39.240000	249502.333986
39.250000	245394.304218
39.260000	228693.569045
39.270000	186632.717747
39.280000	73855.519502
39.290000	-109179.081209
39.300000	-135645.717158
39.310000	-138683.460199
39.320000	-137455.499086
39.330000	-137904.772482
39.340000	-136361.028594
39.350000	-136519.099611
39.360000	-135130.360148
39.370000	-135118.003379
39.380000	-133862.177571
39.390000	-133722.711950
39.400000	-132574.554631
39.410000	-132335.150374
39.420000	-131283.313047
39.430000	-130971.034763
39.440000	-129998.165765
39.450000	-129618.824374
39.460000	-128700.490152
39.470000	-128265.637128
39.480000	-127398.672508
39.490000	-126926.158445
39.500000	-126102.869893
39.510000	-125597.636628
39.520000	-124804.713158
39.530000	-124269.161607
39.540000	-123504.347443
39.550000	-122950.260807
39.560000	-122206.773874
39.570000	-121630.273739
39.580000	-120902.919942
39.590000	-120314.261150
39.600000	-119603.929221
39.610000	-119004.709916
39.620000	-118309.569898
39.630000	-117705.144428
39.640000	-117022.870537
39.650000	-116415.159692
39.660000	-115745.138702
39.670000	-115136.046944
39.680000	-114472.971776
39.690000	-113859.814918
39.700000	-113204.940860
39.710000	-112590.124868
39.720000	-111940.938521
39.730000	-111324.672869
39.740000	-110681.827253
39.750000	-110066.495320
39.760000	-109428.113435
39.770000	-108812.990494
39.780000	-108180.287987
39.790000	-107568.217565
39.800000	-106942.163668
39.810000	-106330.905613
39.820000	-105707.224101
39.830000	-105095.123937
39.840000	-104474.269369
39.850000	-103863.272230
39.860000	-103246.425762
39.870000	-102639.092978
39.880000	-102026.467500
39.890000	-101421.672421
39.900000	-100812.167207
39.910000	-100206.751435
39.920000	-99597.640861
39.930000	-98993.406105
39.940000	-98388.650839
39.950000	-97787.705505
39.960000	-97184.292407
39.970000	-96585.076611
39.980000	-95984.645116
39.990000	-95387.593737
40.000000	-94789.130851
40.010000	-94195.339223
40.020000	-93602.828147
40.030000	-93013.040728
40.040000	-92421.824059
40.050000	-91832.113013
40.060000	-91244.200774
40.070000	-90659.612910
40.080000	-90075.692492
40.090000	-89493.952447
40.100000	-88914.375993
40.110000	-88338.526207
40.120000	-87763.644184
40.130000	-87189.068413
40.140000	-86614.240917
40.150000	-86041.645589
40.160000	-85469.884751
40.170000	-84894.636436
40.180000	-84317.329489
40.190000	-83744.121586
40.200000	-83177.273848
40.210000	-82615.803300
40.220000	-82054.774120
40.230000	-81497.435039
40.240000	-80941.881378
40.250000	-80387.384231
40.260000	-79833.329082
40.270000	-79279.700604
40.280000	-78725.497851
40.290000	-78169.765279
40.300000	-77616.452178
40.310000	-77066.617522
40.320000	-76521.893185
40.330000	-75978.295229
40.340000	-75437.211804
40.350000	-74898.854052
40.360000	-74361.096035
40.370000	-73823.008740
40.380000	-73284.595486
40.390000	-72748.469539
40.400000	-72215.742244
40.410000	-71686.597924
40.420000	-71162.246864
40.430000	-70642.428441
40.440000	-70124.802627
40.450000	-69609.004811
40.460000	-69092.108245
40.470000	-68576.702585
40.480000	-68061.190877
40.490000	-67548.884181
40.500000	-67037.743893
40.510000	-66528.572970
40.520000	-66021.140682
40.530000	-65516.124336
40.540000	-65014.745438
40.550000	-64514.551397
40.560000	-64015.922666
40.570000	-63517.884591
40.580000	-63022.028225
40.590000	-62528.145158
40.600000	-62036.745373
40.610000	-61547.021964
40.620000	-61059.763278
40.630000	-60575.537340
40.640000	-60094.762360
40.650000	-59615.369507
40.660000	-59137.098354
40.670000	-58659.541162
40.680000	-58184.454429
40.690000	-57710.057782
40.700000	-57236.510686
40.710000	-56764.610820
40.720000	-56294.271967
40.730000	-55826.881121
40.740000	-55361.411911
40.750000	-54898.212211
40.760000	-54437.613535
40.770000	-53978.605706
40.780000	-53521.555721
40.790000	-53066.070911
40.800000	-52612.243047
40.810000	-52160.617517
40.820000	-51710.342707
40.830000	-51262.588199
40.840000	-50815.187089
40.850000	-50369.992182
40.860000	-49927.451260
40.870000	-49487.820355
40.880000	-49050.471810
40.890000	-48614.406760
40.900000	-48180.590476
40.910000	-47748.414728
40.920000	-47318.471183
40.930000	-46889.508941
40.940000	-46463.450841
40.950000	-46039.350811
40.960000	-45618.523922
40.970000	-45198.601159
40.980000	-44780.355327
40.990000	-44364.264540
41.000000	-43949.928696
41.010000	-43537.336953
41.020000	-43126.573599
41.030000	-42717.810581
41.040000	-42311.282412
41.050000	-41906.007103
41.060000	-41502.717733
41.070000	-41101.585846
41.080000	-40702.865415
41.090000	-40307.205921
41.100000	-39911.704777
41.110000	-39519.204146
41.120000	-39127.553481
41.130000	-38738.897660
41.140000	-38351.735851
41.150000	-37966.266131
41.160000	-37582.915512
41.170000	-37201.622720
41.180000	-36822.745010
41.190000	-36444.949014
41.200000	-36068.879718
41.210000	-35694.899505
41.220000	-35323.631754
41.230000	-34954.120351
41.240000	-34586.653090
41.250000	-34220.929768
41.260000	-33856.588528
41.270000	-33494.313534
41.280000	-33134.418081
41.290000	-32777.583557
41.300000	-32420.779254
41.310000	-32065.731490
41.320000	-31712.991538
41.330000	-31362.053483
41.340000	-31013.038264
41.350000	-30664.526190
41.360000	-30318.905759
41.370000	-29975.790088
41.380000	-29634.225491
41.390000	-29295.836319
41.400000	-28959.634570
41.410000	-28625.970498
41.420000	-28293.109765
41.430000	-27961.837495
41.440000	-27631.627803
41.450000	-27303.408629
41.460000	-26975.826577
41.470000	-26649.659307
41.480000	-26326.354066
41.490000	-26004.214574
41.500000	-25685.859479
41.510000	-25369.376155
41.520000	-25055.309590
41.530000	-24741.453826
41.540000	-24429.011582
41.550000	-24119.426725
41.560000	-23813.926104
41.570000	-23511.591936
41.580000	-23212.359431
41.590000	-22915.255893
41.600000	-22620.281299
41.610000	-22328.058581
41.620000	-22038.322089
41.630000	-21747.290511
41.640000	-21452.790255
41.650000	-21156.606868
41.660000	-20862.654943
41.670000	-20573.293282
41.680000	-20287.200712
41.690000	-20003.321674
41.700000	-19720.738039
41.710000	-19438.992316
41.720000	-19156.897361
41.730000	-18872.601358
41.740000	-18583.644675
41.750000	-18287.449052
41.760000	-17985.625006
41.770000	-17687.856181
41.780000	-17401.451713
41.790000	-17126.745910
41.800000	-16859.416134
41.810000	-16597.775354
41.820000	-16344.506899
41.830000	-16098.557303
41.840000	-15857.337872
41.850000	-15617.061941
41.860000	-15375.547354
41.870000	-15133.262649
41.880000	-14890.426196
41.890000	-14647.448428
41.900000	-14403.935106
41.910000	-14160.583794
41.920000	-13916.032498
41.930000	-13670.297877
41.940000	-13424.689076
41.950000	-13180.548307
41.960000	-12937.858712
41.970000	-12693.955371
41.980000	-12448.846632
41.990000	-12205.160861
42.000000	-11965.271957
42.010000	-11729.779712
42.020000	-11497.423795
42.030000	-11267.779125
42.040000	-11039.932467
42.050000	-10814.453957
42.060000	-10590.087231
42.070000	-10368.099858
42.080000	-10147.178673
42.090000	-9928.007906
42.100000	-9709.501412
42.110000	-9492.804344
42.120000	-9277.681994
42.130000	-9063.774718
42.140000	-8851.351167
42.150000	-8639.875610
42.160000	-8430.470092
42.170000	-8223.732677
42.180000	-8021.997096
42.190000	-7826.301809
42.200000	-7637.551614
42.210000	-7451.864550
42.220000	-7266.093733
42.230000	-7077.726729
42.240000	-6888.590867
42.250000	-6699.842180
42.260000	-6509.981133
42.270000	-6318.506065
42.280000	-6124.227094
42.290000	-5928.345954
42.300000	-5731.619747
42.310000	-5533.642336
42.320000	-5334.117461
42.330000	-5132.688345
42.340000	-4930.681256
42.350000	-4728.772328
42.360000	-4530.938813
42.370000	-4339.180477
42.380000	-4153.832937
42.390000	-3973.202371
42.400000	-3797.329297
42.410000	-3628.138371
42.420000	-3465.707617
42.430000	-3307.599238
42.440000	-3151.262125
42.450000	-2993.880578
42.460000	-2835.289793
42.470000	-2675.940816
42.480000	-2516.406310
42.490000	-2357.066998
42.500000	-2196.228206
42.510000	-2035.223835
42.520000	-1875.049419
42.530000	-1716.692125
42.540000	-1559.823044
42.550000	-1404.762766
42.560000	-1251.841789
42.570000	-1099.718425
42.580000	-948.398357
42.590000	-798.186863
42.600000	-650.781867
42.610000	-505.115310
42.620000	-361.280658
42.630000	-217.796001
42.640000	-75.520258
42.650000	65.479963
42.660000	205.551283
42.670000	343.082751
42.680000	480.321146
42.690000	615.718368
42.700000	751.834402
42.710000	886.428430
42.720000	1020.132028
42.730000	1152.266886
42.740000	1282.250750
42.750000	1410.283825
42.760000	1535.565215
42.770000	1660.530296
42.780000	1784.447101
42.790000	1908.379955
42.800000	2031.276885
42.810000	2153.542771
42.820000	2275.437527
42.830000	2396.389981
42.840000	2515.973984
42.850000	2633.634313
42.860000	2748.930277
42.870000	2863.993929
42.880000	2978.008701
42.890000	3090.172477
42.900000	3200.262922
42.910000	3308.548536
42.920000	3417.407707
42.930000	3524.819201
42.940000	3631.822822
42.950000	3740.041935
42.960000	3850.542061
42.970000	3961.584458
42.980000	4069.605588
42.990000	4173.504831
43.000000	4274.735644
43.010000	4373.503025
43.020000	4467.963033
43.030000	4558.632347
43.040000	4648.008831
43.050000	4738.930532
43.060000	4830.901667
43.070000	4922.771350
43.080000	5015.700160
43.090000	5109.529363
43.100000	5202.102130
43.110000	5291.585348
43.120000	5378.829972
43.130000	5464.982028
43.140000	5551.252563
43.150000	5637.089755
43.160000	5721.745120
43.170000	5804.957243
43.180000	5887.018838
43.190000	5968.626657
43.200000	6049.779264
43.210000	6129.803961
43.220000	6208.404860
43.230000	6285.868029
43.240000	6362.269371
43.250000	6440.533703
43.260000	6518.401005
43.270000	6594.838318
43.280000	6667.853076
43.290000	6738.829408
43.300000	6809.671196
43.310000	6879.531611
43.320000	6948.564736
43.330000	7016.325466
43.340000	7082.906971
43.350000	7149.256091
43.360000	7215.067354
43.370000	7280.028739
43.380000	7344.090911
43.390000	7405.680015
43.400000	7468.030808
43.410000	7529.240588
43.420000	7591.258251
43.430000	7651.753220
43.440000	7711.812359
43.450000	7769.929429
43.460000	7827.732481
43.470000	7883.808012
43.480000	7939.724795
43.490000	7994.095704
43.500000	8049.164154
43.510000	8101.825574
43.520000	8154.762685
43.530000	8206.373314
43.540000	8262.564456
43.550000	8318.426887
43.560000	8373.266219
43.570000	8421.708849
43.580000	8472.601051
43.590000	8558.335548
43.600000	8632.686014
43.610000	8691.396199
43.620000	8723.089326
43.630000	8758.262273
43.640000	8814.500041
43.650000	8871.085076
43.660000	8931.725451
43.670000	8967.919310
43.680000	8988.171298
43.690000	9019.274750
43.700000	9069.389064
43.710000	9120.065606
43.720000	9163.162310
43.730000	9204.774692
43.740000	9244.147764
43.750000	9276.388608
43.760000	9296.400634
43.770000	9315.333513
43.780000	9332.258364
43.790000	9349.610635
43.800000	9370.124775
43.810000	9393.238052
43.820000	9415.694575
43.830000	9436.266535
43.840000	9460.028497
43.850000	9485.708991
43.860000	9511.476818
43.870000	9534.616095
43.880000	9557.423731
43.890000	9581.356737
43.900000	9605.551079
43.910000	9628.967946
43.920000	9651.235480
43.930000	9674.492055
43.940000	9697.500674
43.950000	9721.964965
43.960000	9749.724235
43.970000	9790.434550
43.980000	9835.222589
43.990000	9871.570230
44.000000	9900.116882
44.010000	9907.042963
44.020000	9897.456832
44.030000	9870.576697
44.040000	9856.308358
44.050000	9859.485579
44.060000	9872.586618
44.070000	9889.542381
44.080000	9910.375406
44.090000	9935.777960
44.100000	9977.721857
44.110000	10035.521806
44.120000	10076.205613
44.130000	10093.247164
44.140000	10091.311813
44.150000	10097.976589
44.160000	10106.948828
44.170000	10113.683964
44.180000	10123.268022
44.190000	10137.721159
44.200000	10151.253123
44.210000	10156.122745
44.220000	10159.330787
44.230000	10166.922707
44.240000	10177.471126
44.250000	10183.471314
44.260000	10183.074407
44.270000	10180.499335
44.280000	10175.142470
44.290000	10170.699073
44.300000	10173.392537
44.310000	10177.389177
44.320000	10181.527276
44.330000	10183.629960
44.340000	10186.911855
44.350000	10189.774056
44.360000	10191.563670
44.370000	10191.196310
44.380000	10187.843508
44.390000	10182.264827
44.400000	10175.112803
44.410000	10169.678128
44.420000	10165.390086
44.430000	10163.796834
44.440000	10162.035772
44.450000	10160.987204
44.460000	10157.412328
44.470000	10152.947220
44.480000	10148.557310
44.490000	10145.024278
44.500000	10142.164403
44.510000	10138.242324
44.520000	10134.605636
44.530000	10130.293393
44.540000	10125.235643
44.550000	10119.544858
44.560000	10113.746850
44.570000	10107.687961
44.580000	10101.164803
44.590000	10094.084899
44.600000	10087.519399
44.610000	10080.088407
44.620000	10073.174678
44.630000	10065.390463
44.640000	10057.822576
44.650000	10049.686138
44.660000	10040.482895
44.670000	10032.012569
44.680000	10021.835431
44.690000	10012.068062
44.700000	10001.909122
44.710000	9992.203139
44.720000	9982.399880
44.730000	9971.102557
44.740000	9959.008763
44.750000	9946.793265
44.760000	9934.085042
44.770000	9921.636180
44.780000	9908.985905
44.790000	9895.318097
44.800000	9881.744041
44.810000	9867.191269
44.820000	9853.051410
44.830000	9838.612946
44.840000	9823.926909
44.850000	9809.613918
44.860000	9794.386531
44.870000	9779.222045
44.880000	9764.122585
44.890000	9748.786563
44.900000	9733.495521
44.910000	9716.324963
44.920000	9699.203581
44.930000	9681.525481
44.940000	9664.931370
44.950000	9647.407271
44.960000	9629.033913
44.970000	9610.336915
44.980000	9591.526457
44.990000	9573.002123
45.000000	9554.095230
45.010000	9535.761681
45.020000	9516.758514
45.030000	9497.971575
45.040000	9478.872951
45.050000	9459.983202
45.060000	9440.459591
45.070000	9420.818211
45.080000	9400.205761
45.090000	9379.832428
45.100000	9358.796529
45.110000	9337.711338
45.120000	9316.255335
45.130000	9294.806123
45.140000	9273.938596
45.150000	9252.463207
45.160000	9230.201621
45.170000	9207.374825
45.180000	9185.063504
45.190000	9163.891353
45.200000	9142.870069
45.210000	9120.030518
45.220000	9095.985219
45.230000	9072.483739
45.240000	9050.418330
45.250000	9027.591449
45.260000	9004.531173
45.270000	8981.045306
45.280000	8957.669965
45.290000	8932.525578
45.300000	8906.859439
45.310000	8881.723062
45.320000	8857.440265
45.330000	8833.319987
45.340000	8809.099986
45.350000	8784.670481
45.360000	8759.854718
45.370000	8734.458112
45.380000	8708.723107
45.390000	8682.699552
45.400000	8656.721773
45.410000	8630.744551
45.420000	8604.198654
45.430000	8577.613887
45.440000	8550.502335
45.450000	8524.994901
45.460000	8498.639418
45.470000	8472.573213
45.480000	8445.298098
45.490000	8420.034665
45.500000	8395.823434
45.510000	8371.715523
45.520000	8345.906984
45.530000	8318.971272
45.540000	8292.903883
45.550000	8264.128859
45.560000	8234.507166
45.570000	8202.542936
45.580000	8173.401997
45.590000	8145.552691
45.600000	8117.919593
45.610000	8090.527702
45.620000	8062.404017
45.630000	8035.487567
45.640000	8007.861945
45.650000	7979.777996
45.660000	7951.317821
45.670000	7923.075328
45.680000	7895.118120
45.690000	7867.057594
45.700000	7837.943332
45.710000	7809.079396
45.720000	7781.474582
45.730000	7754.142691
45.740000	7725.725190
45.750000	7694.933250
45.760000	7665.723922
45.770000	7636.448726
45.780000	7607.140799
45.790000	7576.380237
45.800000	7546.661575
45.810000	7518.405604
45.820000	7488.946448
45.830000	7459.888252
45.840000	7429.674458
45.850000	7400.840173
45.860000	7371.187005
45.870000	7341.604238
45.880000	7312.173743
45.890000	7282.516144
45.900000	7252.984253
45.910000	7222.919639
45.920000	7193.633770
45.930000	7163.822064
45.940000	7134.468158
45.950000	7103.901546
45.960000	7073.835235
45.970000	7043.837538
45.980000	7013.403472
45.990000	6983.317348
46.000000	6952.178189
46.010000	6922.024583
46.020000	6891.834598
46.030000	6862.632945
46.040000	6832.383470
46.050000	6802.156031
46.060000	6771.506323
46.070000	6741.934501
46.080000	6711.875995
46.090000	6681.645187
46.100000	6651.511043
46.110000	6620.957620
46.120000	6591.427064
46.130000	6560.540137
46.140000	6530.975837
46.150000	6500.399311
46.160000	6471.166115
46.170000	6440.544625
46.180000	6410.340413
46.190000	6379.658821
46.200000	6348.498164
46.210000	6317.761161
46.220000	6287.310004
46.230000	6257.526456
46.240000	6226.782394
46.250000	6196.637747
46.260000	6166.925075
46.270000	6136.759862
46.280000	6106.087214
46.290000	6075.572148
46.300000	6045.273526
46.310000	6014.746492
46.320000	5983.494035
46.330000	5953.967470
46.340000	5924.078103
46.350000	5893.907893
46.360000	5862.710796
46.370000	5832.911972
46.380000	5803.058461
46.390000	5772.648260
46.400000	5740.471047
46.410000	5709.466714
46.420000	5679.616808
46.430000	5649.693643
46.440000	5619.514361
46.450000	5589.006890
46.460000	5559.505513
46.470000	5530.742495
46.480000	5501.591385
46.490000	5470.577841
46.500000	5439.457074
46.510000	5408.851238
46.520000	5380.102754
46.530000	5350.561831
46.540000	5320.541513
46.550000	5290.728472
46.560000	5261.771906
46.570000	5232.351456
46.580000	5202.136751
46.590000	5171.110315
46.600000	5140.309425
46.610000	5109.340057
46.620000	5078.629019
46.630000	5049.052185
46.640000	5020.095737
46.650000	4990.583189
46.660000	4961.057597
46.670000	4931.272137
46.680000	4902.520130
46.690000	4873.118984
46.700000	4843.825035
46.710000	4814.468531
46.720000	4783.968888
46.730000	4755.006031
46.740000	4725.613751
46.750000	4697.403244
46.760000	4668.434833
46.770000	4638.661018
46.780000	4609.116948
46.790000	4579.442348
46.800000	4551.000488
46.810000	4523.418209
46.820000	4495.082503
46.830000	4466.938860
46.840000	4436.695912
46.850000	4407.350148
46.860000	4379.180437
46.870000	4353.645695
46.880000	4328.538321
46.890000	4301.827542
46.900000	4273.790715
46.910000	4245.568928
46.920000	4218.603404
46.930000	4191.196774
46.940000	4162.649497
46.950000	4131.388442
46.960000	4099.607689
46.970000	4068.481231
46.980000	4039.138495
46.990000	4010.810329
47.000000	3983.247681
47.010000	3955.048614
47.020000	3928.280795
47.030000	3901.192829
47.040000	3874.906882
47.050000	3847.582626
47.060000	3820.463772
47.070000	3793.559955
47.080000	3766.946996
47.090000	3739.127656
47.100000	3711.033435
47.110000	3683.627148
47.120000	3657.051129
47.130000	3631.395120
47.140000	3603.329815
47.150000	3576.119985
47.160000	3548.202402
47.170000	3521.797429
47.180000	3495.007533
47.190000	3468.092965
47.200000	3441.426763
47.210000	3415.337102
47.220000	3389.461067
47.230000	3362.864869
47.240000	3336.453823
47.250000	3310.345390
47.260000	3284.402293
47.270000	3258.450364
47.280000	3232.644342
47.290000	3207.851404
47.300000	3181.505818
47.310000	3155.227522
47.320000	3128.994405
47.330000	3103.906362
47.340000	3079.111941
47.350000	3053.219342
47.360000	3028.208990
47.370000	3002.828300
47.380000	2978.619831
47.390000	2952.732545
47.400000	2927.018829
47.410000	2901.608497
47.420000	2877.397553
47.430000	2853.123974
47.440000	2829.093847
47.450000	2804.952025
47.460000	2780.773490
47.470000	2756.763695
47.480000	2733.104068
47.490000	2710.562367
47.500000	2687.414233
47.510000	2663.352386
47.520000	2639.048883
47.530000	2615.465986
47.540000	2592.671499
47.550000	2568.565011
47.560000	2543.961109
47.570000	2519.657233
47.580000	2495.910053
47.590000	2473.078113
47.600000	2449.850331
47.610000	2427.502880
47.620000	2404.781286
47.630000	2382.598725
47.640000	2360.374074
47.650000	2338.363607
47.660000	2316.299614
47.670000	2294.799215
47.680000	2272.889838
47.690000	2250.573958
47.700000	2226.814391
47.710000	2203.360920
47.720000	2179.403845
47.730000	2156.827899
47.740000	2133.655979
47.750000	2110.642991
47.760000	2086.577300
47.770000	2062.472749
47.780000	2039.842496
47.790000	2017.972833
47.800000	1998.457730
47.810000	1984.488250
47.820000	1978.081253
47.830000	1989.705615
47.840000	2013.338757
47.850000	2034.914024
47.860000	2050.972383
47.870000	2043.095506
47.880000	2003.984534
47.890000	1952.363592
47.900000	1907.680937
47.910000	1862.239839
47.920000	1813.073490
47.930000	1764.152060
47.940000	1733.522045
47.950000	1704.319478
47.960000	1670.685635
47.970000	1641.546030
47.980000	1611.829686
47.990000	1586.151785
48.000000	1566.653228
48.010000	1550.096064
48.020000	1531.826512
48.030000	1511.405875
48.040000	1490.359459
48.050000	1469.735617
48.060000	1451.249107
48.070000	1434.748723
48.080000	1419.826816
48.090000	1402.440879
48.100000	1383.106336
48.110000	1363.492413
48.120000	1343.069602
48.130000	1321.233760
48.140000	1299.395308
48.150000	1281.338750
48.160000	1266.065208
48.170000	1252.133390
48.180000	1238.761307
48.190000	1224.952011
48.200000	1206.473269
48.210000	1187.151015
48.220000	1167.200391
48.230000	1150.384994
48.240000	1134.269194
48.250000	1117.982118
48.260000	1099.025840
48.270000	1077.278203
48.280000	1056.485663
48.290000	1040.266599
48.300000	1024.617318
48.310000	1008.288756
48.320000	991.111559
48.330000	972.669941
48.340000	953.635234
48.350000	935.412996
48.360000	920.187633
48.370000	906.506038
48.380000	892.097820
48.390000	876.296900
48.400000	860.039196
48.410000	844.782689
48.420000	831.004735
48.430000	817.290162
48.440000	804.002063
48.450000	791.491187
48.460000	780.360345
48.470000	767.709527
48.480000	753.754120
48.490000	738.286970
48.500000	724.183281
48.510000	709.210625
48.520000	693.646225
48.530000	677.827980
48.540000	666.815644
48.550000	667.811359
48.560000	684.669304
48.570000	712.129771
48.580000	723.825009
48.590000	720.215171
48.600000	694.654448
48.610000	664.392729
48.620000	637.485097
48.630000	617.250344
48.640000	594.641444
48.650000	557.458887
48.660000	514.548436
48.670000	480.709876
48.680000	454.102397
48.690000	442.346103
48.700000	505.158608
48.710000	671.256249
48.720000	765.681048
48.730000	775.637320
48.740000	795.523334
48.750000	822.777402
48.760000	780.185786
48.770000	575.568130
48.780000	410.346268
48.790000	328.284005
48.800000	294.649188
48.810000	279.036328
48.820000	261.672407
48.830000	248.884628
48.840000	234.685952
48.850000	222.449307
48.860000	208.704563
48.870000	196.722885
48.880000	183.061637
48.890000	171.706954
48.900000	157.750887
48.910000	144.737357
48.920000	130.113026
48.930000	117.474133
48.940000	105.150028
48.950000	92.904021
48.960000	80.208584
48.970000	67.358365
48.980000	51.948433
48.990000	35.177824
49.000000	17.374281
49.010000	1.024783
49.020000	-15.857414
49.030000	-32.098325
49.040000	-47.738016
49.050000	-60.861794
49.060000	-72.940470
49.070000	-80.925561
49.080000	-88.474210
49.090000	-95.291500
49.100000	-105.332806
49.110000	-116.955399
49.120000	-129.173364
49.130000	-141.935512
49.140000	-152.988339
49.150000	-164.241009
49.160000	-172.102310
49.170000	-176.537196
49.180000	-179.201999
49.190000	-184.154532
49.200000	-191.605824
49.210000	-200.082089
49.220000	-210.999246
49.230000	-224.320795
49.240000	-240.041367
49.250000	-254.197384
49.260000	-267.411648
49.270000	-278.050143
49.280000	-286.770728
49.290000	-293.216088
49.300000	-298.115568
49.310000	-303.033900
49.320000	-308.106185
49.330000	-313.835890
49.340000	-318.407056
49.350000	-322.294253
49.360000	-324.687938
49.370000	-325.738913
49.380000	-325.953576
49.390000	-327.505380
49.400000	-331.533715
49.410000	-336.247921
49.420000	-339.764498
49.430000	-341.979690
49.440000	-345.654262
49.450000	-351.356655
49.460000	-356.854319
49.470000	-361.389089
49.480000	-365.041531
49.490000	-369.744891
49.500000	-375.876174
49.510000	-382.081068
49.520000	-388.700692
49.530000	-394.732193
49.540000	-400.514284
49.550000	-406.368741
49.560000	-411.644085
49.570000	-417.663004
49.580000	-423.085607
49.590000	-428.615317
49.600000	-434.177499
49.610000	-439.553140
49.620000	-445.591629
49.630000	-450.469653
49.640000	-455.667588
49.650000	-460.365993
49.660000	-464.732455
49.670000	-468.246691
49.680000	-471.787457
49.690000	-475.110641
49.700000	-478.496945
49.710000	-480.957520
49.720000	-484.200291
49.730000	-488.119234
49.740000	-492.222422
49.750000	-495.599670
49.760000	-498.233567
49.770000	-501.737835
49.780000	-505.892942
49.790000	-510.195164
49.800000	-514.205784
49.810000	-517.973795
49.820000	-521.505142
49.830000	-525.073130
49.840000	-528.456441
49.850000	-532.495341
49.860000	-536.389854
49.870000	-540.574216
49.880000	-544.640881
49.890000	-548.306672
49.900000	-551.880083
49.910000	-555.023881
49.920000	-557.439222
49.930000	-560.398537
49.940000	-562.644508
49.950000	-566.101655
49.960000	-569.159766
49.970000	-572.463935
49.980000	-574.990024
49.990000	-577.483941
50.000000	-580.138237
50.010000	-581.485469
50.020000	-582.612816
50.030000	-584.472575
50.040000	-587.404925
50.050000	-590.107640
50.060000	-591.850998
50.070000	-593.399117
50.080000	-594.613481
50.090000	-596.345446
50.100000	-599.026853
50.110000	-600.603557
50.120000	-601.097770
50.130000	-600.847608
50.140000	-602.159055
50.150000	-603.399024
50.160000	-605.211329
50.170000	-606.931463
50.180000	-608.583321
50.190000	-609.780475
50.200000	-609.939007
50.210000	-610.285227
50.220000	-610.273788
50.230000	-610.443443
50.240000	-610.590205
50.250000	-610.585391
50.260000	-610.891617
50.270000	-611.041332
50.280000	-611.512011
50.290000	-611.810829
50.300000	-611.782719
50.310000	-611.229421
50.320000	-611.038779
50.330000	-611.628913
50.340000	-612.273704
50.350000	-612.678074
50.360000	-612.490098
50.370000	-612.043883
50.380000	-610.685010
50.390000	-609.395215
50.400000	-608.525678
50.410000	-608.393731
50.420000	-608.009820
50.430000	-608.043651
50.440000	-607.135009
50.450000	-606.346621
50.460000	-605.235564
50.470000	-604.632357
50.480000	-602.640993
50.490000	-599.569602
50.500000	-597.697046
50.510000	-596.811636
50.520000	-596.396973
50.530000	-594.360461
50.540000	-592.418221
50.550000	-589.545690
50.560000	-586.755394
50.570000	-583.703921
50.580000	-580.403329
50.590000	-576.838250
50.600000	-573.361500
50.610000	-570.615647
50.620000	-568.626629
50.630000	-566.030920
50.640000	-563.538848
50.650000	-560.416655
50.660000	-557.763561
50.670000	-555.773724
50.680000	-554.962665
50.690000	-554.099190
50.700000	-553.472155
50.710000	-552.060281
50.720000	-549.622689
50.730000	-546.661986
50.740000	-542.742218
50.750000	-539.574161
50.760000	-535.490038
50.770000	-531.798405
50.780000	-527.869416
50.790000	-523.326547
50.800000	-517.216729
50.810000	-511.498515
50.820000	-505.191441
50.830000	-499.311077
50.840000	-491.458187
50.850000	-483.770478
50.860000	-474.682103
50.870000	-465.872429
50.880000	-455.863941
50.890000	-445.948197
50.900000	-438.013248
50.910000	-430.647014
50.920000	-425.135021
50.930000	-418.966737
50.940000	-413.565204
50.950000	-406.573289
50.960000	-399.636526
50.970000	-392.136699
50.980000	-384.673868
50.990000	-376.659112
51.000000	-370.013294
51.010000	-363.467544
51.020000	-356.315299
51.030000	-348.237659
51.040000	-341.250583
51.050000	-334.626685
51.060000	-327.478117
51.070000	-319.977557
51.080000	-311.328161
51.090000	-303.627790
51.100000	-295.125280
51.110000	-287.243956
51.120000	-278.872216
51.130000	-269.818993
51.140000	-262.248192
51.150000	-254.004299
51.160000	-246.923488
51.170000	-238.799750
51.180000	-231.230032
51.190000	-222.539905
51.200000	-213.830774
51.210000	-205.230177
51.220000	-196.716783
51.230000	-187.536995
51.240000	-177.890179
51.250000	-169.131302
51.260000	-160.006937
51.270000	-150.679567
51.280000	-140.404147
51.290000	-130.516033
51.300000	-119.408637
51.310000	-109.979769
51.320000	-100.347772
51.330000	-92.066918
51.340000	-81.552972
51.350000	-70.448139
51.360000	-59.367938
51.370000	-48.440140
51.380000	-38.463068
51.390000	-26.700289
51.400000	-15.850517
51.410000	-5.228069
51.420000	5.150312
51.430000	16.304338
51.440000	28.206070
51.450000	39.223947
51.460000	50.327711
51.470000	62.536228
51.480000	74.168272
51.490000	85.915161
51.500000	96.731331
51.510000	107.360072
51.520000	118.355398
51.530000	129.865862
51.540000	142.041926
51.550000	154.098667
51.560000	166.461823
51.570000	178.726361
51.580000	190.947281
51.590000	202.416715
51.600000	214.503657
51.610000	226.834619
51.620000	239.460655
51.630000	252.653039
51.640000	265.481381
51.650000	278.877385
51.660000	292.566724
51.670000	305.835565
51.680000	317.720200
51.690000	329.535937
51.700000	342.610082
51.710000	355.966795
51.720000	369.907389
51.730000	382.796686
51.740000	397.622178
51.750000	411.682837
51.760000	425.417904
51.770000	438.640005
51.780000	452.289890
51.790000	467.337503
51.800000	481.226191
51.810000	495.453887
51.820000	509.565290
51.830000	525.318254
51.840000	540.636169
51.850000	555.932174
51.860000	571.115444
51.870000	585.955890
51.880000	600.673192
51.890000	616.393054
51.900000	632.637883
51.910000	647.905800
51.920000	663.021069
51.930000	678.496839
51.940000	695.485529
51.950000	711.491074
51.960000	727.707036
51.970000	743.895315
51.980000	760.678530
51.990000	777.043033
52.000000	793.736512
52.010000	811.272096
52.020000	828.539023
52.030000	845.586999
52.040000	861.755895
52.050000	878.323855
52.060000	895.386462
52.070000	912.810668
52.080000	930.434505
52.090000	947.714286
52.100000	964.902881
52.110000	982.704240
52.120000	999.784370
52.130000	1017.788027
52.140000	1035.410343
52.150000	1054.299439
52.160000	1072.780293
52.170000	1091.905028
52.180000	1110.898820
52.190000	1129.599462
52.200000	1148.439707
52.210000	1167.380214
52.220000	1186.401812
52.230000	1205.248353
52.240000	1224.454326
52.250000	1243.869709
52.260000	1263.261896
52.270000	1282.246108
52.280000	1301.828919
52.290000	1321.039536
52.300000	1340.823820
52.310000	1360.250569
52.320000	1380.580975
52.330000	1400.878595
52.340000	1421.097057
52.350000	1441.931919
52.360000	1462.030880
52.370000	1482.080973
52.380000	1501.718698
52.390000	1521.990855
52.400000	1543.161389
52.410000	1563.652763
52.420000	1585.036527
52.430000	1606.398346
52.440000	1627.671191
52.450000	1648.901460
52.460000	1669.728633
52.470000	1691.165573
52.480000	1712.204408
52.490000	1733.859101
52.500000	1756.101149
52.510000	1779.310873
52.520000	1801.414886
52.530000	1823.194154
52.540000	1844.148698
52.550000	1866.174188
52.560000	1889.300796
52.570000	1911.906318
52.580000	1935.217229
52.590000	1958.389139
52.600000	1982.227763
52.610000	2004.954271
52.620000	2027.334527
52.630000	2049.941267
52.640000	2073.196408
52.650000	2096.681279
52.660000	2120.147197
52.670000	2144.178453
52.680000	2168.182715
52.690000	2191.763869
52.700000	2214.973562
52.710000	2237.769505
52.720000	2261.521800
52.730000	2285.188384
52.740000	2309.160181
52.750000	2333.692756
52.760000	2359.217889
52.770000	2384.277076
52.780000	2409.031468
52.790000	2433.946590
52.800000	2459.261703
52.810000	2484.029692
52.820000	2508.578509
52.830000	2533.863797
52.840000	2559.640822
52.850000	2585.779863
52.860000	2611.449012
52.870000	2638.116196
52.880000	2663.995010
52.890000	2689.538203
52.900000	2714.618367
52.910000	2740.041138
52.920000	2766.652930
52.930000	2793.282338
52.940000	2819.766765
52.950000	2845.932686
52.960000	2871.956734
52.970000	2897.990781
52.980000	2924.220569
52.990000	2950.788470
53.000000	2977.555934
53.010000	3005.326954
53.020000	3033.625208
53.030000	3061.601038
53.040000	3088.430360
53.050000	3114.279478
53.060000	3141.642686
53.070000	3170.016256
53.080000	3198.586503
53.090000	3226.818561
53.100000	3253.926793
53.110000	3281.690785
53.120000	3309.321927
53.130000	3337.962550
53.140000	3366.771502
53.150000	3395.294229
53.160000	3423.947934
53.170000	3452.347088
53.180000	3481.517194
53.190000	3510.114607
53.200000	3539.480520
53.210000	3567.925997
53.220000	3597.170885
53.230000	3625.778521
53.240000	3654.582725
53.250000	3683.342078
53.260000	3712.709735
53.270000	3742.615063
53.280000	3771.542871
53.290000	3800.938263
53.300000	3830.077436
