Time(s)	IR_denoised_wiener
0.000000	-91.756602
0.010000	-145.113997
0.020000	-156.600894
0.030000	-159.568701
0.040000	-150.402898
0.050000	-136.734134
0.060000	-122.541308
0.070000	-108.570378
0.080000	-94.356005
0.090000	-78.750955
0.100000	-66.533104
0.110000	-46.901459
0.120000	-25.768744
0.130000	1.297226
0.140000	26.950789
0.150000	50.836046
0.160000	75.332183
0.170000	96.010595
0.180000	114.050153
0.190000	121.481270
0.200000	127.804102
0.210000	133.582142
0.220000	147.902949
0.230000	166.969186
0.240000	185.653112
0.250000	189.318492
0.260000	171.748182
0.270000	140.694689
0.280000	110.850909
0.290000	88.703679
0.300000	70.581133
0.310000	54.038172
0.320000	34.962313
0.330000	18.386721
0.340000	8.663961
0.350000	8.386171
0.360000	16.344305
0.370000	24.021420
0.380000	31.704768
0.390000	37.974650
0.400000	46.735923
0.410000	59.911905
0.420000	76.080759
0.430000	96.847073
0.440000	120.740145
0.450000	149.447311
0.460000	176.366558
0.470000	199.717314
0.480000	214.641102
0.490000	222.661492
0.500000	228.581360
0.510000	238.933854
0.520000	253.158958
0.530000	268.189542
0.540000	286.074206
0.550000	302.752102
0.560000	305.288786
0.570000	286.320381
0.580000	254.537927
0.590000	225.564879
0.600000	205.083655
0.610000	188.438247
0.620000	169.282045
0.630000	150.995677
0.640000	136.135555
0.650000	129.550157
0.660000	130.631536
0.670000	138.093601
0.680000	146.774401
0.690000	154.302270
0.700000	157.907098
0.710000	162.188809
0.720000	165.346541
0.730000	168.407470
0.740000	175.117835
0.750000	182.264763
0.760000	195.571445
0.770000	208.746856
0.780000	224.373918
0.790000	239.538364
0.800000	255.512425
0.810000	274.323168
0.820000	293.964430
0.830000	311.095567
0.840000	326.753067
0.850000	342.861696
0.860000	356.185499
0.870000	356.265967
0.880000	334.948914
0.890000	301.041484
0.900000	270.389659
0.910000	247.443701
0.920000	229.802920
0.930000	211.494103
0.940000	195.565620
0.950000	183.197362
0.960000	172.979189
0.970000	171.246537
0.980000	175.025155
0.990000	185.297871
1.000000	194.371907
1.010000	203.364672
1.020000	213.710785
1.030000	222.410534
1.040000	232.056247
1.050000	239.097399
1.060000	247.413306
1.070000	259.438133
1.080000	273.416675
1.090000	290.444489
1.100000	305.728306
1.110000	321.461111
1.120000	338.026014
1.130000	354.799320
1.140000	372.317897
1.150000	388.120246
1.160000	402.608562
1.170000	416.098480
1.180000	417.859727
1.190000	399.072757
1.200000	366.477710
1.210000	332.386370
1.220000	310.089030
1.230000	291.966483
1.240000	277.042470
1.250000	263.534868
1.260000	256.672257
1.270000	255.075468
1.280000	258.294899
1.290000	263.934292
1.300000	266.900305
1.310000	270.138635
1.320000	269.810447
1.330000	272.695441
1.340000	275.014816
1.350000	280.262041
1.360000	290.538439
1.370000	303.806941
1.380000	316.714702
1.390000	328.348047
1.400000	340.554639
1.410000	353.874901
1.420000	367.379793
1.430000	381.728614
1.440000	397.861456
1.450000	415.568146
1.460000	435.668163
1.470000	453.046830
1.480000	468.145479
1.490000	467.141584
1.500000	448.979668
1.510000	419.242935
1.520000	390.153677
1.530000	368.651246
1.540000	350.618670
1.550000	334.387515
1.560000	314.728327
1.570000	294.801145
1.580000	275.151663
1.590000	265.895122
1.600000	260.516589
1.610000	257.657062
1.620000	250.520250
1.630000	243.436428
1.640000	239.841515
1.650000	239.191453
1.660000	241.818304
1.670000	243.921435
1.680000	250.806268
1.690000	260.283519
1.700000	271.450307
1.710000	279.620940
1.720000	287.433371
1.730000	298.279190
1.740000	313.730043
1.750000	325.562323
1.760000	335.371981
1.770000	343.827712
1.780000	353.670921
1.790000	359.722495
1.800000	351.940823
1.810000	322.607809
1.820000	282.244800
1.830000	241.477217
1.840000	208.860061
1.850000	179.626832
1.860000	150.462592
1.870000	124.443774
1.880000	100.369638
1.890000	81.589295
1.900000	67.247704
1.910000	61.063096
1.920000	56.412907
1.930000	51.532261
1.940000	45.228187
1.950000	42.332966
1.960000	43.346375
1.970000	42.430889
1.980000	39.461358
1.990000	39.524047
2.000000	44.882660
2.010000	58.934204
2.020000	74.588861
2.030000	90.339879
2.040000	105.276696
2.050000	118.391765
2.060000	132.287405
2.070000	147.751438
2.080000	165.276552
2.090000	182.081179
2.100000	197.583947
2.110000	210.387359
2.120000	213.186939
2.130000	197.000559
2.140000	169.480386
2.150000	141.935040
2.160000	120.737986
2.170000	101.149843
2.180000	81.982652
2.190000	64.013822
2.200000	48.538986
2.210000	35.851760
2.220000	29.748116
2.230000	35.002025
2.240000	44.901807
2.250000	56.137539
2.260000	66.032940
2.270000	79.268760
2.280000	96.127291
2.290000	115.036649
2.300000	137.872668
2.310000	165.777208
2.320000	192.572421
2.330000	216.838443
2.340000	236.243739
2.350000	258.567976
2.360000	282.530489
2.370000	305.600850
2.380000	328.800221
2.390000	351.602486
2.400000	377.721059
2.410000	400.548352
2.420000	421.970918
2.430000	427.086909
2.440000	412.223528
2.450000	380.950372
2.460000	348.479565
2.470000	323.433620
2.480000	301.337277
2.490000	281.899105
2.500000	263.160916
2.510000	251.357355
2.520000	248.944197
2.530000	258.452254
2.540000	276.012763
2.550000	295.176011
2.560000	311.723154
2.570000	325.546506
2.580000	339.409958
2.590000	352.207978
2.600000	362.396906
2.610000	370.509574
2.620000	380.026108
2.630000	390.434100
2.640000	397.278110
2.650000	402.342458
2.660000	407.162518
2.670000	412.548307
2.680000	418.343479
2.690000	425.054906
2.700000	431.150821
2.710000	433.187952
2.720000	432.268727
2.730000	426.610864
2.740000	411.342310
2.750000	377.653498
2.760000	332.422553
2.770000	286.670784
2.780000	249.460387
2.790000	216.948627
2.800000	182.787034
2.810000	147.540847
2.820000	115.084516
2.830000	90.430964
2.840000	73.662916
2.850000	66.954306
2.860000	67.855787
2.870000	68.088494
2.880000	64.689804
2.890000	60.865855
2.900000	59.816386
2.910000	60.925004
2.920000	60.894227
2.930000	64.297411
2.940000	69.245642
2.950000	74.629635
2.960000	75.543991
2.970000	73.937728
2.980000	70.796420
2.990000	72.550518
3.000000	78.318189
3.010000	84.110546
3.020000	87.800526
3.030000	92.306233
3.040000	99.902576
3.050000	95.742720
3.060000	71.643769
3.070000	29.159802
3.080000	-16.624345
3.090000	-58.825770
3.100000	-98.962648
3.110000	-138.525370
3.120000	-178.012655
3.130000	-217.271261
3.140000	-253.436952
3.150000	-281.058769
3.160000	-296.582164
3.170000	-301.576374
3.180000	-302.457026
3.190000	-302.468587
3.200000	-304.046628
3.210000	-306.736802
3.220000	-307.680541
3.230000	-306.396096
3.240000	-307.045397
3.250000	-310.431323
3.260000	-316.459913
3.270000	-319.838025
3.280000	-318.602962
3.290000	-314.975898
3.300000	-309.795518
3.310000	-307.510613
3.320000	-305.355475
3.330000	-303.106479
3.340000	-296.291550
3.350000	-288.445740
3.360000	-282.948881
3.370000	-284.510615
3.380000	-301.672308
3.390000	-332.268596
3.400000	-368.770456
3.410000	-398.736142
3.420000	-418.616356
3.430000	-438.631768
3.440000	-455.482311
3.450000	-471.266342
3.460000	-492.417887
3.470000	-516.267215
3.480000	-539.075416
3.490000	-546.631130
3.500000	-544.512685
3.510000	-540.058844
3.520000	-534.659486
3.530000	-527.874305
3.540000	-521.538879
3.550000	-518.753144
3.560000	-517.464251
3.570000	-512.015775
3.580000	-505.139906
3.590000	-497.333058
3.600000	-487.873223
3.610000	-473.036649
3.620000	-460.699827
3.630000	-449.777257
3.640000	-437.249620
3.650000	-422.920985
3.660000	-407.865129
3.670000	-393.127057
3.680000	-375.197409
3.690000	-363.097012
3.700000	-366.260479
3.710000	-395.801415
3.720000	-439.322326
3.730000	-489.249265
3.740000	-530.092807
3.750000	-564.143162
3.760000	-589.582724
3.770000	-610.450697
3.780000	-630.803737
3.790000	-653.820363
3.800000	-671.726033
3.810000	-681.267296
3.820000	-680.049018
3.830000	-679.483965
3.840000	-678.736980
3.850000	-678.436740
3.860000	-677.485752
3.870000	-672.448771
3.880000	-663.978218
3.890000	-645.506893
3.900000	-642.959293
3.910000	-641.853514
3.920000	-641.043246
3.930000	-626.898869
3.940000	-617.614390
3.950000	-611.288912
3.960000	-596.893768
3.970000	-575.111176
3.980000	-551.921170
3.990000	-536.342005
4.000000	-521.638934
4.010000	-512.337460
4.020000	-505.403036
4.030000	-509.432030
4.040000	-522.873164
4.050000	-548.271807
4.060000	-579.052252
4.070000	-610.517476
4.080000	-638.968195
4.090000	-662.167988
4.100000	-684.302645
4.110000	-703.201950
4.120000	-718.375982
4.130000	-727.297952
4.140000	-729.522698
4.150000	-725.463994
4.160000	-716.406169
4.170000	-709.045945
4.180000	-705.010097
4.190000	-701.683964
4.200000	-697.016623
4.210000	-689.390886
4.220000	-685.112611
4.230000	-679.468561
4.240000	-673.960000
4.250000	-664.598801
4.260000	-652.555840
4.270000	-641.470070
4.280000	-627.532102
4.290000	-613.760933
4.300000	-602.574175
4.310000	-599.460980
4.320000	-600.658199
4.330000	-600.222345
4.340000	-593.813875
4.350000	-585.407062
4.360000	-576.362824
4.370000	-574.677050
4.380000	-590.985998
4.390000	-626.320885
4.400000	-667.971577
4.410000	-700.691147
4.420000	-728.075548
4.430000	-754.129076
4.440000	-774.890756
4.450000	-791.313515
4.460000	-804.104863
4.470000	-814.899961
4.480000	-817.697339
4.490000	-811.900475
4.500000	-805.378829
4.510000	-799.949998
4.520000	-798.127726
4.530000	-797.050108
4.540000	-797.284580
4.550000	-796.206504
4.560000	-791.507198
4.570000	-783.434657
4.580000	-774.801429
4.590000	-767.725299
4.600000	-758.477154
4.610000	-748.093067
4.620000	-735.878646
4.630000	-726.205078
4.640000	-718.663810
4.650000	-711.710569
4.660000	-703.511240
4.670000	-693.281797
4.680000	-681.424567
4.690000	-666.911518
4.700000	-648.733480
4.710000	-642.983517
4.720000	-658.751566
4.730000	-690.744187
4.740000	-719.792812
4.750000	-732.581957
4.760000	-737.287198
4.770000	-738.470330
4.780000	-740.508012
4.790000	-740.732698
4.800000	-735.118172
4.810000	-720.055688
4.820000	-699.140652
4.830000	-678.110147
4.840000	-660.214941
4.850000	-641.870850
4.860000	-619.012633
4.870000	-594.374656
4.880000	-569.197014
4.890000	-542.930704
4.900000	-514.770875
4.910000	-486.550535
4.920000	-458.396271
4.930000	-433.902461
4.940000	-409.390609
4.950000	-386.658021
4.960000	-359.751927
4.970000	-328.484016
4.980000	-296.511412
4.990000	-265.358092
5.000000	-241.671907
5.010000	-218.915886
5.020000	-208.935817
5.030000	-216.506846
5.040000	-245.583048
5.050000	-280.094707
5.060000	-304.282686
5.070000	-316.104784
5.080000	-316.708611
5.090000	-314.852941
5.100000	-313.167860
5.110000	-311.309398
5.120000	-302.659322
5.130000	-281.149790
5.140000	-251.228395
5.150000	-223.722738
5.160000	-207.841023
5.170000	-199.640537
5.180000	-192.493548
5.190000	-181.610289
5.200000	-169.211865
5.210000	-153.949735
5.220000	-135.645856
5.230000	-115.003690
5.240000	-95.800003
5.250000	-80.431862
5.260000	-67.655114
5.270000	-55.234569
5.280000	-37.544460
5.290000	-14.763054
5.300000	15.196287
5.310000	43.302174
5.320000	68.918052
5.330000	80.963722
5.340000	72.610207
5.350000	45.273672
5.360000	13.631585
5.370000	-7.121783
5.380000	-21.106535
5.390000	-33.225462
5.400000	-50.890580
5.410000	-67.997341
5.420000	-85.064431
5.430000	-96.791142
5.440000	-100.950922
5.450000	-99.968204
5.460000	-96.207357
5.470000	-93.853331
5.480000	-91.150161
5.490000	-87.778042
5.500000	-84.464434
5.510000	-80.065827
5.520000	-73.145735
5.530000	-66.733329
5.540000	-63.526528
5.550000	-65.097759
5.560000	-62.912533
5.570000	-55.179966
5.580000	-42.336860
5.590000	-31.646074
5.600000	-20.097741
5.610000	-9.155519
5.620000	0.446047
5.630000	-0.719119
5.640000	-21.371456
5.650000	-55.271140
5.660000	-94.546939
5.670000	-123.831314
5.680000	-145.466084
5.690000	-161.752680
5.700000	-177.753729
5.710000	-193.687936
5.720000	-205.055220
5.730000	-210.658681
5.740000	-211.054216
5.750000	-214.342447
5.760000	-218.383659
5.770000	-221.051094
5.780000	-219.736227
5.790000	-214.457673
5.800000	-209.457379
5.810000	-200.530971
5.820000	-190.554160
5.830000	-180.287572
5.840000	-169.336476
5.850000	-159.070657
5.860000	-146.795525
5.870000	-138.231008
5.880000	-133.593205
5.890000	-132.409472
5.900000	-133.408285
5.910000	-139.618931
5.920000	-152.905602
5.930000	-180.193983
5.940000	-221.401615
5.950000	-272.107982
5.960000	-315.547500
5.970000	-343.395193
5.980000	-363.086282
5.990000	-378.354760
6.000000	-393.642440
6.010000	-401.296114
6.020000	-405.579240
6.030000	-400.556940
6.040000	-390.223695
6.050000	-378.497504
6.060000	-367.542844
6.070000	-356.442006
6.080000	-343.872844
6.090000	-335.416986
6.100000	-327.522159
6.110000	-317.070446
6.120000	-302.185053
6.130000	-288.420701
6.140000	-278.181889
6.150000	-271.105491
6.160000	-264.848298
6.170000	-256.797426
6.180000	-249.536402
6.190000	-240.816380
6.200000	-232.910085
6.210000	-227.172171
6.220000	-231.975267
6.230000	-255.198361
6.240000	-291.007401
6.250000	-331.890753
6.260000	-362.688863
6.270000	-383.628596
6.280000	-401.725017
6.290000	-422.364197
6.300000	-442.740420
6.310000	-457.761448
6.320000	-463.092011
6.330000	-461.846109
6.340000	-460.118245
6.350000	-460.921602
6.360000	-465.471669
6.370000	-469.981646
6.380000	-473.163075
6.390000	-477.048089
6.400000	-477.835225
6.410000	-479.131132
6.420000	-483.834499
6.430000	-487.856866
6.440000	-492.509964
6.450000	-488.213517
6.460000	-480.888309
6.470000	-466.870282
6.480000	-450.614857
6.490000	-436.853169
6.500000	-424.984920
6.510000	-418.504917
6.520000	-425.357605
6.530000	-453.479829
6.540000	-496.680786
6.550000	-537.078040
6.560000	-566.686002
6.570000	-590.031577
6.580000	-610.007126
6.590000	-629.638643
6.600000	-646.298645
6.610000	-657.230703
6.620000	-658.906146
6.630000	-654.826258
6.640000	-649.834266
6.650000	-648.403807
6.660000	-646.053538
6.670000	-643.644512
6.680000	-641.251864
6.690000	-637.528581
6.700000	-631.096764
6.710000	-618.720258
6.720000	-607.615800
6.730000	-599.207494
6.740000	-593.441619
6.750000	-583.987702
6.760000	-572.599218
6.770000	-563.082488
6.780000	-557.727617
6.790000	-554.472972
6.800000	-550.494257
6.810000	-553.532158
6.820000	-568.558988
6.830000	-593.878063
6.840000	-622.914693
6.850000	-648.860364
6.860000	-674.600059
6.870000	-697.797353
6.880000	-719.930920
6.890000	-736.686099
6.900000	-745.901343
6.910000	-747.881242
6.920000	-742.837105
6.930000	-736.389470
6.940000	-730.393381
6.950000	-728.867119
6.960000	-727.222118
6.970000	-727.324546
6.980000	-725.664079
6.990000	-725.761881
7.000000	-725.049178
7.010000	-722.830155
7.020000	-718.726870
7.030000	-714.194438
7.040000	-713.368816
7.050000	-713.830184
7.060000	-713.968362
7.070000	-711.752721
7.080000	-706.525522
7.090000	-700.302340
7.100000	-695.369054
7.110000	-698.148166
7.120000	-716.166346
7.130000	-743.908109
7.140000	-772.904669
7.150000	-789.602429
7.160000	-796.969243
7.170000	-800.918237
7.180000	-803.970418
7.190000	-809.180611
7.200000	-809.889188
7.210000	-803.731563
7.220000	-789.420198
7.230000	-775.250612
7.240000	-761.871137
7.250000	-750.377641
7.260000	-736.580122
7.270000	-724.799754
7.280000	-712.206979
7.290000	-699.501537
7.300000	-685.765164
7.310000	-670.806881
7.320000	-657.599387
7.330000	-639.017621
7.340000	-618.728828
7.350000	-591.468512
7.360000	-565.158270
7.370000	-539.493026
7.380000	-514.183068
7.390000	-485.769909
7.400000	-456.483651
7.410000	-430.979364
7.420000	-420.393698
7.430000	-423.746281
7.440000	-432.873835
7.450000	-435.758169
7.460000	-430.636770
7.470000	-427.054813
7.480000	-426.964950
7.490000	-430.264307
7.500000	-431.529406
7.510000	-427.396071
7.520000	-414.008180
7.530000	-393.124645
7.540000	-366.734692
7.550000	-333.757608
7.560000	-296.716299
7.570000	-260.641700
7.580000	-230.607974
7.590000	-205.417553
7.600000	-177.724119
7.610000	-146.116769
7.620000	-110.416408
7.630000	-75.401396
7.640000	-39.996782
7.650000	-3.590487
7.660000	37.529133
7.670000	79.966313
7.680000	124.833811
7.690000	171.953582
7.700000	220.237640
7.710000	265.033679
7.720000	290.046407
7.730000	295.263046
7.740000	292.326032
7.750000	298.948894
7.760000	322.350934
7.770000	353.364793
7.780000	391.509039
7.790000	435.889861
7.800000	487.115857
7.810000	544.523636
7.820000	608.171138
7.830000	676.934926
7.840000	750.343240
7.850000	824.452648
7.860000	897.304360
7.870000	966.754356
7.880000	1033.057485
7.890000	1100.520190
7.900000	1167.247487
7.910000	1237.758456
7.920000	1309.206302
7.930000	1382.129286
7.940000	1454.281620
7.950000	1524.294214
7.960000	1594.158725
7.970000	1664.916612
7.980000	1735.490938
7.990000	1801.993050
8.000000	1861.956312
8.010000	1910.860587
8.020000	1942.213813
8.030000	1958.551253
8.040000	1975.640107
8.050000	2000.016452
8.060000	2029.844049
8.070000	2057.600755
8.080000	2085.877889
8.090000	2114.981621
8.100000	2146.385145
8.110000	2184.508152
8.120000	2231.357361
8.130000	2281.486467
8.140000	2332.811719
8.150000	2381.934716
8.160000	2428.749291
8.170000	2472.856944
8.180000	2510.820560
8.190000	2550.285570
8.200000	2581.654328
8.210000	2608.560944
8.220000	2624.270556
8.230000	2632.676968
8.240000	2636.027555
8.250000	2634.265776
8.260000	2631.274955
8.270000	2626.656187
8.280000	2627.690583
8.290000	2635.510599
8.300000	2643.900653
8.310000	2639.493712
8.320000	2626.307186
8.330000	2609.963636
8.340000	2601.210533
8.350000	2591.864625
8.360000	2580.950375
8.370000	2570.256860
8.380000	2563.178552
8.390000	2558.788074
8.400000	2556.224667
8.410000	2562.157951
8.420000	2582.420004
8.430000	2622.344841
8.440000	2679.746577
8.450000	2749.007688
8.460000	2818.542285
8.470000	2882.505291
8.480000	2936.160135
8.490000	2982.175757
8.500000	3023.598285
8.510000	3063.666071
8.520000	3100.508427
8.530000	3134.314753
8.540000	3166.574849
8.550000	3202.125315
8.560000	3236.769110
8.570000	3268.761872
8.580000	3289.095933
8.590000	3288.884507
8.600000	3268.600758
8.610000	3238.853801
8.620000	3209.923337
8.630000	3182.281303
8.640000	3149.712494
8.650000	3107.196811
8.660000	3053.663648
8.670000	2997.288604
8.680000	2949.440851
8.690000	2914.511543
8.700000	2886.339063
8.710000	2852.867952
8.720000	2808.404052
8.730000	2747.039372
8.740000	2672.310189
8.750000	2584.121313
8.760000	2489.976546
8.770000	2394.385663
8.780000	2299.374095
8.790000	2206.646225
8.800000	2116.961173
8.810000	2036.476472
8.820000	1966.114692
8.830000	1909.383722
8.840000	1864.397161
8.850000	1823.083864
8.860000	1776.820762
8.870000	1712.580647
8.880000	1635.769807
8.890000	1552.887981
8.900000	1472.531548
8.910000	1395.313037
8.920000	1319.759916
8.930000	1247.551799
8.940000	1176.448584
8.950000	1110.611888
8.960000	1050.931346
8.970000	1002.820141
8.980000	965.532253
8.990000	938.496587
9.000000	918.927431
9.010000	905.309511
9.020000	895.787294
9.030000	890.258829
9.040000	886.104438
9.050000	884.682547
9.060000	884.543284
9.070000	885.237700
9.080000	885.106755
9.090000	885.929502
9.100000	888.460537
9.110000	892.076556
9.120000	894.601665
9.130000	896.688894
9.140000	900.871369
9.150000	907.751899
9.160000	910.576051
9.170000	901.265668
9.180000	879.756352
9.190000	847.569936
9.200000	819.759156
9.210000	798.957958
9.220000	787.544974
9.230000	773.422450
9.240000	753.805107
9.250000	730.681294
9.260000	712.530141
9.270000	701.368624
9.280000	697.696400
9.290000	694.814058
9.300000	688.646892
9.310000	681.386204
9.320000	674.370348
9.330000	672.743242
9.340000	671.840435
9.350000	674.226166
9.360000	676.399016
9.370000	681.498265
9.380000	684.371540
9.390000	684.886647
9.400000	684.115637
9.410000	683.042151
9.420000	686.302896
9.430000	690.273854
9.440000	697.605364
9.450000	706.590650
9.460000	715.336792
9.470000	722.671305
9.480000	713.791737
9.490000	684.875467
9.500000	645.041305
9.510000	606.847212
9.520000	578.369085
9.530000	552.199336
9.540000	524.461849
9.550000	498.325134
9.560000	473.632177
9.570000	453.880034
9.580000	441.551148
9.590000	437.848547
9.600000	437.869502
9.610000	437.902172
9.620000	434.268813
9.630000	430.054252
9.640000	424.737114
9.650000	421.293846
9.660000	420.609923
9.670000	420.601209
9.680000	423.903959
9.690000	431.310773
9.700000	440.261717
9.710000	449.428979
9.720000	458.025213
9.730000	466.620826
9.740000	477.529061
9.750000	488.200535
