Time(s)	GREEN_denoised_median
0.000000	-460.811830
0.010000	-460.811830
0.020000	-460.811830
0.030000	-424.409653
0.040000	-379.817352
0.050000	-322.391554
0.060000	-241.791595
0.070000	-149.416646
0.080000	-45.718359
0.090000	68.575809
0.100000	191.370317
0.110000	317.580145
0.120000	450.503003
0.130000	593.606827
0.140000	737.623477
0.150000	885.691240
0.160000	1034.751472
0.170000	1184.809489
0.180000	1332.897594
0.190000	1476.957397
0.200000	1625.099668
0.210000	1772.097544
0.220000	1915.338637
0.230000	2062.295938
0.240000	2202.559860
0.250000	2327.531484
0.260000	2327.531484
0.270000	2327.531484
0.280000	2146.036731
0.290000	1864.169902
0.300000	1584.530713
0.310000	1357.503997
0.320000	1195.959120
0.330000	1089.813221
0.340000	1025.416595
0.350000	983.145592
0.360000	983.145592
0.370000	983.145592
0.380000	1011.428234
0.390000	1048.057564
0.400000	1048.057564
0.410000	1048.057564
0.420000	1035.649799
0.430000	1004.126886
0.440000	979.010870
0.450000	979.010870
0.460000	979.010870
0.470000	1004.438571
0.480000	1048.765058
0.490000	1103.126297
0.500000	1164.584647
0.510000	1240.893095
0.520000	1322.406740
0.530000	1406.730668
0.540000	1493.285247
0.550000	1582.623336
0.560000	1677.221570
0.570000	1777.563602
0.580000	1874.184168
0.590000	1975.607395
0.600000	2070.145880
0.610000	2174.785063
0.620000	2283.098896
0.630000	2391.025298
0.640000	2511.154179
0.650000	2625.237810
0.660000	2734.319850
0.670000	2734.319850
0.680000	2734.319850
0.690000	2540.646907
0.700000	2233.962131
0.710000	1914.107503
0.720000	1635.378465
0.730000	1422.546953
0.740000	1267.765454
0.750000	1156.027281
0.760000	1072.212957
0.770000	1008.588995
0.780000	1008.588995
0.790000	1003.087461
0.800000	1002.705117
0.810000	1002.705117
0.820000	976.157440
0.830000	938.416492
0.840000	901.945637
0.850000	887.044728
0.860000	887.044728
0.870000	887.044728
0.880000	916.620289
0.890000	957.956676
0.900000	1011.556679
0.910000	1078.935710
0.920000	1152.532628
0.930000	1231.999222
0.940000	1316.572277
0.950000	1403.121235
0.960000	1493.691301
0.970000	1578.275455
0.980000	1663.922619
0.990000	1744.458936
1.000000	1811.212776
1.010000	1878.772111
1.020000	1935.496804
1.030000	1987.199218
1.040000	2043.858351
1.050000	2100.651810
1.060000	2161.309578
1.070000	2224.155785
1.080000	2224.155785
1.090000	2224.155785
1.100000	2183.370530
1.110000	1932.226009
1.120000	1607.188149
1.130000	1291.995639
1.140000	1025.949847
1.150000	833.791342
1.160000	705.682565
1.170000	615.608525
1.180000	562.346256
1.190000	562.346256
1.200000	562.346256
1.210000	594.551360
1.220000	594.551360
1.230000	594.551360
1.240000	573.292849
1.250000	520.741767
1.260000	467.425136
1.270000	426.921989
1.280000	400.588629
1.290000	400.588629
1.300000	400.588629
1.310000	413.411346
1.320000	440.203291
1.330000	481.708474
1.340000	526.601009
1.350000	577.106676
1.360000	628.042088
1.370000	687.605195
1.380000	752.515053
1.390000	817.160574
1.400000	881.065222
1.410000	943.778965
1.420000	1007.685948
1.430000	1076.463506
1.440000	1145.345903
1.450000	1217.231331
1.460000	1294.065282
1.470000	1294.065282
1.480000	1294.065282
1.490000	1158.789270
1.500000	898.738038
1.510000	598.818069
1.520000	324.739362
1.530000	109.818383
1.540000	-35.261237
1.550000	-131.207533
1.560000	-186.167596
1.570000	-186.167596
1.580000	-186.167596
1.590000	-155.143894
1.600000	-114.492304
1.610000	-114.492304
1.620000	-114.492304
1.630000	-151.728680
1.640000	-199.193235
1.650000	-243.374009
1.660000	-272.842606
1.670000	-272.842606
1.680000	-272.842606
1.690000	-259.607990
1.700000	-225.876098
1.710000	-173.191594
1.720000	-116.320438
1.730000	-45.652615
1.740000	33.248950
1.750000	121.961147
1.760000	215.856241
1.770000	311.633268
1.780000	417.549762
1.790000	514.283892
1.800000	616.390347
1.810000	728.962312
1.820000	839.235428
1.830000	952.744292
1.840000	1056.081536
1.850000	1056.081536
1.860000	1056.081536
1.870000	867.446157
1.880000	574.952056
1.890000	259.531528
1.900000	-13.977532
1.910000	-216.429978
1.920000	-361.975163
1.930000	-465.342495
1.940000	-533.902288
1.950000	-562.108373
1.960000	-562.108373
1.970000	-562.108373
1.980000	-520.511098
1.990000	-503.636421
2.000000	-503.636421
2.010000	-503.636421
2.020000	-535.938697
2.030000	-569.304501
2.040000	-578.147627
2.050000	-578.147627
2.060000	-578.147627
2.070000	-548.580184
2.080000	-501.646848
2.090000	-438.180630
2.100000	-367.122210
2.110000	-285.703019
2.120000	-197.569524
2.130000	-98.157417
2.140000	5.997890
2.150000	122.471932
2.160000	236.548847
2.170000	352.197143
2.180000	471.137950
2.190000	590.955084
2.200000	714.786174
2.210000	832.720824
2.220000	950.520843
2.230000	1066.509294
2.240000	1066.509294
2.250000	1066.509294
2.260000	953.008828
2.270000	669.221021
2.280000	351.008748
2.290000	68.194244
2.300000	-151.064441
2.310000	-307.871863
2.320000	-410.115500
2.330000	-474.922868
2.340000	-505.103648
2.350000	-505.103648
2.360000	-505.103648
2.370000	-462.830585
2.380000	-453.963567
2.390000	-453.963567
2.400000	-453.963567
2.410000	-488.542166
2.420000	-528.815143
2.430000	-560.316001
2.440000	-560.316001
2.450000	-560.316001
2.460000	-533.418546
2.470000	-495.845450
2.480000	-446.136967
2.490000	-378.554688
2.500000	-302.861836
2.510000	-221.207114
2.520000	-126.525727
2.530000	-27.868352
2.540000	71.862496
2.550000	180.534997
2.560000	291.244929
2.570000	401.986361
2.580000	512.666956
2.590000	620.464340
2.600000	731.146462
2.610000	842.955304
2.620000	946.638806
2.630000	1036.099022
2.640000	1036.099022
2.650000	1036.099022
2.660000	838.526034
2.670000	554.866985
2.680000	276.212273
2.690000	47.539920
2.700000	-114.146977
2.710000	-217.827438
2.720000	-275.483687
2.730000	-275.483687
2.740000	-275.483687
2.750000	-255.469839
2.760000	-198.053586
2.770000	-151.769209
2.780000	-151.769209
2.790000	-151.769209
2.800000	-180.434000
2.810000	-215.242347
2.820000	-239.543353
2.830000	-239.543353
2.840000	-239.543353
2.850000	-213.745850
2.860000	-179.615932
2.870000	-128.948129
2.880000	-66.642691
2.890000	-1.133889
2.900000	76.403923
2.910000	158.661748
2.920000	248.503933
2.930000	347.478967
2.940000	446.599945
2.950000	547.349619
2.960000	652.724530
2.970000	756.218322
2.980000	868.921328
2.990000	972.028523
3.000000	1007.543068
3.010000	1007.543068
3.020000	1007.543068
3.030000	776.428247
3.040000	479.172108
3.050000	180.170350
3.060000	-59.185558
3.070000	-248.260654
3.080000	-369.448230
3.090000	-457.815732
3.100000	-502.564643
3.110000	-502.564643
3.120000	-502.564643
3.130000	-476.371991
3.140000	-429.122338
3.150000	-429.122338
3.160000	-429.122338
3.170000	-476.820778
3.180000	-496.471525
3.190000	-542.064056
3.200000	-542.064056
3.210000	-542.064056
3.220000	-523.359445
3.230000	-523.143530
3.240000	-443.537825
3.250000	-427.793713
3.260000	-322.097600
3.270000	-296.101619
3.280000	-296.101619
3.290000	-296.101619
3.300000	-1244.453968
3.310000	-1244.767832
3.320000	-1244.767832
3.330000	-1244.767832
3.340000	-1180.978729
3.350000	-1162.172263
3.360000	-1064.296975
3.370000	-1019.478717
3.380000	-910.918806
3.390000	-841.375680
3.400000	-725.010317
3.410000	-644.723967
3.420000	-528.664840
3.430000	-437.424254
3.440000	-318.998523
3.450000	-224.396057
3.460000	-103.041956
3.470000	-17.667990
3.480000	95.272350
3.490000	197.791947
3.500000	314.769895
3.510000	413.103035
3.520000	461.065980
3.530000	461.065980
3.540000	461.065980
3.550000	228.438194
3.560000	-88.038834
3.570000	-407.275923
3.580000	-672.200438
3.590000	-872.108404
3.600000	-1014.402964
3.610000	-1115.958263
3.620000	-1194.599638
3.630000	-1254.763046
3.640000	-1260.986403
3.650000	-1260.986403
3.660000	-1274.575627
3.670000	-1274.575627
3.680000	-1260.986403
3.690000	-1255.321794
3.700000	-1174.060637
3.710000	-1080.782642
3.720000	-993.916421
3.730000	-892.783722
3.740000	-801.889311
3.750000	-693.634779
3.760000	-592.999762
3.770000	-487.375813
3.780000	-393.183217
3.790000	-288.003504
3.800000	-193.481079
3.810000	-85.498944
3.820000	14.101347
3.830000	123.120967
3.840000	217.575426
3.850000	217.575426
3.860000	217.575426
3.870000	71.755382
3.880000	-205.952869
3.890000	-488.008923
3.900000	-734.882628
3.910000	-902.755377
3.920000	-1039.056981
3.930000	-1108.268021
3.940000	-1171.490768
3.950000	-1171.490768
3.960000	-1171.490768
3.970000	-1136.547162
3.980000	-1111.035663
3.990000	-1111.035663
4.000000	-1111.035663
4.010000	-1111.541695
4.020000	-1175.916764
4.030000	-1177.294773
4.040000	-1183.411143
4.050000	-1183.411143
4.060000	-1183.411143
4.070000	-1117.758718
4.080000	-1112.938408
4.090000	-1000.138298
4.100000	60.063782
4.110000	219.105749
4.120000	279.353409
4.130000	428.668565
4.140000	498.671229
4.150000	640.114629
4.160000	723.225368
4.170000	862.237764
4.180000	930.464337
4.190000	930.464337
4.200000	930.464337
4.210000	754.144520
4.220000	441.444986
4.230000	167.049894
4.240000	-105.146009
4.250000	-276.667750
4.260000	-437.246539
4.270000	-514.933900
4.280000	-603.795569
4.290000	-628.167105
4.300000	-628.167105
4.310000	-628.167105
4.320000	-627.976213
4.330000	-627.976213
4.340000	-627.976213
4.350000	-634.418789
4.360000	-701.411187
4.370000	-708.139108
4.380000	-708.139108
4.390000	-708.139108
4.400000	27.774164
4.410000	174.502679
4.420000	251.169724
4.430000	391.035873
4.440000	472.874954
4.450000	600.195048
4.460000	679.046676
4.470000	798.866819
4.480000	885.778841
4.490000	1008.940523
4.500000	1102.148379
4.510000	1224.367233
4.520000	1270.971352
4.530000	1270.971352
4.540000	1270.971352
4.550000	1073.976204
4.560000	789.673074
4.570000	522.251358
4.580000	296.165310
4.590000	140.548893
4.600000	28.513214
4.610000	-42.076034
4.620000	-100.203071
4.630000	-109.115218
4.640000	-109.115218
4.650000	-109.115218
4.660000	-109.115218
4.670000	-109.115218
4.680000	-125.592008
4.690000	-180.798754
4.700000	-243.454927
4.710000	-289.043698
4.720000	-312.281257
4.730000	-312.281257
4.740000	-312.281257
4.750000	-287.482441
4.760000	-238.216631
4.770000	-171.683826
4.780000	-102.161666
4.790000	-21.814671
4.800000	66.874791
4.810000	161.063349
4.820000	255.915662
4.830000	368.010097
4.840000	472.853666
4.850000	571.035697
4.860000	678.844774
4.870000	779.981798
4.880000	881.911170
4.890000	984.918211
4.900000	1086.981267
4.910000	1206.921911
4.920000	1325.958117
4.930000	1423.895101
4.940000	1423.895101
4.950000	1423.895101
4.960000	1231.026478
4.970000	961.938785
4.980000	687.268608
4.990000	458.940856
5.000000	278.381752
5.010000	159.988192
5.020000	81.403516
5.030000	23.052658
5.040000	10.575213
5.050000	10.575213
5.060000	10.575213
5.070000	44.169601
5.080000	44.169601
5.090000	44.169601
5.100000	16.890918
5.110000	-22.708873
5.120000	-61.003156
5.130000	-71.414979
5.140000	-71.414979
5.150000	-71.414979
5.160000	-35.766598
5.170000	6.671665
5.180000	66.448661
5.190000	135.716014
5.200000	212.688729
5.210000	299.779972
5.220000	390.913480
5.230000	485.867930
5.240000	592.167341
5.250000	695.904778
5.260000	807.495669
5.270000	926.920539
5.280000	1048.816799
5.290000	1156.913715
5.300000	1177.555468
5.310000	1177.555468
5.320000	1177.555468
5.330000	958.799591
5.340000	692.121126
5.350000	430.780988
5.360000	223.681295
5.370000	61.609097
5.380000	-45.700317
5.390000	-88.467202
5.400000	-88.467202
5.410000	-88.467202
5.420000	-48.415030
5.430000	-11.476582
5.440000	45.110391
5.450000	99.396315
5.460000	186.798299
5.470000	256.035860
5.480000	362.784585
5.490000	443.352008
5.500000	569.146231
5.510000	656.245668
5.520000	795.993225
5.530000	880.596189
5.540000	1031.473398
5.550000	1110.236585
5.560000	1264.743037
5.570000	1329.018101
5.580000	1329.018101
5.590000	1329.018101
5.600000	29.712900
5.610000	-5.316506
5.620000	-5.316506
5.630000	-5.316506
5.640000	-5.316506
5.650000	-57.986795
5.660000	-75.898032
5.670000	-95.297394
5.680000	-95.297394
5.690000	-95.297394
5.700000	673.590858
5.710000	786.604784
5.720000	873.946664
5.730000	981.902712
5.740000	1072.069146
5.750000	1158.878320
5.760000	1158.878320
5.770000	1158.878320
5.780000	968.854724
5.790000	709.702521
5.800000	431.684887
5.810000	209.591548
5.820000	38.292722
5.830000	-77.495494
5.840000	-156.166314
5.850000	-181.604811
5.860000	-181.604811
5.870000	-181.604811
5.880000	-139.142450
5.890000	-120.550484
5.900000	-120.550484
5.910000	-120.550484
5.920000	-165.317490
5.930000	-209.439737
5.940000	-239.937909
5.950000	-240.257107
5.960000	-240.257107
5.970000	-240.257107
5.980000	-212.281998
5.990000	-172.147968
6.000000	-124.993934
6.010000	-60.003193
6.020000	6.210332
6.030000	84.207491
6.040000	166.355630
6.050000	254.434759
6.060000	345.478352
6.070000	434.647073
6.080000	528.622633
6.090000	632.845618
6.100000	733.703947
6.110000	829.064773
6.120000	829.064773
6.130000	829.064773
6.140000	666.820326
6.150000	397.382626
6.160000	102.034334
6.170000	-160.435259
6.180000	-364.857011
6.190000	-516.349657
6.200000	-620.764003
6.210000	-694.306442
6.220000	-699.557353
6.230000	-699.557353
6.240000	-699.557353
6.250000	-669.368368
6.260000	-669.368368
6.270000	-669.368368
6.280000	-711.315694
6.290000	-755.366864
6.300000	-796.260773
6.310000	-817.350902
6.320000	-817.350902
6.330000	-817.350902
6.340000	-792.412872
6.350000	-757.230012
6.360000	-706.513560
6.370000	-648.232273
6.380000	-581.608774
6.390000	-506.254379
6.400000	-420.720078
6.410000	-326.303251
6.420000	-228.863353
6.430000	-131.363826
6.440000	-31.010685
6.450000	69.540549
6.460000	171.833221
6.470000	276.421702
6.480000	379.644833
6.490000	452.977145
6.500000	452.977145
6.510000	452.977145
6.520000	245.195620
6.530000	-64.126223
6.540000	-396.912591
6.550000	-693.301869
6.560000	-927.135846
6.570000	-1105.591772
6.580000	-1239.391755
6.590000	-1343.917604
6.600000	-1427.652052
6.610000	-1481.217917
6.620000	-1489.625913
6.630000	-1493.262151
6.640000	-1494.935242
6.650000	-1513.000981
6.660000	-1553.606886
6.670000	-1605.360810
6.680000	-1656.971981
6.690000	-1693.736067
6.700000	-1694.825089
6.710000	-1694.825089
6.720000	-1694.825089
6.730000	-1661.606777
6.740000	-1618.294646
6.750000	-1559.052799
6.760000	-1492.830202
6.770000	-1410.474538
6.780000	-1323.447842
6.790000	-1231.890672
6.800000	-1136.091393
6.810000	-1039.340562
6.820000	-931.724187
6.830000	-824.875135
6.840000	-718.349298
6.850000	-617.450964
6.860000	-513.962714
6.870000	-409.078054
6.880000	-311.622470
6.890000	-207.667991
6.900000	-96.343389
6.910000	3.663090
6.920000	3.663090
6.930000	3.663090
6.940000	-21.705157
6.950000	-277.974398
6.960000	-598.252396
6.970000	-905.705297
6.980000	-1159.924635
6.990000	-1353.551875
7.000000	-1502.686153
7.010000	-1615.401200
7.020000	-1703.482585
7.030000	-1764.235392
7.040000	-1767.163677
7.050000	-1770.024300
7.060000	-1775.151511
7.070000	-1775.151511
7.080000	-1798.089987
7.090000	-1840.852737
7.100000	-1886.035225
7.110000	-1925.716761
7.120000	-1941.980914
7.130000	-1941.980914
7.140000	-1941.980914
7.150000	-1913.575923
7.160000	-1870.986089
7.170000	-1812.534733
7.180000	-1742.028451
7.190000	-1664.518828
7.200000	-1576.067715
7.210000	-1479.542926
7.220000	-1379.131620
7.230000	-1273.572773
7.240000	-1165.225869
7.250000	-1055.620420
7.260000	-944.334509
7.270000	-828.681262
7.280000	-715.488355
7.290000	-603.739283
7.300000	-490.655731
7.310000	-377.827312
7.320000	-272.857274
7.330000	-163.879151
7.340000	-48.100657
7.350000	71.035337
7.360000	186.630290
7.370000	297.950950
7.380000	297.950950
7.390000	297.950950
7.400000	104.853150
7.410000	-179.064698
7.420000	-476.483569
7.430000	-720.984104
7.440000	-919.033719
7.450000	-1057.863550
7.460000	-1160.695223
7.470000	-1226.689034
7.480000	-1277.369361
7.490000	-1277.369361
7.500000	-1277.369361
7.510000	-1263.298470
7.520000	-1263.298470
7.530000	-1263.298470
7.540000	-1313.801681
7.550000	-1351.410152
7.560000	-1400.336728
7.570000	-1401.965614
7.580000	-1401.965614
7.590000	-1401.965614
7.600000	-1391.299911
7.610000	-1326.223581
7.620000	-1293.902096
7.630000	-1203.999056
7.640000	-1157.032996
7.650000	-1043.200863
7.660000	-988.815872
7.670000	-857.684604
7.680000	-806.405307
7.690000	-656.249178
7.700000	412.765228
7.710000	571.910649
7.720000	632.185809
7.730000	632.185809
7.740000	632.185809
7.750000	494.496403
7.760000	220.508184
7.770000	5.474861
7.780000	-217.289792
7.790000	-343.072220
7.800000	-459.612115
7.810000	-502.195794
7.820000	-524.321587
7.830000	-524.321587
7.840000	-524.321587
7.850000	-464.469327
7.860000	-441.981064
7.870000	-441.981064
7.880000	-441.981064
7.890000	-468.762608
7.900000	-505.523037
7.910000	-511.400678
7.920000	-511.400678
7.930000	-511.400678
7.940000	-485.064376
7.950000	-439.029674
7.960000	-389.965925
7.970000	-329.576228
7.980000	-259.881348
7.990000	-175.086256
8.000000	-88.834504
8.010000	7.481086
8.020000	105.181721
8.030000	217.125038
8.040000	323.125248
8.050000	436.880715
8.060000	545.013667
8.070000	657.720996
8.080000	768.877705
8.090000	875.591195
8.100000	979.776575
8.110000	1089.500497
8.120000	1199.662062
8.130000	1315.461446
8.140000	1423.520441
8.150000	1483.608982
8.160000	1483.608982
8.170000	1483.608982
8.180000	1292.024981
8.190000	1045.976412
8.200000	802.826054
8.210000	611.347879
8.220000	468.512970
8.230000	381.776759
8.240000	311.098539
8.250000	295.275996
8.260000	295.275996
8.270000	295.275996
8.280000	331.826029
8.290000	378.295692
8.300000	378.295692
8.310000	378.295692
8.320000	362.023140
8.330000	342.060471
8.340000	318.812148
8.350000	318.812148
8.360000	318.812148
8.370000	361.937695
8.380000	383.736766
8.390000	460.544429
8.400000	1465.181918
8.410000	1588.822876
8.420000	1685.979636
8.430000	1791.889063
8.440000	1901.705635
8.450000	2002.973136
8.460000	2131.603676
8.470000	2215.800969
8.480000	2215.800969
8.490000	2215.800969
8.500000	1096.043016
8.510000	1089.108773
8.520000	1089.108773
8.530000	1089.523425
8.540000	1089.523425
8.550000	1089.108773
8.560000	1072.694899
8.570000	1020.579426
8.580000	1000.204183
8.590000	1000.204183
8.600000	1000.204183
8.610000	1022.297550
8.620000	1051.495501
8.630000	1110.326919
8.640000	1150.980778
8.650000	1234.700826
8.660000	1289.144393
8.670000	1402.561283
8.680000	1454.781257
8.690000	1585.180506
8.700000	2654.445358
8.710000	2801.370143
8.720000	2801.370143
8.730000	2801.370143
8.740000	2719.868261
8.750000	2522.810531
8.760000	2238.775035
8.770000	2026.586671
8.780000	1825.124931
8.790000	1714.798820
8.800000	1612.071882
8.810000	1574.445728
8.820000	1574.445728
8.830000	1574.445728
8.840000	1586.234313
8.850000	1640.593403
8.860000	1640.593403
8.870000	1640.593403
8.880000	1628.807517
8.890000	1597.745074
8.900000	1548.921017
8.910000	1528.668812
8.920000	1528.668812
8.930000	1528.668812
8.940000	1535.771366
8.950000	1566.018112
8.960000	1600.638113
8.970000	1637.336913
8.980000	1673.550717
8.990000	1715.726926
9.000000	1763.490901
9.010000	1828.195311
9.020000	1889.389731
9.030000	1959.800638
9.040000	2044.312653
9.050000	2143.439388
9.060000	2248.254864
9.070000	2362.156977
9.080000	2471.194176
9.090000	2576.961765
9.100000	2675.161531
9.110000	2772.841665
9.120000	2861.128804
9.130000	2921.714558
9.140000	2921.714558
9.150000	2921.714558
9.160000	2719.095542
9.170000	2434.870459
9.180000	2135.247669
9.190000	1865.008575
9.200000	1650.389489
9.210000	1492.116805
9.220000	1381.545287
9.230000	1304.248401
9.240000	1251.756208
9.250000	1251.756208
9.260000	1251.756208
9.270000	1249.905735
9.280000	1249.905735
9.290000	1249.905735
9.300000	1205.576564
9.310000	1148.239165
9.320000	1093.944766
9.330000	1044.567718
9.340000	1013.377768
9.350000	1013.377768
9.360000	1013.377768
9.370000	1024.222716
9.380000	1057.366899
9.390000	1102.592660
9.400000	1153.894435
9.410000	1216.021537
9.420000	1284.425216
9.430000	1360.494886
9.440000	1439.968006
9.450000	1524.010040
9.460000	1616.544626
9.470000	1707.512390
9.480000	1797.174529
9.490000	1889.047946
9.500000	1976.800964
9.510000	1976.800964
9.520000	1976.800964
9.530000	1938.128916
9.540000	1696.073932
9.550000	1394.869347
9.560000	1096.810455
9.570000	842.568852
9.580000	644.486861
9.590000	572.742795
9.600000	572.742795
9.610000	572.742795
9.620000	661.969394
