Time(s)	RED_denoised_wiener
0.000000	-260.059412
0.010000	-393.789044
0.020000	-449.112014
0.030000	-465.453109
0.040000	-455.884662
0.050000	-446.443067
0.060000	-444.897112
0.070000	-450.031344
0.080000	-449.167422
0.090000	-452.638513
0.100000	-456.019231
0.110000	-460.215367
0.120000	-462.816645
0.130000	-471.775064
0.140000	-490.555783
0.150000	-503.569470
0.160000	-507.615653
0.170000	-499.316417
0.180000	-485.656667
0.190000	-474.351034
0.200000	-463.289343
0.210000	-449.668706
0.220000	-437.893079
0.230000	-432.270352
0.240000	-428.757753
0.250000	-418.809806
0.260000	-409.615448
0.270000	-402.616240
0.280000	-393.406139
0.290000	-379.376290
0.300000	-361.822523
0.310000	-346.429646
0.320000	-331.165243
0.330000	-319.445112
0.340000	-314.454087
0.350000	-314.727509
0.360000	-316.014586
0.370000	-306.601652
0.380000	-304.602187
0.390000	-323.407609
0.400000	-336.691750
0.410000	-352.919767
0.420000	-399.109174
0.430000	-500.035600
0.440000	-608.271042
0.450000	-667.068182
0.460000	-677.867991
0.470000	-655.077888
0.480000	-628.113917
0.490000	-598.952890
0.500000	-580.329621
0.510000	-568.054537
0.520000	-564.168459
0.530000	-559.063102
0.540000	-543.279510
0.550000	-533.080333
0.560000	-533.965232
0.570000	-542.677289
0.580000	-545.893289
0.590000	-536.895241
0.600000	-524.466309
0.610000	-511.365232
0.620000	-499.638820
0.630000	-478.734921
0.640000	-452.451232
0.650000	-437.072245
0.660000	-440.172577
0.670000	-450.623901
0.680000	-454.484736
0.690000	-449.138041
0.700000	-437.743648
0.710000	-428.262419
0.720000	-417.234407
0.730000	-409.338529
0.740000	-399.293346
0.750000	-391.369233
0.760000	-374.237287
0.770000	-348.359654
0.780000	-317.116056
0.790000	-285.948700
0.800000	-244.878240
0.810000	-188.141240
0.820000	-136.972631
0.830000	-104.234979
0.840000	-73.242866
0.850000	-40.955998
0.860000	-38.195377
0.870000	-82.228534
0.880000	-138.259770
0.890000	-155.377820
0.900000	-139.400454
0.910000	-106.141175
0.920000	-75.137449
0.930000	-46.102295
0.940000	-28.151949
0.950000	-27.640305
0.960000	-29.023579
0.970000	-27.792026
0.980000	-18.475441
0.990000	-19.926217
1.000000	-35.132192
1.010000	-52.936150
1.020000	-59.696175
1.030000	-46.873618
1.040000	-25.226138
1.050000	-1.378846
1.060000	15.993030
1.070000	30.571832
1.080000	43.962328
1.090000	54.603524
1.100000	63.696124
1.110000	70.387026
1.120000	72.183405
1.130000	74.617761
1.140000	75.074032
1.150000	83.308742
1.160000	85.660473
1.170000	74.109219
1.180000	59.727221
1.190000	52.000408
1.200000	55.208607
1.210000	56.941893
1.220000	56.485450
1.230000	65.681736
1.240000	93.184602
1.250000	118.439622
1.260000	128.670580
1.270000	137.368982
1.280000	165.610581
1.290000	181.921063
1.300000	153.314010
1.310000	101.056931
1.320000	70.184686
1.330000	75.879969
1.340000	94.384761
1.350000	120.524257
1.360000	143.005432
1.370000	160.968457
1.380000	168.383682
1.390000	172.220661
1.400000	180.203492
1.410000	187.210924
1.420000	183.450999
1.430000	164.991658
1.440000	147.193052
1.450000	134.183616
1.460000	128.038720
1.470000	117.448578
1.480000	113.723462
1.490000	113.450560
1.500000	118.534109
1.510000	124.212712
1.520000	134.146875
1.530000	138.717887
1.540000	131.882799
1.550000	117.029475
1.560000	110.435141
1.570000	113.749075
1.580000	114.731361
1.590000	111.279046
1.600000	104.151810
1.610000	101.278911
1.620000	95.982843
1.630000	94.431930
1.640000	91.233830
1.650000	98.418337
1.660000	119.246770
1.670000	151.843840
1.680000	176.664881
1.690000	176.396334
1.700000	182.003620
1.710000	190.978747
1.720000	179.071660
1.730000	116.000769
1.740000	17.389115
1.750000	-53.388897
1.760000	-83.641652
1.770000	-80.040272
1.780000	-76.288035
1.790000	-86.512092
1.800000	-98.736446
1.810000	-105.202058
1.820000	-101.399854
1.830000	-94.797163
1.840000	-92.266714
1.850000	-99.593872
1.860000	-110.972501
1.870000	-124.939444
1.880000	-131.858945
1.890000	-136.527263
1.900000	-136.928791
1.910000	-128.977675
1.920000	-117.891971
1.930000	-101.608703
1.940000	-90.422538
1.950000	-79.731762
1.960000	-71.169340
1.970000	-58.364780
1.980000	-49.821765
1.990000	-58.541083
2.000000	-81.627628
2.010000	-98.532157
2.020000	-96.651402
2.030000	-89.457097
2.040000	-87.863229
2.050000	-91.545741
2.060000	-91.578827
2.070000	-92.531673
2.080000	-94.140866
2.090000	-97.380209
2.100000	-100.888523
2.110000	-101.080825
2.120000	-100.844969
2.130000	-112.999215
2.140000	-117.902249
2.150000	-103.461146
2.160000	-108.622007
2.170000	-163.754636
2.180000	-247.387314
2.190000	-288.098355
2.200000	-281.857953
2.210000	-265.407105
2.220000	-249.108676
2.230000	-227.190217
2.240000	-195.548805
2.250000	-165.533399
2.260000	-153.519847
2.270000	-148.651698
2.280000	-139.004005
2.290000	-127.994325
2.300000	-131.036103
2.310000	-151.819213
2.320000	-168.846285
2.330000	-169.849515
2.340000	-161.554832
2.350000	-155.739353
2.360000	-152.409511
2.370000	-153.813273
2.380000	-148.737939
2.390000	-144.782375
2.400000	-137.543045
2.410000	-122.928102
2.420000	-103.876022
2.430000	-88.596326
2.440000	-82.709364
2.450000	-74.390236
2.460000	-55.058005
2.470000	-29.727332
2.480000	-11.601103
2.490000	1.138739
2.500000	9.683200
2.510000	19.847179
2.520000	30.445157
2.530000	50.079930
2.540000	68.987975
2.550000	82.491834
2.560000	99.734481
2.570000	108.010001
2.580000	120.051004
2.590000	142.010791
2.600000	166.832481
2.610000	158.433637
2.620000	107.188943
2.630000	55.836495
2.640000	32.341560
2.650000	28.310092
2.660000	38.005952
2.670000	62.641117
2.680000	91.142150
2.690000	119.497625
2.700000	135.763183
2.710000	147.581757
2.720000	156.207697
2.730000	157.492613
2.740000	158.190920
2.750000	150.539558
2.760000	148.075808
2.770000	149.054890
2.780000	152.139370
2.790000	161.095657
2.800000	171.358662
2.810000	184.331958
2.820000	199.084542
2.830000	213.411618
2.840000	223.988059
2.850000	229.010028
2.860000	237.436229
2.870000	252.107245
2.880000	271.388237
2.890000	284.696535
2.900000	292.554576
2.910000	307.168926
2.920000	321.853882
2.930000	337.179946
2.940000	345.315985
2.950000	364.114554
2.960000	390.908614
2.970000	416.552087
2.980000	439.376333
2.990000	462.524553
3.000000	476.999585
3.010000	495.412402
3.020000	527.471390
3.030000	553.743892
3.040000	537.085376
3.050000	478.705364
3.060000	427.355055
3.070000	410.801458
3.080000	427.403355
3.090000	467.067532
3.100000	516.636899
3.110000	557.847032
3.120000	591.784839
3.130000	616.479837
3.140000	641.493273
3.150000	662.938309
3.160000	680.073394
3.170000	688.918040
3.180000	691.199784
3.190000	690.767957
3.200000	690.855935
3.210000	700.499019
3.220000	714.672432
3.230000	739.794222
3.240000	761.966251
3.250000	782.999433
3.260000	801.451734
3.270000	812.730318
3.280000	827.179630
3.290000	838.283334
3.300000	857.492363
3.310000	877.988705
3.320000	899.358925
3.330000	915.548522
3.340000	929.119452
3.350000	942.311440
3.360000	958.420550
3.370000	974.929740
3.380000	989.928333
3.390000	1005.430838
3.400000	1020.299801
3.410000	1044.167512
3.420000	1072.839604
3.430000	1094.422992
3.440000	1111.626429
3.450000	1144.600254
3.460000	1161.477884
3.470000	1136.000697
3.480000	1071.284738
3.490000	1028.101146
3.500000	1029.864230
3.510000	1051.610884
3.520000	1082.357861
3.530000	1117.012782
3.540000	1154.070891
3.550000	1188.949331
3.560000	1214.988208
3.570000	1237.796446
3.580000	1262.447794
3.590000	1280.817915
3.600000	1296.149393
3.610000	1305.032085
3.620000	1319.103468
3.630000	1335.083261
3.640000	1355.952877
3.650000	1383.676593
3.660000	1419.344977
3.670000	1461.474746
3.680000	1504.604831
3.690000	1539.474591
3.700000	1566.436654
3.710000	1588.026091
3.720000	1607.482828
3.730000	1624.112611
3.740000	1638.745747
3.750000	1658.763069
3.760000	1677.516128
3.770000	1692.972237
3.780000	1698.820816
3.790000	1701.094711
3.800000	1708.345165
3.810000	1718.400474
3.820000	1727.076710
3.830000	1731.589442
3.840000	1754.423651
3.850000	1792.587713
3.860000	1821.590760
3.870000	1843.203928
3.880000	1870.334186
3.890000	1884.278965
3.900000	1859.270409
3.910000	1810.010576
3.920000	1793.200612
3.930000	1813.811928
3.940000	1845.590055
3.950000	1884.218375
3.960000	1927.864322
3.970000	1967.148580
3.980000	1988.003334
3.990000	1985.982625
4.000000	1989.108716
4.010000	2007.979106
4.020000	2040.723235
4.030000	2074.488548
4.040000	2099.890132
4.050000	2131.606654
4.060000	2162.539492
4.070000	2192.285115
4.080000	2211.706509
4.090000	2238.244549
4.100000	2279.052898
4.110000	2324.030522
4.120000	2353.245838
4.130000	2345.686689
4.140000	2317.079106
4.150000	2311.292488
4.160000	2345.043028
4.170000	2406.357608
4.180000	2460.816286
4.190000	2526.103010
4.200000	2612.439061
4.210000	2691.278106
4.220000	2728.916653
4.230000	2721.403358
4.240000	2717.072400
4.250000	2745.678220
4.260000	2804.338557
4.270000	2829.318721
4.280000	2806.606762
4.290000	2799.035118
4.300000	2836.314841
4.310000	2854.357387
4.320000	2797.909992
4.330000	2724.852474
4.340000	2724.452711
4.350000	2787.938898
4.360000	2856.049937
4.370000	2900.302251
4.380000	2924.260114
4.390000	2949.906971
4.400000	2972.252814
4.410000	2987.370364
4.420000	3000.458796
4.430000	3010.336890
4.440000	3013.511509
4.450000	3004.483393
4.460000	2992.790060
4.470000	2985.807531
4.480000	2985.569861
4.490000	2995.985069
4.500000	3019.526285
4.510000	3048.982197
4.520000	3078.665358
4.530000	3099.480685
4.540000	3105.990765
4.550000	3116.887284
4.560000	3145.141163
4.570000	3186.084986
4.580000	3208.724292
4.590000	3235.265990
4.600000	3274.105453
4.610000	3313.559913
4.620000	3325.608552
4.630000	3322.797460
4.640000	3330.644854
4.650000	3355.144306
4.660000	3396.827745
4.670000	3420.219153
4.680000	3434.625824
4.690000	3457.808004
4.700000	3482.511232
4.710000	3466.455246
4.720000	3401.309681
4.730000	3348.445570
4.740000	3343.186724
4.750000	3355.070482
4.760000	3378.278514
4.770000	3404.500705
4.780000	3443.898269
4.790000	3476.657554
4.800000	3490.345615
4.810000	3486.993126
4.820000	3480.629907
4.830000	3479.782540
4.840000	3474.998722
4.850000	3474.753357
4.860000	3478.807338
4.870000	3500.222654
4.880000	3506.617949
4.890000	3514.952450
4.900000	3521.829113
4.910000	3542.521451
4.920000	3569.095903
4.930000	3591.869764
4.940000	3614.180633
4.950000	3632.312255
4.960000	3647.055978
4.970000	3647.833081
4.980000	3654.789915
4.990000	3673.753397
5.000000	3701.936941
5.010000	3720.063070
5.020000	3726.230892
5.030000	3734.179422
5.040000	3723.860267
5.050000	3702.463289
5.060000	3716.354400
5.070000	3761.029026
5.080000	3785.807710
5.090000	3743.020080
5.100000	3670.243239
5.110000	3590.717509
5.120000	3526.084444
5.130000	3493.142663
5.140000	3495.294152
5.150000	3491.181094
5.160000	3458.957890
5.170000	3412.716206
5.180000	3364.344404
5.190000	3317.622034
5.200000	3279.797572
5.210000	3242.205400
5.220000	3194.966086
5.230000	3151.569040
5.240000	3125.849028
5.250000	3111.922708
5.260000	3119.482956
5.270000	3132.578144
5.280000	3146.183075
5.290000	3148.916263
5.300000	3142.616921
5.310000	3139.310360
5.320000	3127.010051
5.330000	3106.762704
5.340000	3081.427806
5.350000	3058.578148
5.360000	3037.503456
5.370000	3016.401708
5.380000	2996.261669
5.390000	2987.590075
5.400000	2988.321097
5.410000	2984.745938
5.420000	2958.363879
5.430000	2910.951032
5.440000	2818.325914
5.450000	2684.220327
5.460000	2505.330788
5.470000	2301.100108
5.480000	2081.005668
5.490000	1878.202208
5.500000	1730.353961
5.510000	1600.671127
5.520000	1439.481304
5.530000	1191.919190
5.540000	973.321895
5.550000	788.547822
5.560000	639.510410
5.570000	541.738090
5.580000	503.788279
5.590000	507.465460
5.600000	524.312035
5.610000	556.547983
5.620000	602.760193
5.630000	648.191716
5.640000	696.520321
5.650000	744.407659
5.660000	791.209465
5.670000	824.843937
5.680000	848.522490
5.690000	852.489935
5.700000	835.768407
5.710000	813.084630
5.720000	788.219933
5.730000	744.188059
5.740000	677.270437
5.750000	584.185318
5.760000	449.874617
5.770000	246.658587
5.780000	34.290555
5.790000	-120.079771
5.800000	-227.919259
5.810000	-279.035894
5.820000	-276.423886
5.830000	-283.290797
5.840000	-373.662478
5.850000	-576.729976
5.860000	-793.432884
5.870000	-943.463187
5.880000	-1012.985347
5.890000	-1052.130166
5.900000	-1116.414894
5.910000	-1220.845227
5.920000	-1330.202400
5.930000	-1405.382067
5.940000	-1434.901427
5.950000	-1433.496440
5.960000	-1450.537625
5.970000	-1523.757406
5.980000	-1624.506564
5.990000	-1710.164893
6.000000	-1776.769723
6.010000	-1855.192574
6.020000	-1960.851425
6.030000	-2067.971224
6.040000	-2151.803162
6.050000	-2268.843331
6.060000	-2454.832535
6.070000	-2820.249197
6.080000	-3205.363054
6.090000	-3587.658602
6.100000	-3973.504641
6.110000	-4311.128844
6.120000	-4587.366885
6.130000	-4910.190803
6.140000	-5261.998870
6.150000	-5500.405296
6.160000	-5626.769599
6.170000	-5689.484420
6.180000	-5726.458547
6.190000	-5742.978458
6.200000	-5747.737884
6.210000	-5768.441773
6.220000	-5819.901530
6.230000	-5902.788599
6.240000	-5971.529765
6.250000	-6020.171736
6.260000	-6050.442439
6.270000	-6083.206587
6.280000	-6104.862043
6.290000	-6103.182551
6.300000	-6090.956720
6.310000	-6108.843759
6.320000	-6143.179846
6.330000	-6175.103930
6.340000	-6209.750997
6.350000	-6259.668755
6.360000	-6348.305186
6.370000	-6447.045785
6.380000	-6554.558231
6.390000	-6687.765563
6.400000	-6867.957186
6.410000	-7136.344063
6.420000	-7349.472322
6.430000	-7505.091007
6.440000	-7609.956476
6.450000	-7681.572754
6.460000	-7709.473653
6.470000	-7679.016935
6.480000	-7581.984000
6.490000	-7489.322319
6.500000	-7430.358660
6.510000	-7399.846185
6.520000	-7333.887103
6.530000	-7229.854596
6.540000	-7106.124164
6.550000	-6963.132631
6.560000	-6813.381171
6.570000	-6672.072769
6.580000	-6570.337769
6.590000	-6507.582740
6.600000	-6482.617436
6.610000	-6501.772446
6.620000	-6531.113254
6.630000	-6532.946190
6.640000	-6489.659505
6.650000	-6432.918096
6.660000	-6391.528225
6.670000	-6359.458763
6.680000	-6313.682128
6.690000	-6239.354486
6.700000	-6173.645475
6.710000	-6124.169587
6.720000	-6075.881066
6.730000	-5991.257994
6.740000	-5891.279558
6.750000	-5809.049072
6.760000	-5750.272617
6.770000	-5696.109620
6.780000	-5616.572318
6.790000	-5503.233646
6.800000	-5372.611760
6.810000	-5245.039641
6.820000	-5138.650214
6.830000	-5033.746986
6.840000	-4932.086337
6.850000	-4822.758421
6.860000	-4705.891759
6.870000	-4593.809066
6.880000	-4482.324262
6.890000	-4382.908482
6.900000	-4291.386204
6.910000	-4214.376581
6.920000	-4143.078088
6.930000	-4062.834127
6.940000	-3993.871182
6.950000	-3966.658387
6.960000	-3963.202909
6.970000	-3936.741829
6.980000	-3875.301494
6.990000	-3819.306908
7.000000	-3773.639900
7.010000	-3704.101792
7.020000	-3571.635113
7.030000	-3397.547016
7.040000	-3207.955917
7.050000	-3032.363535
7.060000	-2869.595340
7.070000	-2729.686149
7.080000	-2624.883223
7.090000	-2550.629874
7.100000	-2487.463610
7.110000	-2430.947807
7.120000	-2389.745727
7.130000	-2366.247056
7.140000	-2340.965756
7.150000	-2301.563365
7.160000	-2253.899280
7.170000	-2198.528022
7.180000	-2128.474431
7.190000	-2034.147176
7.200000	-1942.477606
7.210000	-1873.407527
7.220000	-1827.754652
7.230000	-1792.288348
7.240000	-1768.731134
7.250000	-1742.448576
7.260000	-1698.029106
7.270000	-1636.643919
7.280000	-1569.343046
7.290000	-1513.511421
7.300000	-1489.652893
7.310000	-1479.592599
7.320000	-1464.613723
7.330000	-1443.707438
7.340000	-1415.557942
7.350000	-1385.156364
7.360000	-1342.109197
7.370000	-1327.060608
7.380000	-1342.870987
7.390000	-1372.891413
7.400000	-1389.247915
7.410000	-1369.047681
7.420000	-1326.704899
7.430000	-1279.856187
7.440000	-1254.159757
7.450000	-1229.513967
7.460000	-1211.325406
7.470000	-1193.446509
7.480000	-1177.818859
7.490000	-1164.010535
7.500000	-1162.980679
7.510000	-1168.162574
7.520000	-1161.078327
7.530000	-1131.638583
7.540000	-1087.190509
7.550000	-1039.425540
7.560000	-1001.605052
7.570000	-977.149210
7.580000	-963.298718
7.590000	-954.159377
7.600000	-943.284983
7.610000	-933.153839
7.620000	-907.846160
7.630000	-878.179503
7.640000	-851.354151
7.650000	-840.510543
7.660000	-827.397289
7.670000	-810.842159
7.680000	-790.395039
7.690000	-775.820081
7.700000	-753.612748
7.710000	-724.118859
7.720000	-707.165723
7.730000	-683.591244
7.740000	-658.398027
7.750000	-646.369047
7.760000	-683.298854
7.770000	-742.250953
7.780000	-771.740905
7.790000	-755.503817
7.800000	-722.914775
7.810000	-693.668793
7.820000	-673.654989
7.830000	-649.717953
7.840000	-624.039373
7.850000	-609.397145
7.860000	-593.287462
7.870000	-560.668050
7.880000	-522.872218
7.890000	-498.889745
7.900000	-487.998126
7.910000	-473.662163
7.920000	-448.742853
7.930000	-428.086836
7.940000	-401.676679
7.950000	-374.475560
7.960000	-347.521476
7.970000	-323.790203
7.980000	-302.609026
7.990000	-289.038876
8.000000	-276.247697
8.010000	-271.910014
8.020000	-263.412103
8.030000	-256.411626
8.040000	-242.115940
8.050000	-241.238898
8.060000	-262.697490
8.070000	-299.264099
8.080000	-339.174342
8.090000	-365.515080
8.100000	-384.286201
8.110000	-377.604691
8.120000	-362.396711
8.130000	-339.552116
8.140000	-323.444927
8.150000	-293.636741
8.160000	-270.837784
8.170000	-271.941312
8.180000	-297.414760
8.190000	-308.365814
8.200000	-290.285542
8.210000	-264.113312
8.220000	-242.023349
8.230000	-225.387701
8.240000	-201.277230
8.250000	-177.606820
8.260000	-161.080724
8.270000	-155.035080
8.280000	-148.060900
8.290000	-131.687379
8.300000	-113.633630
8.310000	-115.257345
8.320000	-135.690975
8.330000	-155.654514
8.340000	-163.646242
8.350000	-162.299178
8.360000	-164.503803
8.370000	-166.771758
8.380000	-165.900497
8.390000	-180.508063
8.400000	-201.089184
8.410000	-219.449312
8.420000	-217.450681
8.430000	-208.008078
8.440000	-204.009772
8.450000	-211.410905
8.460000	-218.381889
8.470000	-217.352740
8.480000	-200.947281
8.490000	-176.860811
8.500000	-152.702710
8.510000	-124.526179
8.520000	-100.679707
8.530000	-75.673432
8.540000	-47.518307
8.550000	-16.343916
8.560000	12.445769
8.570000	28.791214
8.580000	57.324771
8.590000	96.675810
8.600000	116.947549
8.610000	108.773492
8.620000	94.481984
8.630000	106.725373
8.640000	127.370683
8.650000	143.519954
8.660000	150.444711
8.670000	155.846135
8.680000	162.336793
8.690000	163.982105
8.700000	162.417498
8.710000	166.306443
8.720000	168.291163
8.730000	162.807233
8.740000	135.312926
8.750000	115.938035
8.760000	109.105965
8.770000	110.220503
8.780000	112.403735
8.790000	108.681597
8.800000	110.264900
8.810000	103.923569
8.820000	94.357875
8.830000	79.998773
8.840000	74.678156
8.850000	79.224491
8.860000	86.497333
8.870000	89.305406
8.880000	90.868327
8.890000	94.912153
8.900000	106.769394
8.910000	120.013482
8.920000	136.554788
8.930000	155.302549
8.940000	174.535648
8.950000	191.787980
8.960000	201.039706
8.970000	209.176363
8.980000	227.758655
8.990000	247.042827
9.000000	249.326885
9.010000	251.877681
9.020000	270.431129
9.030000	292.175551
9.040000	285.359313
9.050000	266.483113
9.060000	271.552766
9.070000	291.880814
9.080000	299.574226
9.090000	301.589518
9.100000	302.137958
9.110000	313.203908
9.120000	317.172585
9.130000	309.741573
9.140000	308.822790
9.150000	316.792316
9.160000	333.355924
9.170000	340.686346
9.180000	346.518553
9.190000	357.136853
9.200000	370.553431
9.210000	384.148430
9.220000	400.834145
9.230000	423.725708
9.240000	448.326928
9.250000	474.214974
9.260000	490.024950
9.270000	500.986267
9.280000	510.288307
9.290000	521.664476
9.300000	538.122906
9.310000	552.555945
9.320000	568.562429
9.330000	581.000063
9.340000	595.943886
9.350000	608.660080
9.360000	627.274042
9.370000	642.854420
9.380000	652.870735
9.390000	653.628969
9.400000	663.111480
9.410000	686.620983
9.420000	693.841121
9.430000	690.633522
9.440000	697.867570
9.450000	718.854514
9.460000	724.395825
9.470000	710.069068
9.480000	711.961934
9.490000	733.789037
9.500000	754.054198
9.510000	761.132579
9.520000	768.145283
9.530000	781.055036
9.540000	793.468724
9.550000	796.571513
9.560000	789.749735
9.570000	793.080899
9.580000	798.557385
9.590000	799.866410
9.600000	789.300360
9.610000	782.322399
9.620000	783.621592
9.630000	785.687068
9.640000	788.239208
9.650000	789.324658
9.660000	793.486508
9.670000	798.890896
9.680000	804.683643
9.690000	810.740590
9.700000	815.492566
9.710000	820.214821
9.720000	822.575934
9.730000	823.984631
9.740000	828.954086
9.750000	833.351230
9.760000	838.635744
9.770000	846.340444
9.780000	853.261068
9.790000	862.304043
9.800000	873.837943
9.810000	881.542040
9.820000	885.058207
9.830000	883.071992
9.840000	894.295624
9.850000	904.140186
9.860000	895.824278
9.870000	897.296042
9.880000	910.580752
9.890000	928.058629
9.900000	926.261115
9.910000	920.897098
9.920000	938.607302
9.930000	956.903945
9.940000	974.983868
9.950000	990.544999
9.960000	1007.349578
9.970000	1018.463318
9.980000	1016.020190
9.990000	1003.721682
10.000000	992.686921
10.010000	998.301641
10.020000	1004.243900
10.030000	999.206830
10.040000	984.481049
10.050000	976.466528
10.060000	981.002971
10.070000	990.002513
10.080000	995.841462
10.090000	995.199694
10.100000	989.008416
10.110000	985.066595
10.120000	984.140977
10.130000	983.242158
10.140000	984.273339
10.150000	986.397271
10.160000	990.063685
10.170000	993.200607
10.180000	995.849011
10.190000	999.330657
10.200000	1002.284179
10.210000	1006.126224
10.220000	1003.687654
10.230000	995.936693
10.240000	990.435783
10.250000	991.398490
10.260000	997.830779
10.270000	1003.507727
10.280000	1012.917638
10.290000	1008.552948
10.300000	994.393866
10.310000	995.654119
10.320000	1009.792098
10.330000	1016.037393
10.340000	1006.558632
10.350000	1009.853801
10.360000	1035.273176
10.370000	1057.576379
10.380000	1076.056849
10.390000	1093.644586
10.400000	1103.817424
10.410000	1103.726293
10.420000	1083.897090
10.430000	1066.900503
10.440000	1062.613578
10.450000	1067.376407
10.460000	1059.954518
10.470000	1036.907750
10.480000	1023.381036
10.490000	1022.051611
10.500000	1034.813454
10.510000	1047.158958
10.520000	1064.977570
10.530000	1074.555276
10.540000	1077.861371
10.550000	1076.628007
10.560000	1073.424987
10.570000	1073.051487
10.580000	1071.643204
10.590000	1073.175322
10.600000	1072.515654
10.610000	1070.328075
10.620000	1064.059341
10.630000	1059.517602
10.640000	1057.603756
10.650000	1055.377843
10.660000	1053.840640
10.670000	1051.580145
10.680000	1049.767009
10.690000	1043.448383
10.700000	1039.742980
10.710000	1049.677484
10.720000	1055.657479
10.730000	1047.611390
10.740000	1044.335740
10.750000	1057.209721
10.760000	1063.271462
10.770000	1050.857845
10.780000	1044.993682
10.790000	1068.185080
10.800000	1102.290580
10.810000	1129.199002
10.820000	1161.358293
10.830000	1197.194900
10.840000	1227.425582
10.850000	1236.862254
10.860000	1230.235503
10.870000	1223.916412
10.880000	1217.019761
10.890000	1208.659193
10.900000	1193.814844
10.910000	1180.460051
10.920000	1171.284676
10.930000	1167.279030
10.940000	1172.118194
10.950000	1182.769412
10.960000	1195.305924
10.970000	1210.964144
10.980000	1221.157001
10.990000	1221.193389
11.000000	1215.724361
11.010000	1214.460626
11.020000	1224.308242
11.030000	1243.729016
11.040000	1270.247342
11.050000	1293.333184
11.060000	1297.865164
11.070000	1288.349350
11.080000	1271.513929
11.090000	1253.722763
11.100000	1235.170731
11.110000	1215.787152
11.120000	1202.204367
11.130000	1201.210438
11.140000	1197.870176
11.150000	1178.662806
11.160000	1162.650696
11.170000	1165.464315
11.180000	1163.682529
11.190000	1140.977209
11.200000	1125.194252
11.210000	1144.516240
11.220000	1170.575847
11.230000	1179.425906
11.240000	1183.749840
11.250000	1190.344481
11.260000	1193.915650
11.270000	1183.271827
11.280000	1166.158374
11.290000	1151.894991
11.300000	1143.074032
11.310000	1130.510464
11.320000	1103.677233
11.330000	1071.871512
11.340000	1048.315563
11.350000	1036.229319
11.360000	1025.608346
11.370000	1017.976100
11.380000	1010.245642
11.390000	1003.424493
11.400000	994.228033
11.410000	980.900479
11.420000	965.577678
11.430000	945.385770
11.440000	928.981884
11.450000	913.863120
11.460000	903.090563
11.470000	889.334263
11.480000	876.920058
11.490000	867.152372
11.500000	863.109481
11.510000	864.649814
11.520000	860.957543
11.530000	853.201236
11.540000	836.810677
11.550000	827.161373
11.560000	826.648517
11.570000	812.739822
11.580000	802.949542
11.590000	803.306329
11.600000	805.564034
11.610000	780.835218
11.620000	743.315662
11.630000	732.451988
11.640000	741.625680
11.650000	745.368277
11.660000	742.687259
11.670000	737.983419
11.680000	732.757946
11.690000	716.582565
11.700000	687.535122
11.710000	657.569300
11.720000	642.004036
11.730000	634.512088
11.740000	620.799580
11.750000	592.151713
11.760000	558.327042
11.770000	528.804745
11.780000	505.180016
11.790000	494.151950
11.800000	483.995525
11.810000	470.532669
11.820000	445.813105
11.830000	418.303886
11.840000	386.949575
11.850000	363.120579
11.860000	344.392472
11.870000	333.963328
11.880000	321.809296
11.890000	307.508986
11.900000	297.253775
11.910000	288.372751
11.920000	281.048160
11.930000	269.561999
11.940000	260.216866
11.950000	257.086045
11.960000	265.061689
11.970000	298.643292
11.980000	328.124854
11.990000	337.577743
12.000000	346.958886
12.010000	361.142680
12.020000	362.068104
12.030000	326.698395
12.040000	288.001855
12.050000	275.581843
12.060000	273.814621
12.070000	272.482967
12.080000	273.329318
12.090000	274.041627
12.100000	280.869123
12.110000	284.893140
12.120000	284.095309
12.130000	285.436324
12.140000	286.295101
12.150000	283.644562
12.160000	269.814553
12.170000	252.226236
12.180000	242.009083
12.190000	236.434312
12.200000	234.873415
12.210000	234.633654
12.220000	229.725195
12.230000	222.518694
12.240000	216.575878
12.250000	215.398763
12.260000	219.078614
12.270000	224.932194
12.280000	234.921315
12.290000	238.424494
12.300000	240.466643
12.310000	233.541582
12.320000	223.707985
12.330000	214.309523
12.340000	203.927441
12.350000	195.079017
12.360000	188.465530
12.370000	192.860515
12.380000	192.258273
12.390000	194.696973
12.400000	194.668941
12.410000	182.510019
12.420000	145.391796
12.430000	92.370255
12.440000	59.174531
12.450000	51.467401
12.460000	56.224967
12.470000	63.558385
12.480000	63.593540
12.490000	64.015228
12.500000	65.259368
12.510000	59.098308
12.520000	53.619574
12.530000	49.810988
12.540000	48.628324
12.550000	38.804929
12.560000	18.978641
12.570000	1.483717
12.580000	-9.713933
12.590000	-16.206469
12.600000	-12.741885
12.610000	-4.947848
12.620000	6.221218
12.630000	11.599305
12.640000	15.532048
12.650000	17.108835
12.660000	15.820328
12.670000	14.603710
12.680000	13.743397
12.690000	16.414799
12.700000	11.936213
12.710000	5.911288
12.720000	-2.247776
12.730000	0.418048
12.740000	7.153350
12.750000	23.597647
12.760000	34.468672
12.770000	32.102693
12.780000	35.494600
12.790000	48.870759
12.800000	56.101065
12.810000	24.897089
12.820000	-21.838711
12.830000	-52.751663
12.840000	-59.206321
12.850000	-57.835721
12.860000	-49.898077
12.870000	-41.299388
12.880000	-37.622927
12.890000	-41.455944
12.900000	-52.374425
12.910000	-53.268725
12.920000	-49.222735
12.930000	-47.791283
12.940000	-60.451944
12.950000	-81.303367
12.960000	-97.700357
12.970000	-106.880790
12.980000	-104.984413
12.990000	-98.525832
13.000000	-88.292328
13.010000	-80.893587
13.020000	-77.960420
13.030000	-83.308323
13.040000	-87.968175
13.050000	-89.449426
13.060000	-89.697147
13.070000	-93.307306
13.080000	-95.777753
13.090000	-90.870835
13.100000	-83.600137
13.110000	-76.472146
13.120000	-72.468954
13.130000	-67.767015
13.140000	-62.060139
13.150000	-50.094794
13.160000	-46.419333
13.170000	-55.107882
13.180000	-59.101683
13.190000	-48.856598
13.200000	-51.934725
13.210000	-91.977109
13.220000	-149.031052
13.230000	-177.410414
13.240000	-181.314988
13.250000	-172.248157
13.260000	-162.987253
13.270000	-155.775582
13.280000	-156.054030
13.290000	-166.347844
13.300000	-176.806775
13.310000	-177.974927
13.320000	-163.288314
13.330000	-161.085834
13.340000	-176.427653
13.350000	-199.879110
13.360000	-211.594351
13.370000	-209.109855
13.380000	-204.190293
13.390000	-194.693005
13.400000	-188.203995
13.410000	-189.994604
13.420000	-198.256827
13.430000	-208.347423
13.440000	-217.373905
13.450000	-221.423976
13.460000	-224.238967
13.470000	-225.884489
13.480000	-228.838471
13.490000	-231.060834
13.500000	-227.157427
13.510000	-224.668457
13.520000	-224.855310
13.530000	-233.685597
13.540000	-248.259179
13.550000	-259.750554
13.560000	-265.410911
13.570000	-277.254310
13.580000	-291.250573
13.590000	-301.485299
13.600000	-314.189742
13.610000	-358.512452
13.620000	-430.103865
13.630000	-489.176299
13.640000	-509.456199
13.650000	-501.676612
13.660000	-485.234214
13.670000	-475.234082
13.680000	-462.682037
13.690000	-450.226579
13.700000	-451.563635
13.710000	-455.888929
13.720000	-444.160128
13.730000	-422.357902
13.740000	-414.878801
13.750000	-431.859676
13.760000	-450.913811
13.770000	-458.124076
13.780000	-459.075440
13.790000	-456.453925
13.800000	-453.980345
13.810000	-450.845451
13.820000	-448.632957
13.830000	-442.293573
13.840000	-437.389872
13.850000	-423.439790
13.860000	-410.612675
13.870000	-396.962233
13.880000	-385.258266
13.890000	-378.228057
13.900000	-372.631292
13.910000	-369.249076
13.920000	-359.389437
13.930000	-349.055248
13.940000	-339.880694
13.950000	-340.960670
13.960000	-337.719343
13.970000	-334.998808
13.980000	-350.339228
13.990000	-374.042133
14.000000	-394.367142
14.010000	-423.231041
14.020000	-492.196589
14.030000	-597.738115
14.040000	-686.303467
14.050000	-741.428846
14.060000	-757.522286
14.070000	-748.589100
14.080000	-726.484510
14.090000	-707.845405
14.100000	-706.856520
14.110000	-718.465662
14.120000	-706.560270
14.130000	-657.899377
14.140000	-599.458702
14.150000	-621.257384
14.160000	-745.112463
14.170000	-879.346669
14.180000	-925.868517
14.190000	-866.699455
14.200000	-749.749121
14.210000	-581.785495
14.220000	-316.683341
14.230000	-153.331478
14.240000	-13.679805
14.250000	126.364114
14.260000	247.934247
14.270000	309.948277
14.280000	312.908323
14.290000	270.462864
14.300000	164.708001
14.310000	-7.938686
14.320000	-186.732000
14.330000	-319.727994
14.340000	-395.700620
14.350000	-433.222129
14.360000	-454.434714
14.370000	-470.441820
14.380000	-469.863133
14.390000	-446.431836
14.400000	-403.741780
14.410000	-331.473646
14.420000	-228.736524
14.430000	-132.376160
14.440000	-90.185247
14.450000	-121.959211
14.460000	-175.861514
14.470000	-225.035341
14.480000	-249.314144
14.490000	-236.224106
14.500000	-191.241096
14.510000	-139.224644
14.520000	-96.235929
14.530000	-71.298076
14.540000	-43.908736
14.550000	-15.858650
14.560000	2.301642
14.570000	3.831644
14.580000	-23.930684
14.590000	-56.803482
14.600000	-86.968075
14.610000	-110.877307
14.620000	-144.486172
14.630000	-190.675871
14.640000	-245.412765
14.650000	-292.201202
14.660000	-326.132348
14.670000	-349.841924
14.680000	-368.620727
14.690000	-390.919663
14.700000	-406.151986
14.710000	-423.480308
14.720000	-440.747645
14.730000	-457.474540
14.740000	-468.426042
14.750000	-477.590055
14.760000	-491.875228
14.770000	-497.411411
14.780000	-494.793866
14.790000	-503.380830
14.800000	-520.749345
14.810000	-533.416671
14.820000	-548.190817
14.830000	-595.280506
14.840000	-676.986149
14.850000	-753.793459
14.860000	-805.598876
14.870000	-832.793565
14.880000	-848.678029
14.890000	-855.862046
14.900000	-863.205517
14.910000	-872.676191
14.920000	-895.857430
14.930000	-924.534055
14.940000	-935.232272
14.950000	-943.597605
14.960000	-961.361338
14.970000	-996.081392
14.980000	-1025.506951
14.990000	-1040.700210
15.000000	-1053.808984
15.010000	-1057.029437
15.020000	-1061.595207
15.030000	-1073.442705
15.040000	-1090.792175
15.050000	-1109.280825
15.060000	-1123.083742
15.070000	-1131.230888
15.080000	-1129.799128
15.090000	-1128.316473
15.100000	-1134.274137
15.110000	-1144.805461
15.120000	-1157.849838
15.130000	-1166.379235
15.140000	-1170.209378
15.150000	-1167.714030
15.160000	-1171.038320
15.170000	-1175.099675
15.180000	-1180.648032
15.190000	-1194.600251
15.200000	-1204.970389
15.210000	-1202.205299
15.220000	-1201.458279
15.230000	-1243.311077
15.240000	-1318.239310
15.250000	-1378.408926
15.260000	-1402.189460
15.270000	-1408.715737
15.280000	-1407.543470
15.290000	-1408.118914
15.300000	-1404.618696
15.310000	-1410.337571
15.320000	-1423.749324
15.330000	-1435.630992
15.340000	-1436.976237
15.350000	-1438.072875
15.360000	-1449.298636
15.370000	-1472.586563
15.380000	-1489.994531
15.390000	-1495.560983
15.400000	-1509.857527
15.410000	-1535.914509
15.420000	-1572.803315
15.430000	-1598.302923
15.440000	-1614.241554
15.450000	-1622.785015
15.460000	-1631.787845
15.470000	-1637.326852
15.480000	-1640.105257
15.490000	-1632.604166
15.500000	-1628.237860
15.510000	-1640.973654
15.520000	-1656.716992
15.530000	-1661.767432
15.540000	-1665.682806
15.550000	-1700.712587
15.560000	-1761.634328
15.570000	-1813.998992
15.580000	-1838.047271
15.590000	-1842.785021
15.600000	-1840.890449
15.610000	-1847.664587
15.620000	-1854.754501
15.630000	-1869.338815
15.640000	-1888.341878
15.650000	-1899.739428
15.660000	-1898.030929
15.670000	-1888.586436
15.680000	-1882.484971
15.690000	-1872.130890
15.700000	-1848.683745
15.710000	-1820.135797
15.720000	-1791.621614
15.730000	-1748.165125
15.740000	-1691.684911
15.750000	-1632.963848
15.760000	-1593.522093
15.770000	-1565.091151
15.780000	-1533.419231
15.790000	-1500.672586
15.800000	-1478.751447
15.810000	-1474.313928
15.820000	-1466.749025
15.830000	-1447.060040
15.840000	-1418.184855
15.850000	-1386.888060
15.860000	-1354.008388
15.870000	-1318.447314
15.880000	-1291.936282
15.890000	-1271.701741
15.900000	-1254.597380
15.910000	-1217.969358
15.920000	-1170.410267
15.930000	-1136.679873
15.940000	-1118.891968
15.950000	-1090.040599
15.960000	-1036.138786
15.970000	-998.949637
15.980000	-994.041337
15.990000	-1007.504541
16.000000	-1008.289450
16.010000	-989.183359
16.020000	-948.610621
16.030000	-904.305246
16.040000	-878.667091
16.050000	-864.066252
16.060000	-852.443087
16.070000	-829.530014
16.080000	-791.633695
16.090000	-742.398590
16.100000	-693.563616
16.110000	-664.002925
16.120000	-634.103064
16.130000	-593.012301
16.140000	-538.379237
16.150000	-481.772350
16.160000	-443.724867
16.170000	-429.200194
16.180000	-429.743255
16.190000	-442.017426
16.200000	-465.477019
16.210000	-486.171264
16.220000	-498.272227
16.230000	-518.424998
16.240000	-569.454952
16.250000	-637.948777
16.260000	-704.656921
16.270000	-759.197880
16.280000	-815.625995
16.290000	-850.710251
16.300000	-860.345622
16.310000	-835.238735
16.320000	-788.489454
16.330000	-742.487767
16.340000	-699.605664
16.350000	-665.104416
16.360000	-671.154446
16.370000	-728.352787
16.380000	-761.825091
16.390000	-723.697572
16.400000	-570.108489
16.410000	-364.592255
16.420000	-117.079997
16.430000	53.013559
16.440000	194.460278
16.450000	322.173607
16.460000	428.004296
16.470000	511.006204
16.480000	569.199286
16.490000	597.150838
16.500000	586.040865
16.510000	537.648180
16.520000	447.189051
16.530000	319.831850
16.540000	204.784882
16.550000	143.321435
16.560000	144.955548
16.570000	181.035949
16.580000	238.499801
16.590000	356.893413
16.600000	537.264135
16.610000	748.790018
16.620000	876.966607
16.630000	931.843976
16.640000	933.104308
16.650000	897.724667
16.660000	848.931347
16.670000	795.572363
16.680000	748.772117
16.690000	707.394842
16.700000	692.349531
16.710000	724.226843
16.720000	774.804235
16.730000	810.723725
16.740000	835.038886
16.750000	851.236019
16.760000	835.881434
16.770000	778.132334
16.780000	694.817023
16.790000	634.801279
16.800000	596.633305
16.810000	576.149256
16.820000	568.134097
16.830000	560.165747
16.840000	552.024286
16.850000	542.202156
16.860000	534.286158
16.870000	529.256663
16.880000	525.232988
16.890000	507.970919
16.900000	478.917511
16.910000	438.043266
16.920000	410.701445
16.930000	393.066044
16.940000	386.196914
16.950000	377.751000
16.960000	368.762318
16.970000	357.462320
16.980000	342.363423
16.990000	323.547076
17.000000	296.655655
17.010000	277.725357
17.020000	283.655294
17.030000	304.535899
17.040000	298.273282
17.050000	256.479949
17.060000	234.775520
17.070000	268.410685
17.080000	318.785063
17.090000	321.648627
17.100000	269.328497
17.110000	243.177090
17.120000	285.812391
17.130000	363.543649
17.140000	382.178633
17.150000	330.520850
17.160000	280.824265
17.170000	261.094202
17.180000	261.083344
17.190000	265.706938
17.200000	270.090629
17.210000	261.017746
17.220000	234.511764
17.230000	227.496850
17.240000	242.896290
17.250000	255.623281
17.260000	245.352301
17.270000	234.593250
17.280000	232.498324
17.290000	226.898837
17.300000	215.733760
17.310000	217.322861
17.320000	239.670797
17.330000	259.725655
17.340000	271.385930
17.350000	289.585233
17.360000	366.937697
17.370000	516.455915
17.380000	739.632879
17.390000	852.634272
17.400000	894.261191
17.410000	867.345878
17.420000	815.685569
17.430000	719.621860
17.440000	609.319557
17.450000	522.659234
17.460000	456.247810
17.470000	396.744336
17.480000	329.581835
17.490000	279.346866
17.500000	239.240294
17.510000	192.667208
17.520000	139.021464
17.530000	116.507018
17.540000	115.752245
17.550000	114.726414
17.560000	99.921529
17.570000	82.094959
17.580000	71.840272
17.590000	52.472561
17.600000	22.552270
17.610000	-0.011240
17.620000	-6.006764
17.630000	-19.499510
17.640000	-55.787387
17.650000	-114.857325
17.660000	-159.710620
17.670000	-195.240323
17.680000	-233.228829
17.690000	-269.488104
17.700000	-293.637936
17.710000	-291.632982
17.720000	-291.067831
17.730000	-300.297360
17.740000	-312.026338
17.750000	-316.525901
17.760000	-318.260591
17.770000	-305.612948
17.780000	-268.400708
17.790000	-206.963393
17.800000	-101.051350
17.810000	53.391141
17.820000	285.469947
17.830000	534.291070
17.840000	741.467079
17.850000	925.700206
17.860000	1110.081188
17.870000	1318.787327
17.880000	1505.147471
17.890000	1663.258646
17.900000	1790.037815
17.910000	1873.545385
17.920000	1905.926744
17.930000	1900.666646
17.940000	1881.620758
17.950000	1840.811085
17.960000	1763.741478
17.970000	1678.183544
17.980000	1625.010755
17.990000	1607.231873
18.000000	1595.972951
18.010000	1569.414007
18.020000	1536.802174
18.030000	1516.403201
18.040000	1508.698754
18.050000	1501.808548
18.060000	1484.046535
18.070000	1448.678715
18.080000	1405.892553
18.090000	1352.965720
18.100000	1299.224484
18.110000	1237.326945
18.120000	1183.073819
18.130000	1144.120139
18.140000	1126.707437
18.150000	1128.344664
18.160000	1134.430253
18.170000	1153.422120
18.180000	1196.951843
18.190000	1264.924548
18.200000	1349.576666
18.210000	1481.657490
18.220000	1661.234018
18.230000	1831.036134
18.240000	1907.941256
18.250000	1901.138989
18.260000	1893.636343
18.270000	1933.272438
18.280000	2013.643335
18.290000	2095.443432
18.300000	2165.182823
18.310000	2220.105833
18.320000	2251.501532
18.330000	2271.621694
18.340000	2297.629909
18.350000	2314.512300
18.360000	2309.895592
18.370000	2275.878826
18.380000	2244.401240
18.390000	2227.655212
18.400000	2215.643578
18.410000	2203.911315
18.420000	2186.680291
18.430000	2159.970532
18.440000	2129.207831
18.450000	2102.502253
18.460000	2087.867028
18.470000	2081.466800
18.480000	2076.650626
18.490000	2067.900009
18.500000	2055.916935
18.510000	2032.775206
18.520000	2009.033077
18.530000	1998.792567
18.540000	1991.547416
18.550000	1967.918019
18.560000	1941.284191
18.570000	1924.173573
18.580000	1893.054338
18.590000	1827.904473
18.600000	1755.084199
18.610000	1728.844232
18.620000	1736.061192
18.630000	1750.212618
18.640000	1750.519290
18.650000	1741.114649
18.660000	1735.133881
18.670000	1723.086176
18.680000	1702.231845
18.690000	1679.549073
18.700000	1654.774437
18.710000	1627.141599
18.720000	1586.421866
18.730000	1546.932175
18.740000	1517.183779
18.750000	1492.817617
18.760000	1477.096618
18.770000	1470.157564
18.780000	1476.484246
18.790000	1493.273428
18.800000	1519.338652
18.810000	1547.167318
18.820000	1572.998483
18.830000	1588.510179
18.840000	1592.472327
18.850000	1585.652753
18.860000	1575.759138
18.870000	1559.893109
18.880000	1531.830054
18.890000	1506.651544
18.900000	1476.296610
18.910000	1437.548787
18.920000	1422.986606
18.930000	1445.850992
18.940000	1474.009660
18.950000	1456.893166
18.960000	1402.985104
18.970000	1371.865456
18.980000	1363.252143
18.990000	1363.255944
19.000000	1355.300258
19.010000	1327.781424
19.020000	1296.544632
19.030000	1264.725726
19.040000	1239.921171
19.050000	1217.422321
19.060000	1159.993966
19.070000	1072.352560
19.080000	975.228653
19.090000	902.436121
19.100000	856.159997
19.110000	804.542510
19.120000	751.639102
19.130000	702.099110
19.140000	670.259513
19.150000	657.066408
19.160000	648.619400
19.170000	627.136067
19.180000	592.473525
19.190000	551.336421
19.200000	518.461023
19.210000	495.611882
19.220000	475.868153
19.230000	458.012577
19.240000	433.029512
19.250000	400.211148
19.260000	359.968407
19.270000	332.237213
19.280000	317.627491
19.290000	288.291117
19.300000	268.535222
19.310000	274.092931
19.320000	282.107816
19.330000	247.269987
19.340000	182.944533
19.350000	154.692760
19.360000	162.369191
19.370000	183.822886
19.380000	201.239604
19.390000	215.437417
19.400000	220.189947
19.410000	202.465246
19.420000	179.320970
19.430000	170.263885
19.440000	172.821753
19.450000	161.762848
19.460000	125.455432
19.470000	88.456122
19.480000	62.481468
19.490000	45.538737
19.500000	25.572900
19.510000	-0.260947
19.520000	-24.214799
19.530000	-56.351738
19.540000	-94.545168
19.550000	-142.368298
19.560000	-193.759818
19.570000	-245.637744
19.580000	-300.902897
19.590000	-352.793274
19.600000	-389.612338
19.610000	-412.564776
19.620000	-424.574326
19.630000	-434.935553
19.640000	-447.102665
19.650000	-459.208051
19.660000	-473.225169
19.670000	-482.708315
19.680000	-482.937239
19.690000	-489.850749
19.700000	-526.922700
19.710000	-574.795502
19.720000	-619.510205
19.730000	-662.035727
19.740000	-732.432671
19.750000	-819.418038
19.760000	-876.180439
19.770000	-891.822446
19.780000	-879.250945
19.790000	-854.493346
19.800000	-829.568921
19.810000	-803.721520
19.820000	-798.206930
19.830000	-802.789986
19.840000	-793.735179
19.850000	-772.856476
19.860000	-759.907746
19.870000	-773.515436
19.880000	-788.221981
19.890000	-790.804593
19.900000	-785.180393
19.910000	-783.046053
19.920000	-778.689089
19.930000	-774.240981
19.940000	-777.144785
19.950000	-787.013966
19.960000	-802.531298
19.970000	-810.354435
19.980000	-808.550125
19.990000	-795.965155
20.000000	-780.194880
20.010000	-769.179173
20.020000	-762.085007
20.030000	-753.985189
20.040000	-742.251797
20.050000	-730.412226
20.060000	-719.683451
20.070000	-707.099407
20.080000	-690.389067
20.090000	-668.729702
20.100000	-662.091339
20.110000	-669.241715
20.120000	-655.308235
20.130000	-621.794390
20.140000	-607.903155
20.150000	-643.262302
20.160000	-689.586802
20.170000	-696.305439
20.180000	-665.691606
20.190000	-614.330941
20.200000	-559.408147
20.210000	-513.286992
20.220000	-485.394105
20.230000	-482.179376
20.240000	-481.245698
20.250000	-462.356244
20.260000	-443.481127
20.270000	-446.155481
20.280000	-466.259013
20.290000	-476.504349
20.300000	-475.053728
20.310000	-479.520572
20.320000	-480.388192
20.330000	-467.817167
20.340000	-445.374394
20.350000	-433.107601
20.360000	-429.249572
20.370000	-425.663082
20.380000	-416.413657
20.390000	-411.545617
20.400000	-406.821994
20.410000	-402.056395
20.420000	-394.173149
20.430000	-394.223694
20.440000	-396.763683
20.450000	-399.350887
20.460000	-407.327540
20.470000	-413.061345
20.480000	-407.840955
20.490000	-388.406250
20.500000	-386.069082
20.510000	-400.617946
20.520000	-405.511879
20.530000	-394.171730
20.540000	-409.712030
20.550000	-456.573766
20.560000	-504.772370
20.570000	-509.222666
20.580000	-487.627096
20.590000	-455.487719
20.600000	-422.087194
20.610000	-397.377318
20.620000	-375.460051
20.630000	-370.612202
20.640000	-368.043192
20.650000	-363.499724
20.660000	-366.287512
20.670000	-383.672487
20.680000	-413.463605
20.690000	-433.414816
20.700000	-435.971596
20.710000	-434.840650
20.720000	-431.738658
20.730000	-428.224946
20.740000	-424.126744
20.750000	-427.257175
20.760000	-438.789477
20.770000	-445.208826
20.780000	-444.109361
20.790000	-439.137280
20.800000	-433.722371
20.810000	-429.354329
20.820000	-413.591239
20.830000	-402.610969
20.840000	-392.699986
20.850000	-387.181642
20.860000	-391.108378
20.870000	-400.689776
20.880000	-416.490663
20.890000	-414.091401
20.900000	-401.925476
20.910000	-406.505151
20.920000	-419.560735
20.930000	-419.511826
20.940000	-419.253669
20.950000	-459.223966
20.960000	-536.791627
20.970000	-592.075675
20.980000	-600.724137
20.990000	-587.359018
21.000000	-577.623392
21.010000	-574.878585
21.020000	-580.815625
21.030000	-593.686413
21.040000	-620.329286
21.050000	-640.049930
21.060000	-643.839816
21.070000	-644.772328
21.080000	-659.993217
21.090000	-693.423542
21.100000	-718.026842
21.110000	-733.780980
21.120000	-743.700941
21.130000	-752.776073
21.140000	-750.631838
21.150000	-750.468336
21.160000	-762.186179
21.170000	-781.420675
21.180000	-790.670440
21.190000	-786.043131
21.200000	-780.166214
21.210000	-778.278163
21.220000	-776.603493
21.230000	-771.145569
21.240000	-768.034949
21.250000	-768.298698
21.260000	-770.091628
21.270000	-771.083640
21.280000	-775.800311
21.290000	-780.144765
21.300000	-781.145302
21.310000	-773.165136
21.320000	-771.848653
21.330000	-797.498216
21.340000	-823.389423
21.350000	-824.469127
21.360000	-823.361040
21.370000	-871.151432
21.380000	-969.831010
21.390000	-1045.257804
21.400000	-1069.728335
21.410000	-1058.114217
21.420000	-1047.319234
21.430000	-1042.516491
21.440000	-1040.520131
21.450000	-1041.895293
21.460000	-1055.376287
21.470000	-1074.866107
21.480000	-1086.176217
21.490000	-1089.509021
21.500000	-1101.988436
21.510000	-1136.773423
21.520000	-1164.649876
21.530000	-1176.391542
21.540000	-1173.974111
21.550000	-1183.039893
21.560000	-1197.843898
21.570000	-1209.310712
21.580000	-1214.361618
21.590000	-1217.901428
21.600000	-1213.145032
21.610000	-1195.462355
21.620000	-1160.225896
21.630000	-1120.703019
21.640000	-1089.936534
21.650000	-1077.564516
21.660000	-1099.962315
21.670000	-1141.969151
21.680000	-1199.982704
21.690000	-1243.930379
21.700000	-1275.385735
21.710000	-1299.530326
21.720000	-1318.408704
21.730000	-1322.393173
21.740000	-1312.756300
21.750000	-1316.955682
21.760000	-1325.964477
21.770000	-1317.442117
21.780000	-1302.558215
21.790000	-1325.646183
21.800000	-1391.670047
21.810000	-1450.992846
21.820000	-1473.460950
21.830000	-1466.735250
21.840000	-1448.905357
21.850000	-1433.088494
21.860000	-1419.605409
21.870000	-1413.077293
21.880000	-1418.931026
21.890000	-1427.647996
21.900000	-1422.860376
21.910000	-1408.229171
21.920000	-1403.121232
21.930000	-1424.759058
21.940000	-1447.886242
21.950000	-1459.275689
21.960000	-1454.963270
21.970000	-1450.131014
21.980000	-1451.970647
21.990000	-1451.894807
22.000000	-1446.944793
22.010000	-1432.270876
22.020000	-1421.586879
22.030000	-1409.210100
22.040000	-1393.188440
22.050000	-1368.756952
22.060000	-1346.112566
22.070000	-1328.231550
22.080000	-1315.977898
22.090000	-1301.963246
22.100000	-1290.822099
22.110000	-1285.301680
22.120000	-1281.592946
22.130000	-1256.196744
22.140000	-1231.098814
22.150000	-1226.362663
22.160000	-1232.131337
22.170000	-1223.094331
22.180000	-1197.168535
22.190000	-1210.258823
22.200000	-1248.286410
22.210000	-1269.954113
22.220000	-1231.001020
22.230000	-1143.742315
22.240000	-1027.003674
22.250000	-901.806007
22.260000	-777.910819
22.270000	-643.077302
22.280000	-471.038397
22.290000	-171.878767
22.300000	311.761592
22.310000	806.212728
22.320000	1151.469590
22.330000	1416.645170
22.340000	1665.085296
22.350000	1902.740144
22.360000	2107.596278
22.370000	2272.118720
22.380000	2404.981010
22.390000	2515.602267
22.400000	2600.523751
22.410000	2655.157903
22.420000	2682.496462
22.430000	2700.831998
22.440000	2703.143346
22.450000	2686.595204
22.460000	2652.880848
22.470000	2615.803732
22.480000	2573.320749
22.490000	2527.770734
22.500000	2487.524155
22.510000	2459.815368
22.520000	2437.770029
22.530000	2401.572797
22.540000	2351.486489
22.550000	2254.989373
22.560000	2113.657888
22.570000	1932.796759
22.580000	1786.824977
22.590000	1667.290613
22.600000	1528.562815
22.610000	1334.484059
22.620000	1139.609620
22.630000	982.222354
22.640000	819.683698
22.650000	607.677344
22.660000	318.172019
22.670000	-33.824853
22.680000	-320.001954
22.690000	-547.694607
22.700000	-722.665510
22.710000	-814.006906
22.720000	-854.765709
22.730000	-867.535487
22.740000	-862.743814
22.750000	-853.649522
22.760000	-874.690786
22.770000	-926.581309
22.780000	-903.588783
22.790000	-774.183420
22.800000	-567.462736
22.810000	-334.529928
22.820000	-63.510105
22.830000	128.395180
22.840000	264.965465
22.850000	353.599938
22.860000	437.490988
22.870000	514.773994
22.880000	601.158176
22.890000	694.659862
22.900000	784.562125
22.910000	847.605702
22.920000	879.780364
22.930000	890.015496
22.940000	901.132161
22.950000	920.478514
22.960000	913.130555
22.970000	887.824457
22.980000	875.285988
22.990000	928.996503
23.000000	1066.098029
23.010000	1290.867827
23.020000	1546.857720
23.030000	1724.952334
23.040000	1846.466136
23.050000	1913.645483
23.060000	1937.002086
23.070000	1942.145818
23.080000	1941.267116
23.090000	1900.619461
23.100000	1781.107596
23.110000	1604.603358
23.120000	1493.075762
23.130000	1434.260995
23.140000	1386.496763
23.150000	1327.878441
23.160000	1279.803982
23.170000	1234.516553
23.180000	1180.200912
23.190000	1116.620767
23.200000	1059.743412
23.210000	1009.114370
23.220000	974.749247
23.230000	939.635059
23.240000	908.917338
23.250000	887.590130
23.260000	871.495150
23.270000	856.647256
23.280000	834.829634
23.290000	812.513062
23.300000	793.257838
23.310000	785.493989
23.320000	782.078376
23.330000	770.896394
23.340000	745.349214
23.350000	728.816300
23.360000	712.633883
23.370000	675.804174
23.380000	595.014037
23.390000	503.716468
23.400000	442.181412
23.410000	421.985104
23.420000	424.701521
23.430000	424.334734
23.440000	416.382428
23.450000	407.483372
23.460000	404.498994
23.470000	404.373122
23.480000	404.719053
23.490000	402.028078
23.500000	394.712638
23.510000	381.786228
23.520000	362.474977
23.530000	341.661373
23.540000	323.336280
23.550000	312.975293
23.560000	311.954302
23.570000	312.364973
23.580000	305.003304
23.590000	290.549617
23.600000	282.856242
23.610000	279.457138
23.620000	279.481194
23.630000	275.113156
23.640000	272.578881
23.650000	272.187025
23.660000	268.762207
23.670000	265.718448
23.680000	266.713425
23.690000	277.689963
23.700000	287.384457
23.710000	285.765190
23.720000	286.554314
23.730000	289.569061
23.740000	274.769716
23.750000	211.109365
23.760000	120.229745
23.770000	52.160799
23.780000	30.049006
23.790000	43.887487
23.800000	64.916315
23.810000	83.766899
23.820000	98.570262
23.830000	110.086145
23.840000	117.987079
23.850000	124.845787
23.860000	133.169385
23.870000	131.666438
23.880000	117.139401
23.890000	97.950892
23.900000	86.552604
23.910000	88.314419
23.920000	93.689930
23.930000	100.128822
23.940000	105.259309
23.950000	110.719033
23.960000	115.586354
23.970000	119.742711
23.980000	124.013819
23.990000	133.542638
24.000000	141.840290
24.010000	152.467684
24.020000	158.401771
24.030000	163.854227
24.040000	167.043993
24.050000	171.686293
24.060000	175.433213
24.070000	176.617101
24.080000	177.262672
24.090000	185.327524
24.100000	198.828032
24.110000	204.436549
24.120000	206.538354
24.130000	208.973604
24.140000	207.990566
24.150000	165.178089
24.160000	87.997944
24.170000	6.874692
24.180000	-35.532147
24.190000	-36.442765
24.200000	-14.358674
24.210000	9.995564
24.220000	21.926468
24.230000	25.246368
24.240000	21.968192
24.250000	21.612528
24.260000	27.086363
24.270000	33.384779
24.280000	27.276306
24.290000	9.623316
24.300000	-3.731822
24.310000	-5.066453
24.320000	-0.684604
24.330000	5.009410
24.340000	9.461320
24.350000	12.852956
24.360000	15.701542
24.370000	17.453479
24.380000	23.384236
24.390000	29.789010
24.400000	38.842626
24.410000	48.204896
24.420000	51.716492
24.430000	53.407944
24.440000	54.007003
24.450000	62.392302
24.460000	70.676931
24.470000	76.483800
24.480000	79.444254
24.490000	81.339621
24.500000	87.980937
24.510000	95.928197
24.520000	104.282635
24.530000	103.250249
24.540000	98.050011
24.550000	95.333884
24.560000	85.530345
24.570000	44.133886
24.580000	-31.839624
24.590000	-103.527387
24.600000	-138.804444
24.610000	-139.859382
24.620000	-129.402236
24.630000	-117.399783
24.640000	-105.219947
24.650000	-92.512464
24.660000	-87.304462
24.670000	-79.151668
24.680000	-67.326380
24.690000	-61.396660
24.700000	-71.260174
24.710000	-92.847719
24.720000	-106.061164
24.730000	-112.269085
24.740000	-108.093922
24.750000	-96.285541
24.760000	-81.710879
24.770000	-72.222037
24.780000	-69.890588
24.790000	-67.043852
24.800000	-63.001707
24.810000	-56.108647
24.820000	-44.023388
24.830000	-30.435905
24.840000	-15.280771
24.850000	-8.035510
24.860000	-6.084529
24.870000	-6.881680
24.880000	1.892063
24.890000	14.977258
24.900000	30.631585
24.910000	42.242638
24.920000	49.474711
24.930000	59.615202
24.940000	72.717429
24.950000	86.066170
24.960000	87.353020
24.970000	96.357704
24.980000	100.652465
24.990000	79.712525
25.000000	8.692111
25.010000	-76.012501
25.020000	-129.827291
25.030000	-147.092707
25.040000	-137.637653
25.050000	-122.786361
25.060000	-107.652155
25.070000	-95.390088
25.080000	-87.577894
25.090000	-72.874019
25.100000	-69.500639
25.110000	-79.897192
25.120000	-119.040527
25.130000	-173.090709
25.140000	-222.480959
25.150000	-252.881667
25.160000	-254.851321
25.170000	-242.654350
25.180000	-211.753436
25.190000	-178.735223
25.200000	-142.858237
25.210000	-109.082140
25.220000	-79.539097
25.230000	-52.669515
25.240000	-31.483210
25.250000	-12.155591
25.260000	6.648264
25.270000	20.758869
25.280000	31.543831
25.290000	39.085246
25.300000	56.891618
25.310000	81.446771
25.320000	108.987196
25.330000	124.191584
25.340000	123.530088
25.350000	121.400459
25.360000	119.786936
25.370000	112.668624
25.380000	120.865338
25.390000	146.633530
25.400000	172.303296
25.410000	139.567664
25.420000	57.674195
25.430000	-22.302702
25.440000	-73.273610
25.450000	-98.843647
25.460000	-124.534663
25.470000	-145.888747
25.480000	-170.415195
25.490000	-199.838012
25.500000	-208.139697
25.510000	-134.612270
25.520000	38.700051
25.530000	280.339987
25.540000	369.544266
25.550000	308.854075
25.560000	141.803432
25.570000	10.522643
25.580000	-46.595432
25.590000	-48.935805
25.600000	-18.483519
25.610000	25.692388
25.620000	71.726701
25.630000	98.707475
25.640000	111.419126
25.650000	110.790154
25.660000	101.867599
25.670000	95.299505
25.680000	94.373697
25.690000	110.241513
25.700000	119.863496
25.710000	118.645006
25.720000	116.470438
25.730000	127.805005
25.740000	152.113319
25.750000	174.001212
25.760000	202.901287
25.770000	229.221944
25.780000	252.791783
25.790000	273.853680
25.800000	303.455028
25.810000	323.147349
25.820000	302.829085
25.830000	242.265738
25.840000	192.419646
25.850000	177.386090
25.860000	189.665717
25.870000	203.531862
25.880000	207.693448
25.890000	203.788350
25.900000	177.418868
25.910000	134.174660
25.920000	99.941482
25.930000	89.605396
25.940000	71.076231
25.950000	7.096286
25.960000	-82.223918
25.970000	-141.909678
25.980000	-169.928902
25.990000	-184.564341
26.000000	-201.553277
26.010000	-204.390305
26.020000	-202.843147
26.030000	-213.160881
26.040000	-226.658149
26.050000	-223.828826
26.060000	-215.149394
26.070000	-221.786829
26.080000	-242.840861
26.090000	-261.629117
26.100000	-266.473838
26.110000	-275.815355
26.120000	-284.302827
26.130000	-298.295239
26.140000	-308.684277
26.150000	-328.765056
26.160000	-343.583328
26.170000	-352.870517
26.180000	-359.085296
26.190000	-358.220429
26.200000	-357.547232
26.210000	-352.132589
26.220000	-370.028975
26.230000	-405.213810
26.240000	-446.091502
26.250000	-458.495898
26.260000	-435.826030
26.270000	-390.760662
26.280000	-344.179567
26.290000	-312.275795
26.300000	-276.033063
26.310000	-251.818196
26.320000	-220.719835
26.330000	-188.358228
26.340000	-165.684919
26.350000	-164.831920
26.360000	-190.560255
26.370000	-204.785173
26.380000	-194.100691
26.390000	-165.725803
26.400000	-130.582099
26.410000	-105.613849
26.420000	-82.257730
26.430000	-64.133044
26.440000	-45.839680
26.450000	-20.579561
26.460000	8.620151
26.470000	42.385987
26.480000	72.123283
26.490000	101.787898
26.500000	122.660089
26.510000	136.286422
26.520000	154.292923
26.530000	177.490182
26.540000	192.287739
26.550000	220.191797
26.560000	262.628789
26.570000	311.936426
26.580000	319.257927
26.590000	291.903139
26.600000	269.710813
26.610000	282.242615
26.620000	324.135345
26.630000	369.927706
26.640000	406.995866
26.650000	436.384311
26.660000	459.257262
26.670000	472.228869
26.680000	495.985125
26.690000	533.759077
26.700000	566.384949
26.710000	581.040081
26.720000	579.558294
26.730000	581.770333
26.740000	590.083484
26.750000	600.215123
26.760000	625.389546
26.770000	640.955211
26.780000	639.809670
26.790000	639.829632
26.800000	661.970502
26.810000	681.644408
26.820000	667.511417
26.830000	623.287276
26.840000	598.576690
26.850000	605.893096
26.860000	632.637652
26.870000	670.909648
26.880000	704.406528
26.890000	734.706123
26.900000	757.890943
26.910000	768.562313
26.920000	780.491605
26.930000	794.446187
26.940000	801.796326
26.950000	798.405401
26.960000	784.174928
26.970000	771.795652
26.980000	763.587406
26.990000	758.572315
27.000000	764.418873
27.010000	772.699781
27.020000	768.627645
27.030000	750.925551
27.040000	717.561962
27.050000	676.573005
27.060000	632.881503
27.070000	594.288546
27.080000	567.925790
27.090000	549.365320
27.100000	531.355030
27.110000	527.224390
27.120000	514.411177
27.130000	481.171710
27.140000	441.596532
27.150000	402.156064
27.160000	342.098120
27.170000	242.870502
27.180000	148.495318
27.190000	107.988768
27.200000	118.473129
27.210000	155.437124
27.220000	210.217005
27.230000	261.907426
27.240000	306.729852
27.250000	323.384562
27.260000	322.718975
27.270000	321.264984
27.280000	326.737912
27.290000	330.153254
27.300000	328.159052
27.310000	334.140575
27.320000	355.616842
27.330000	375.780189
27.340000	382.138602
27.350000	384.867183
27.360000	394.713396
27.370000	414.650624
27.380000	425.611786
27.390000	430.879245
27.400000	430.551556
27.410000	438.528890
27.420000	451.493475
27.430000	467.564911
27.440000	486.154354
27.450000	506.649260
27.460000	524.519178
27.470000	544.139082
27.480000	558.901157
27.490000	561.005921
27.500000	573.079958
27.510000	598.532863
27.520000	617.239963
27.530000	583.367992
27.540000	515.956563
27.550000	469.010521
27.560000	459.950322
27.570000	465.251172
27.580000	472.351046
27.590000	481.904581
27.600000	495.129372
27.610000	494.883213
27.620000	479.993468
27.630000	471.965633
27.640000	469.502690
27.650000	456.715311
27.660000	427.412132
27.670000	395.560184
27.680000	373.690368
27.690000	368.427814
27.700000	370.964763
27.710000	383.029163
27.720000	383.547545
27.730000	383.756496
27.740000	377.786815
27.750000	364.533275
27.760000	349.747501
27.770000	342.354240
27.780000	344.725211
27.790000	344.168402
27.800000	345.117409
27.810000	346.333981
27.820000	349.550972
27.830000	349.847364
27.840000	349.703814
27.850000	347.380976
27.860000	354.925875
27.870000	361.883670
27.880000	356.173886
27.890000	353.492596
27.900000	362.097601
27.910000	352.359787
27.920000	296.053682
27.930000	220.073062
27.940000	182.456182
27.950000	183.655232
27.960000	206.169278
27.970000	236.273860
27.980000	266.592071
27.990000	301.616860
28.000000	330.998711
28.010000	357.018671
28.020000	386.775539
28.030000	418.419026
28.040000	441.885767
28.050000	446.506507
28.060000	440.402556
28.070000	445.987686
28.080000	455.858048
28.090000	474.855920
28.100000	490.284939
28.110000	500.105809
28.120000	494.709569
28.130000	464.373389
28.140000	397.479804
28.150000	306.056190
28.160000	216.973888
28.170000	135.027565
28.180000	63.144849
28.190000	24.068162
28.200000	100.494738
28.210000	291.876279
28.220000	570.559015
28.230000	771.223149
28.240000	880.611553
28.250000	851.858535
28.260000	724.705943
28.270000	591.179695
28.280000	523.258745
28.290000	544.361326
28.300000	606.888881
28.310000	620.433535
28.320000	528.894634
28.330000	381.816939
28.340000	246.045300
28.350000	141.424447
28.360000	10.262049
28.370000	-132.764633
28.380000	-299.255991
28.390000	-477.341835
28.400000	-666.952813
28.410000	-836.279250
28.420000	-925.224592
28.430000	-946.213214
28.440000	-927.698769
28.450000	-976.027825
28.460000	-1087.538074
28.470000	-1244.137307
28.480000	-1407.991547
28.490000	-1554.284814
28.500000	-1681.511855
28.510000	-1796.792686
28.520000	-1932.104296
28.530000	-2090.893236
28.540000	-2232.580691
28.550000	-2315.663273
28.560000	-2380.621428
28.570000	-2450.391417
28.580000	-2538.309204
28.590000	-2571.222521
28.600000	-2518.788814
28.610000	-2399.529155
28.620000	-2266.037048
28.630000	-2183.545914
28.640000	-2155.792140
28.650000	-2137.771575
28.660000	-2094.919001
28.670000	-2050.833734
28.680000	-2025.379311
28.690000	-1988.435939
28.700000	-1935.922074
28.710000	-1909.508338
28.720000	-1932.759890
28.730000	-1955.389579
28.740000	-1916.246442
28.750000	-1838.180323
28.760000	-1748.758272
28.770000	-1670.636756
28.780000	-1589.514615
28.790000	-1493.111593
28.800000	-1401.372477
28.810000	-1321.899019
28.820000	-1258.900983
28.830000	-1219.374184
28.840000	-1191.391054
28.850000	-1175.564111
28.860000	-1148.161352
28.870000	-1109.166362
28.880000	-1058.612395
28.890000	-1003.802605
28.900000	-950.406385
28.910000	-901.111494
28.920000	-853.199760
28.930000	-799.756479
28.940000	-750.051927
28.950000	-702.385718
28.960000	-655.586639
28.970000	-600.340387
28.980000	-538.499851
28.990000	-470.639398
29.000000	-407.121157
29.010000	-352.269726
29.020000	-302.067467
29.030000	-254.252808
29.040000	-208.032420
29.050000	-163.252269
29.060000	-115.667436
29.070000	-81.656345
29.080000	-79.321834
29.090000	-83.957495
29.100000	-88.038079
29.110000	-117.364842
29.120000	-184.399019
29.130000	-245.633138
29.140000	-251.424450
29.150000	-215.757534
29.160000	-165.499941
29.170000	-120.878366
29.180000	-76.854045
29.190000	-38.570020
