Time(s)	RED_denoised_wiener
0.000000	1026.571954
0.010000	1521.484286
0.020000	1491.064698
0.030000	1481.022683
0.040000	1488.751230
0.050000	1505.648252
0.060000	1530.561148
0.070000	1557.696612
0.080000	1578.464859
0.090000	1586.518532
0.100000	1584.827479
0.110000	1584.796177
0.120000	1585.922518
0.130000	1590.178293
0.140000	1592.762510
0.150000	1597.680685
0.160000	1601.677839
0.170000	1611.972972
0.180000	1630.338508
0.190000	1661.365795
0.200000	1697.725046
0.210000	1738.534078
0.220000	1776.183322
0.230000	1809.810229
0.240000	1838.062030
0.250000	1868.866077
0.260000	1898.662483
0.270000	1931.027230
0.280000	1963.999164
0.290000	2003.627538
0.300000	2041.378653
0.310000	2076.664892
0.320000	2114.186901
0.330000	2152.097500
0.340000	2185.732976
0.350000	2193.895901
0.360000	2171.734111
0.370000	2116.442374
0.380000	2042.858422
0.390000	1957.706871
0.400000	1883.766042
0.410000	1826.662372
0.420000	1798.094003
0.430000	1780.607008
0.440000	1778.884162
0.450000	1779.234761
0.460000	1790.134288
0.470000	1800.540153
0.480000	1810.478211
0.490000	1815.228044
0.500000	1799.520823
0.510000	1761.345459
0.520000	1698.287544
0.530000	1628.576885
0.540000	1558.076358
0.550000	1476.485381
0.560000	1366.566311
0.570000	1217.463653
0.580000	1018.106630
0.590000	783.897625
0.600000	549.414634
0.610000	346.705021
0.620000	139.246697
0.630000	-78.023443
0.640000	-305.532093
0.650000	-509.282269
0.660000	-697.386104
0.670000	-862.125169
0.680000	-982.833424
0.690000	-1090.072287
0.700000	-1217.253400
0.710000	-1373.919978
0.720000	-1516.160650
0.730000	-1603.746496
0.740000	-1647.511472
0.750000	-1723.389744
0.760000	-1863.380814
0.770000	-2036.834692
0.780000	-2171.778336
0.790000	-2227.675556
0.800000	-2209.946199
0.810000	-2134.523950
0.820000	-2042.830574
0.830000	-1956.298458
0.840000	-1874.971716
0.850000	-1797.385479
0.860000	-1717.752113
0.870000	-1645.499878
0.880000	-1586.509465
0.890000	-1543.593652
0.900000	-1525.271383
0.910000	-1533.994070
0.920000	-1569.015566
0.930000	-1597.632158
0.940000	-1597.113640
0.950000	-1567.660769
0.960000	-1526.921542
0.970000	-1497.365554
0.980000	-1478.664104
0.990000	-1480.095007
1.000000	-1502.382452
1.010000	-1533.790501
1.020000	-1563.437721
1.030000	-1571.797792
1.040000	-1566.570933
1.050000	-1539.097595
1.060000	-1484.720188
1.070000	-1427.482207
1.080000	-1392.880332
1.090000	-1396.179858
1.100000	-1422.299168
1.110000	-1442.850563
1.120000	-1440.425307
1.130000	-1420.261493
1.140000	-1407.618659
1.150000	-1443.060870
1.160000	-1534.736907
1.170000	-1663.466617
1.180000	-1793.157631
1.190000	-1895.911283
1.200000	-1984.707855
1.210000	-2066.357021
1.220000	-2132.568746
1.230000	-2160.114644
1.240000	-2144.835689
1.250000	-2117.656383
1.260000	-2106.783659
1.270000	-2116.488260
1.280000	-2128.693504
1.290000	-2139.716954
1.300000	-2148.301309
1.310000	-2167.677407
1.320000	-2192.216602
1.330000	-2215.662734
1.340000	-2208.762624
1.350000	-2168.748644
1.360000	-2113.393501
1.370000	-2068.886698
1.380000	-2036.986878
1.390000	-2003.009753
1.400000	-1957.959923
1.410000	-1896.173201
1.420000	-1839.373290
1.430000	-1803.686886
1.440000	-1784.094687
1.450000	-1760.860079
1.460000	-1727.218785
1.470000	-1694.784617
1.480000	-1658.331286
1.490000	-1616.755578
1.500000	-1578.839802
1.510000	-1553.095081
1.520000	-1533.010090
1.530000	-1517.486217
1.540000	-1532.959830
1.550000	-1584.522937
1.560000	-1663.910800
1.570000	-1739.199620
1.580000	-1832.716070
1.590000	-1947.194800
1.600000	-2070.854110
1.610000	-2144.098282
1.620000	-2147.475677
1.630000	-2082.432726
1.640000	-1977.879856
1.650000	-1882.194754
1.660000	-1814.578272
1.670000	-1786.978145
1.680000	-1777.224498
1.690000	-1784.862917
1.700000	-1787.184881
1.710000	-1780.843012
1.720000	-1779.567837
1.730000	-1780.152430
1.740000	-1768.964835
1.750000	-1733.842045
1.760000	-1715.550179
1.770000	-1722.151608
1.780000	-1727.417901
1.790000	-1705.839817
1.800000	-1645.366022
1.810000	-1585.045234
1.820000	-1540.961339
1.830000	-1517.595790
1.840000	-1492.526495
1.850000	-1451.880274
1.860000	-1407.205292
1.870000	-1362.855514
1.880000	-1333.623295
1.890000	-1310.141614
1.900000	-1298.460864
1.910000	-1300.460140
1.920000	-1324.359718
1.930000	-1373.809962
1.940000	-1428.570105
1.950000	-1514.663967
1.960000	-1614.704998
1.970000	-1717.913131
1.980000	-1785.807423
1.990000	-1811.960540
2.000000	-1812.013917
2.010000	-1791.022229
2.020000	-1756.269786
2.030000	-1696.074960
2.040000	-1601.576403
2.050000	-1485.229100
2.060000	-1367.280468
2.070000	-1266.087264
2.080000	-1182.311646
2.090000	-1108.966621
2.100000	-1045.736495
2.110000	-985.535871
2.120000	-932.901552
2.130000	-882.786877
2.140000	-837.795485
2.150000	-792.724086
2.160000	-743.733919
2.170000	-697.397079
2.180000	-650.686275
2.190000	-606.125366
2.200000	-555.983602
2.210000	-510.943781
2.220000	-473.297183
2.230000	-440.454505
2.240000	-410.651820
2.250000	-375.986896
2.260000	-338.070847
2.270000	-293.877880
2.280000	-257.574821
2.290000	-226.426561
2.300000	-200.456885
2.310000	-170.319745
2.320000	-144.758595
2.330000	-145.618599
2.340000	-189.415072
2.350000	-269.890698
2.360000	-359.047348
2.370000	-430.535889
2.380000	-479.774355
2.390000	-500.878830
2.400000	-500.570352
2.410000	-493.611269
2.420000	-486.711349
2.430000	-479.691607
2.440000	-454.168867
2.450000	-421.219073
2.460000	-391.323995
2.470000	-373.775536
2.480000	-369.822318
2.490000	-368.329626
2.500000	-369.717031
2.510000	-362.548824
2.520000	-351.687189
2.530000	-335.447064
2.540000	-314.360132
2.550000	-292.384417
2.560000	-266.376276
2.570000	-235.022503
2.580000	-191.739984
2.590000	-151.748844
2.600000	-112.081772
2.610000	-78.526926
2.620000	-40.405688
2.630000	-2.374141
2.640000	30.910386
2.650000	65.448249
2.660000	95.167309
2.670000	128.618485
2.680000	160.360490
2.690000	201.141547
2.700000	251.835249
2.710000	307.624685
2.720000	359.273913
2.730000	406.441963
2.740000	425.625670
2.750000	396.912811
2.760000	323.685441
2.770000	238.107070
2.780000	164.367997
2.790000	100.541269
2.800000	54.723411
2.810000	30.609024
2.820000	6.989725
2.830000	-40.351870
2.840000	-102.673502
2.850000	-138.910403
2.860000	-131.086240
2.870000	-99.927681
2.880000	-74.540786
2.890000	-66.247922
2.900000	-65.288911
2.910000	-66.933140
2.920000	-65.719205
2.930000	-71.343844
2.940000	-74.781607
2.950000	-79.471992
2.960000	-75.490188
2.970000	-57.294740
2.980000	-20.216735
2.990000	29.503973
3.000000	72.338633
3.010000	110.681638
3.020000	152.227622
3.030000	198.160809
3.040000	233.725877
3.050000	229.920886
3.060000	195.648597
3.070000	165.405268
3.080000	177.903894
3.090000	240.123804
3.100000	333.744667
3.110000	438.158001
3.120000	523.883332
3.130000	584.578320
3.140000	625.710647
3.150000	654.326158
3.160000	653.127923
3.170000	609.744643
3.180000	531.256035
3.190000	435.851346
3.200000	350.065060
3.210000	279.558994
3.220000	218.835322
3.230000	163.929687
3.240000	124.635815
3.250000	121.656396
3.260000	147.017205
3.270000	201.734397
3.280000	263.661850
3.290000	308.132619
3.300000	313.642597
3.310000	284.930601
3.320000	247.341222
3.330000	195.973727
3.340000	144.084863
3.350000	104.678232
3.360000	99.514890
3.370000	110.937062
3.380000	125.285418
3.390000	134.541162
3.400000	131.053659
3.410000	113.827165
3.420000	101.539815
3.430000	120.799081
3.440000	152.564988
3.450000	181.111410
3.460000	185.240027
3.470000	192.556263
3.480000	207.851137
3.490000	244.022364
3.500000	272.681415
3.510000	273.844360
3.520000	254.585735
3.530000	250.076827
3.540000	281.785961
3.550000	306.465329
3.560000	307.727317
3.570000	296.596715
3.580000	313.417028
3.590000	328.537252
3.600000	302.748783
3.610000	215.865225
3.620000	97.218628
3.630000	-12.439793
3.640000	-80.665137
3.650000	-97.804651
3.660000	-80.952713
3.670000	-48.837453
3.680000	-3.524423
3.690000	50.794230
3.700000	120.937997
3.710000	197.385142
3.720000	254.360111
3.730000	282.358639
3.740000	286.493823
3.750000	299.412767
3.760000	320.541519
3.770000	337.105497
3.780000	343.949135
3.790000	352.516360
3.800000	372.357639
3.810000	411.930521
3.820000	449.355996
3.830000	483.742371
3.840000	508.679444
3.850000	538.284384
3.860000	573.306824
3.870000	602.801784
3.880000	626.638270
3.890000	647.334345
3.900000	678.675398
3.910000	722.509034
3.920000	773.367525
3.930000	816.333029
3.940000	846.429052
3.950000	871.200338
3.960000	903.514279
3.970000	942.037877
3.980000	987.614862
3.990000	1028.851324
4.000000	1066.090671
4.010000	1092.321018
4.020000	1103.919023
4.030000	1062.705821
4.040000	956.161311
4.050000	802.518655
4.060000	656.514184
4.070000	562.647121
4.080000	518.415131
4.090000	507.080404
4.100000	507.314127
4.110000	513.233508
4.120000	524.238435
4.130000	534.382800
4.140000	551.210728
4.150000	567.502535
4.160000	555.805167
4.170000	507.351365
4.180000	438.479717
4.190000	385.599857
4.200000	354.748759
4.210000	350.856597
4.220000	373.347339
4.230000	406.081956
4.240000	429.949152
4.250000	417.629532
4.260000	391.365215
4.270000	363.160475
4.280000	342.452402
4.290000	341.711280
4.300000	363.189743
4.310000	399.914981
4.320000	417.864373
4.330000	431.262792
4.340000	453.882698
4.350000	489.595021
4.360000	529.544355
4.370000	571.624073
4.380000	631.600053
4.390000	697.588799
4.400000	760.007008
4.410000	804.217907
4.420000	832.471924
4.430000	863.570699
4.440000	886.533238
4.450000	909.654600
4.460000	940.938549
4.470000	990.756427
4.480000	1011.195153
4.490000	981.276888
4.500000	908.875595
4.510000	839.913046
4.520000	795.499014
4.530000	752.772816
4.540000	713.868713
4.550000	679.305693
4.560000	657.604508
4.570000	628.102435
4.580000	574.028243
4.590000	534.730463
4.600000	537.763290
4.610000	573.934489
4.620000	613.451900
4.630000	630.492775
4.640000	637.254837
4.650000	626.340347
4.660000	603.102438
4.670000	558.156949
4.680000	512.710093
4.690000	465.253725
4.700000	426.025757
4.710000	404.691193
4.720000	397.312842
4.730000	383.759475
4.740000	340.265079
4.750000	291.636140
4.760000	270.914750
4.770000	264.058133
4.780000	239.189923
4.790000	198.247313
4.800000	166.536761
4.810000	181.477070
4.820000	229.417136
4.830000	278.329988
4.840000	300.649887
4.850000	303.952705
4.860000	327.308910
4.870000	387.854768
4.880000	449.828721
4.890000	478.097784
4.900000	434.011243
4.910000	347.869028
4.920000	253.542233
4.930000	162.584107
4.940000	83.068604
4.950000	-0.093025
4.960000	-57.277680
4.970000	-88.179672
4.980000	-83.261131
4.990000	-44.627689
5.000000	18.406029
5.010000	99.602961
5.020000	179.373197
5.030000	242.849733
5.040000	269.661533
5.050000	260.490414
5.060000	228.653791
5.070000	186.129764
5.080000	159.020318
5.090000	165.081462
5.100000	209.353652
5.110000	270.629258
5.120000	299.611150
5.130000	297.650601
5.140000	286.592494
5.150000	307.391774
5.160000	366.145225
5.170000	438.382571
5.180000	511.396956
5.190000	584.071670
5.200000	654.646498
5.210000	715.744692
5.220000	755.215378
5.230000	785.818349
5.240000	822.789702
5.250000	873.201313
5.260000	938.012051
5.270000	1007.218729
5.280000	1075.244190
5.290000	1128.544965
5.300000	1173.193967
5.310000	1218.543691
5.320000	1255.422730
5.330000	1251.140723
5.340000	1194.038525
5.350000	1090.783717
5.360000	986.755957
5.370000	897.673565
5.380000	844.482402
5.390000	823.155810
5.400000	834.549569
5.410000	866.930443
5.420000	903.596367
5.430000	939.730640
5.440000	981.666345
5.450000	1027.166150
5.460000	1055.677831
5.470000	1070.993288
5.480000	1074.005732
5.490000	1083.861208
5.500000	1090.577212
5.510000	1105.778314
5.520000	1128.102449
5.530000	1158.022800
5.540000	1188.930145
5.550000	1212.918534
5.560000	1238.122933
5.570000	1266.451082
5.580000	1297.964109
5.590000	1328.959623
5.600000	1359.802312
5.610000	1393.794941
5.620000	1429.946943
5.630000	1462.267582
5.640000	1493.766844
5.650000	1525.718822
5.660000	1556.896050
5.670000	1592.503371
5.680000	1628.648703
5.690000	1669.624947
5.700000	1703.671247
5.710000	1730.758822
5.720000	1755.686543
5.730000	1784.207551
5.740000	1820.676292
5.750000	1865.289206
5.760000	1909.619409
5.770000	1921.281470
5.780000	1882.244382
5.790000	1806.336341
5.800000	1727.565877
5.810000	1674.015345
5.820000	1643.109550
5.830000	1625.982745
5.840000	1620.643727
5.850000	1624.252041
5.860000	1638.159575
5.870000	1649.117310
5.880000	1658.684746
5.890000	1659.592878
5.900000	1609.079535
5.910000	1508.823487
5.920000	1387.848275
5.930000	1302.761228
5.940000	1262.115584
5.950000	1218.842591
5.960000	1163.782570
5.970000	1082.871865
5.980000	1015.557055
5.990000	978.799051
6.000000	988.286852
6.010000	1033.612494
6.020000	1067.873470
6.030000	1064.437784
6.040000	1024.157524
6.050000	962.925436
6.060000	889.709373
6.070000	803.337812
6.080000	728.617564
6.090000	667.304278
6.100000	610.111903
6.110000	562.259461
6.120000	539.583348
6.130000	526.408433
6.140000	496.304648
6.150000	456.595227
6.160000	424.330163
6.170000	415.054436
6.180000	402.516475
6.190000	389.869041
6.200000	372.287886
6.210000	330.917822
6.220000	241.315696
6.230000	105.978042
6.240000	-35.618448
6.250000	-153.051100
6.260000	-241.020392
6.270000	-301.165736
6.280000	-341.841519
6.290000	-373.354108
6.300000	-396.037933
6.310000	-410.948100
6.320000	-427.328107
6.330000	-447.261322
6.340000	-464.334799
6.350000	-477.329620
6.360000	-497.784961
6.370000	-528.449820
6.380000	-562.953733
6.390000	-599.660958
6.400000	-631.519838
6.410000	-652.621713
6.420000	-666.526024
6.430000	-666.636246
6.440000	-651.295039
6.450000	-621.742254
6.460000	-604.217151
6.470000	-599.864685
6.480000	-588.166018
6.490000	-547.404319
6.500000	-488.960518
6.510000	-428.711929
6.520000	-377.831951
6.530000	-329.728155
6.540000	-285.148512
6.550000	-249.850659
6.560000	-214.851323
6.570000	-167.056158
6.580000	-112.033893
6.590000	-74.075792
6.600000	-61.603132
6.610000	-51.439776
6.620000	-38.654495
6.630000	-66.034378
6.640000	-145.722122
6.650000	-268.672092
6.660000	-400.488973
6.670000	-520.116165
6.680000	-603.016863
6.690000	-623.328063
6.700000	-592.085096
6.710000	-544.713480
6.720000	-515.256925
6.730000	-501.440725
6.740000	-473.127992
6.750000	-422.673025
6.760000	-355.479028
6.770000	-307.434026
6.780000	-291.880620
6.790000	-310.609951
6.800000	-333.976691
6.810000	-336.579187
6.820000	-307.561868
6.830000	-281.122150
6.840000	-268.534901
6.850000	-270.755077
6.860000	-278.264970
6.870000	-296.214913
6.880000	-327.777050
6.890000	-359.751379
6.900000	-394.454162
6.910000	-426.389620
6.920000	-463.960157
6.930000	-495.764993
6.940000	-558.724534
6.950000	-661.522614
6.960000	-781.195928
6.970000	-853.294359
6.980000	-850.899270
6.990000	-806.024287
7.000000	-755.078458
7.010000	-704.803952
7.020000	-635.316508
7.030000	-569.166264
7.040000	-527.016237
7.050000	-525.652218
7.060000	-569.817942
7.070000	-643.884688
7.080000	-759.497778
7.090000	-875.108358
7.100000	-961.683369
7.110000	-1022.893970
7.120000	-1065.015629
7.130000	-1103.177478
7.140000	-1110.707379
7.150000	-1095.029647
7.160000	-1067.886709
7.170000	-1037.682401
7.180000	-1015.550653
7.190000	-978.719834
7.200000	-924.748920
7.210000	-862.935332
7.220000	-809.780133
7.230000	-733.498700
7.240000	-603.295208
7.250000	-438.347792
7.260000	-277.012071
7.270000	-173.389891
7.280000	-145.112499
7.290000	-169.806488
7.300000	-181.912660
7.310000	-137.434625
7.320000	-39.662316
7.330000	73.689097
7.340000	176.465559
7.350000	248.674887
7.360000	300.520877
7.370000	348.856142
7.380000	406.073847
7.390000	481.872592
7.400000	567.752120
7.410000	655.063275
7.420000	713.210778
7.430000	736.161432
7.440000	739.568356
7.450000	736.090061
7.460000	735.756750
7.470000	720.445398
7.480000	671.112643
7.490000	577.661323
7.500000	456.376331
7.510000	355.466246
7.520000	299.743053
7.530000	270.651994
7.540000	242.923908
7.550000	218.745028
7.560000	214.976248
7.570000	237.638772
7.580000	270.129562
7.590000	307.393309
7.600000	329.737715
7.610000	332.015464
7.620000	319.534879
7.630000	308.828029
7.640000	304.792293
7.650000	311.463053
7.660000	305.465200
7.670000	270.607869
7.680000	215.361848
7.690000	186.346081
7.700000	213.366884
7.710000	279.777212
7.720000	353.816857
7.730000	407.036490
7.740000	433.146017
7.750000	446.503407
7.760000	470.650595
7.770000	510.735929
7.780000	567.291213
7.790000	622.399089
7.800000	648.051348
7.810000	606.515358
7.820000	523.464697
7.830000	444.163743
7.840000	413.354160
7.850000	405.763282
7.860000	410.425606
7.870000	395.447257
7.880000	344.012946
7.890000	240.942763
7.900000	99.818881
7.910000	-50.714876
7.920000	-185.246019
7.930000	-271.884129
7.940000	-305.915748
7.950000	-288.935004
7.960000	-277.936046
7.970000	-298.097679
7.980000	-356.105507
7.990000	-387.599284
8.000000	-362.570818
8.010000	-295.425139
8.020000	-208.260291
8.030000	-107.077244
8.040000	-0.160592
8.050000	73.982324
8.060000	115.840135
8.070000	133.522654
8.080000	155.021204
8.090000	150.027837
8.100000	101.362545
8.110000	33.771626
8.120000	-5.444812
8.130000	24.285529
8.140000	108.384184
8.150000	226.905087
8.160000	347.298195
8.170000	452.686560
8.180000	536.023974
8.190000	607.967321
8.200000	679.533971
8.210000	746.990020
8.220000	808.497515
8.230000	860.121181
8.240000	899.244785
8.250000	936.401101
8.260000	968.733793
8.270000	1008.165989
8.280000	1056.304700
8.290000	1102.673775
8.300000	1108.573352
8.310000	1062.029399
8.320000	974.346205
8.330000	883.564549
8.340000	805.496582
8.350000	749.185496
8.360000	724.419201
8.370000	715.505792
8.380000	721.149822
8.390000	724.551091
8.400000	726.696004
8.410000	728.695892
8.420000	744.709627
8.430000	762.866580
8.440000	770.484169
8.450000	763.489830
8.460000	753.061939
8.470000	749.872118
8.480000	748.688878
8.490000	756.379563
8.500000	772.052175
8.510000	794.643277
8.520000	821.834496
8.530000	843.640799
8.540000	853.379808
8.550000	838.040577
8.560000	793.367852
8.570000	737.252237
8.580000	672.397609
8.590000	620.933038
8.600000	589.466216
8.610000	568.650521
8.620000	510.842491
8.630000	400.200550
8.640000	279.791439
8.650000	190.487770
8.660000	131.367817
8.670000	73.104865
8.680000	32.477720
8.690000	12.088918
8.700000	12.654003
8.710000	0.382091
8.720000	-50.411223
8.730000	-152.554198
8.740000	-293.004498
8.750000	-428.006235
8.760000	-516.539726
8.770000	-573.547410
8.780000	-629.387055
8.790000	-686.282065
8.800000	-722.774413
8.810000	-733.667438
8.820000	-762.569521
8.830000	-800.850680
8.840000	-827.606564
8.850000	-843.035160
8.860000	-873.325901
8.870000	-918.091841
8.880000	-938.552600
8.890000	-944.228275
8.900000	-966.788163
8.910000	-1006.895176
8.920000	-1022.523034
8.930000	-1006.943169
8.940000	-994.990455
8.950000	-995.539162
8.960000	-994.682175
8.970000	-982.433691
8.980000	-962.366459
8.990000	-923.578004
9.000000	-868.377447
9.010000	-828.093310
9.020000	-817.301246
9.030000	-813.132123
9.040000	-816.250220
9.050000	-852.200662
9.060000	-929.782100
9.070000	-991.717460
9.080000	-1000.665979
9.090000	-975.018733
9.100000	-970.618281
9.110000	-1012.869451
9.120000	-1063.696751
9.130000	-1096.720284
9.140000	-1095.772057
9.150000	-1072.951670
9.160000	-1061.208328
9.170000	-1093.153271
9.180000	-1170.865989
9.190000	-1270.589923
9.200000	-1358.469348
9.210000	-1436.098127
9.220000	-1478.975965
9.230000	-1453.557148
9.240000	-1357.544797
9.250000	-1249.159488
9.260000	-1188.429737
9.270000	-1171.565053
9.280000	-1171.897709
9.290000	-1194.370654
9.300000	-1232.648596
9.310000	-1264.447010
9.320000	-1272.060615
9.330000	-1263.242497
9.340000	-1251.471547
9.350000	-1244.004719
9.360000	-1264.578862
9.370000	-1297.309860
9.380000	-1318.985071
9.390000	-1320.306181
9.400000	-1311.765865
9.410000	-1284.570347
9.420000	-1231.204903
9.430000	-1137.137211
9.440000	-1032.088024
9.450000	-940.345583
9.460000	-886.629310
9.470000	-854.765832
9.480000	-823.147067
9.490000	-795.581153
9.500000	-758.944110
9.510000	-711.086263
9.520000	-637.367011
9.530000	-548.321198
9.540000	-449.437239
9.550000	-351.231634
9.560000	-262.164010
9.570000	-179.440520
9.580000	-105.234277
9.590000	-47.997001
9.600000	-31.343702
9.610000	-72.534027
9.620000	-152.017185
9.630000	-239.707773
9.640000	-293.657563
9.650000	-316.336819
9.660000	-308.293118
9.670000	-285.676328
9.680000	-261.922649
9.690000	-247.008248
9.700000	-230.832766
9.710000	-208.022691
9.720000	-189.457543
9.730000	-182.030014
9.740000	-194.090630
9.750000	-205.630895
9.760000	-220.461059
9.770000	-221.513493
9.780000	-217.909614
9.790000	-206.034442
9.800000	-187.045078
9.810000	-164.569781
9.820000	-145.530991
9.830000	-132.769106
9.840000	-119.332337
9.850000	-110.678641
9.860000	-112.143265
9.870000	-124.920515
9.880000	-133.920308
9.890000	-129.187794
9.900000	-109.399482
9.910000	-81.155718
9.920000	-63.258176
9.930000	-60.097192
9.940000	-72.119624
9.950000	-91.697194
9.960000	-129.713078
9.970000	-181.268801
9.980000	-214.915681
9.990000	-211.222608
10.000000	-196.259567
10.010000	-209.563496
10.020000	-260.872150
10.030000	-348.891743
10.040000	-445.428957
10.050000	-541.959229
10.060000	-602.596272
10.070000	-639.177223
10.080000	-650.079823
10.090000	-632.412032
10.100000	-606.314031
10.110000	-570.275199
10.120000	-560.005380
10.130000	-560.019752
10.140000	-562.740857
10.150000	-558.447905
10.160000	-558.223365
10.170000	-594.959591
10.180000	-669.642269
10.190000	-764.109781
10.200000	-854.737655
10.210000	-960.067657
10.220000	-1081.143907
10.230000	-1205.347309
10.240000	-1297.848831
10.250000	-1358.415353
10.260000	-1390.256942
10.270000	-1394.170850
10.280000	-1395.760942
10.290000	-1413.936047
10.300000	-1445.566156
10.310000	-1470.015224
10.320000	-1487.123310
10.330000	-1506.149603
10.340000	-1529.691788
10.350000	-1567.667319
10.360000	-1641.655801
10.370000	-1738.787515
10.380000	-1827.933678
10.390000	-1878.272808
10.400000	-1920.411421
10.410000	-1992.142541
10.420000	-2079.779344
10.430000	-2144.976314
10.440000	-2153.858161
10.450000	-2121.643714
10.460000	-2089.707759
10.470000	-2083.633490
10.480000	-2112.210444
10.490000	-2172.958309
10.500000	-2260.738593
10.510000	-2371.318469
10.520000	-2464.200068
10.530000	-2518.766225
10.540000	-2535.753231
10.550000	-2526.609809
10.560000	-2512.700048
10.570000	-2494.094664
10.580000	-2474.356196
10.590000	-2459.619626
10.600000	-2452.702896
10.610000	-2460.856363
10.620000	-2483.393989
10.630000	-2504.751668
10.640000	-2522.821363
10.650000	-2529.997742
10.660000	-2547.025665
10.670000	-2567.200664
10.680000	-2573.567214
10.690000	-2561.803502
10.700000	-2533.489990
10.710000	-2500.465980
10.720000	-2462.410595
10.730000	-2428.518906
10.740000	-2398.669659
10.750000	-2369.927870
10.760000	-2347.314043
10.770000	-2328.680305
10.780000	-2310.985474
10.790000	-2286.114631
10.800000	-2257.718024
10.810000	-2234.257274
10.820000	-2210.106600
10.830000	-2190.123029
10.840000	-2168.158860
10.850000	-2154.059529
10.860000	-2137.515475
10.870000	-2116.377701
10.880000	-2092.909668
10.890000	-2082.757610
10.900000	-2144.446119
10.910000	-2293.376394
10.920000	-2491.860219
10.930000	-2672.269209
10.940000	-2787.686923
10.950000	-2843.327025
10.960000	-2840.189964
10.970000	-2796.452663
10.980000	-2744.084253
10.990000	-2707.577168
11.000000	-2705.982350
11.010000	-2720.950371
11.020000	-2732.225950
11.030000	-2738.726271
11.040000	-2762.214954
11.050000	-2803.125508
11.060000	-2858.542599
11.070000	-2915.845156
11.080000	-2967.229759
11.090000	-3001.567820
11.100000	-2997.232745
11.110000	-2974.081573
11.120000	-2930.854025
11.130000	-2888.665534
11.140000	-2859.123712
11.150000	-2847.238313
11.160000	-2846.367406
11.170000	-2836.445951
11.180000	-2823.687366
11.190000	-2797.945095
11.200000	-2765.721825
11.210000	-2719.072305
11.220000	-2664.128326
11.230000	-2600.848215
11.240000	-2532.207699
11.250000	-2475.660720
11.260000	-2430.232178
11.270000	-2396.806269
11.280000	-2369.899302
11.290000	-2349.291926
11.300000	-2334.557005
11.310000	-2323.763421
11.320000	-2302.168293
11.330000	-2275.946597
11.340000	-2265.805833
11.350000	-2307.823755
11.360000	-2406.005796
11.370000	-2527.582484
11.380000	-2643.196426
11.390000	-2729.337271
11.400000	-2788.436992
11.410000	-2819.058787
11.420000	-2829.680799
11.430000	-2834.102898
11.440000	-2833.864195
11.450000	-2832.791824
11.460000	-2826.662595
11.470000	-2834.847902
11.480000	-2856.372674
11.490000	-2888.531988
11.500000	-2922.363505
11.510000	-2951.185439
11.520000	-2969.987171
11.530000	-2968.451017
11.540000	-2952.279983
11.550000	-2928.009112
11.560000	-2888.156264
11.570000	-2815.494129
11.580000	-2727.413014
11.590000	-2640.260017
11.600000	-2578.641182
11.610000	-2523.854006
11.620000	-2480.879748
11.630000	-2440.017967
11.640000	-2402.757609
11.650000	-2368.783786
11.660000	-2332.893760
11.670000	-2293.496128
11.680000	-2248.964625
11.690000	-2214.521077
11.700000	-2191.261202
11.710000	-2176.799137
11.720000	-2161.465261
11.730000	-2142.020483
11.740000	-2108.240548
11.750000	-2071.890745
11.760000	-2039.254059
11.770000	-2028.043765
11.780000	-2029.444139
11.790000	-2037.451999
11.800000	-2046.881997
11.810000	-2056.447839
11.820000	-2063.557852
11.830000	-2062.340924
11.840000	-2058.837334
11.850000	-2057.465112
11.860000	-2069.034565
11.870000	-2088.777993
11.880000	-2107.114664
11.890000	-2121.002849
11.900000	-2127.420079
11.910000	-2121.779909
11.920000	-2066.856902
11.930000	-1955.859486
11.940000	-1816.939826
11.950000	-1675.145178
11.960000	-1564.593478
11.970000	-1476.857657
11.980000	-1424.847187
11.990000	-1377.655721
12.000000	-1325.028009
12.010000	-1276.710234
12.020000	-1256.446570
12.030000	-1258.881887
12.040000	-1247.975677
12.050000	-1218.998788
12.060000	-1184.743237
12.070000	-1185.713203
12.080000	-1204.537637
12.090000	-1221.939241
12.100000	-1213.833409
12.110000	-1194.449461
12.120000	-1179.977887
12.130000	-1172.094162
12.140000	-1164.940374
12.150000	-1157.923035
12.160000	-1143.049926
12.170000	-1115.926841
12.180000	-1094.048973
12.190000	-1085.732461
12.200000	-1095.194766
12.210000	-1121.011559
12.220000	-1165.504116
12.230000	-1214.061711
12.240000	-1257.978192
12.250000	-1298.953227
12.260000	-1339.932742
12.270000	-1381.312384
12.280000	-1416.339891
12.290000	-1451.176817
12.300000	-1469.485954
12.310000	-1483.250636
12.320000	-1510.110036
12.330000	-1560.096924
12.340000	-1615.114417
12.350000	-1648.708673
12.360000	-1670.670942
12.370000	-1681.077169
12.380000	-1675.997388
12.390000	-1642.198519
12.400000	-1572.783780
12.410000	-1446.721050
12.420000	-1251.698246
12.430000	-985.372527
12.440000	-685.154229
12.450000	-377.423466
12.460000	-89.372954
12.470000	152.770321
12.480000	348.389991
12.490000	501.557566
12.500000	637.126517
12.510000	772.911232
12.520000	913.414818
12.530000	1047.813716
12.540000	1140.227787
12.550000	1178.711326
12.560000	1164.676059
12.570000	1100.546220
12.580000	924.885985
12.590000	642.836898
12.600000	300.149572
12.610000	-29.183536
12.620000	-268.632694
12.630000	-399.747120
12.640000	-416.162601
12.650000	-434.694279
12.660000	-518.922354
12.670000	-675.859602
12.680000	-838.850772
12.690000	-970.139431
12.700000	-1087.631330
12.710000	-1198.419610
12.720000	-1300.079913
12.730000	-1359.306580
12.740000	-1376.309593
12.750000	-1378.955983
12.760000	-1397.897478
12.770000	-1472.644351
12.780000	-1617.093718
12.790000	-1786.848708
12.800000	-1920.249357
12.810000	-1968.759964
12.820000	-1959.948906
12.830000	-1951.419281
12.840000	-1965.547942
12.850000	-1991.313767
12.860000	-1997.081240
12.870000	-1972.254223
12.880000	-1930.667110
12.890000	-1886.177492
12.900000	-1840.533069
12.910000	-1782.709618
12.920000	-1716.413999
12.930000	-1658.917406
12.940000	-1615.230212
12.950000	-1576.720559
12.960000	-1538.353002
12.970000	-1513.869172
12.980000	-1494.037092
12.990000	-1470.307894
13.000000	-1451.721549
13.010000	-1441.011836
13.020000	-1419.627225
13.030000	-1385.036593
13.040000	-1351.519676
13.050000	-1329.989819
13.060000	-1316.974101
13.070000	-1305.532105
13.080000	-1317.436393
13.090000	-1341.911078
13.100000	-1371.497620
13.110000	-1405.562350
13.120000	-1441.470625
13.130000	-1486.822720
13.140000	-1516.264477
13.150000	-1538.752381
13.160000	-1558.951951
13.170000	-1597.628679
13.180000	-1648.464454
13.190000	-1702.393838
13.200000	-1771.261108
13.210000	-1855.350939
13.220000	-1953.608068
13.230000	-2038.118538
13.240000	-2109.581485
13.250000	-2162.747928
13.260000	-2202.791903
13.270000	-2229.233728
13.280000	-2255.910468
13.290000	-2279.872453
13.300000	-2315.271892
13.310000	-2376.705129
13.320000	-2477.820274
13.330000	-2624.369161
13.340000	-2852.969943
13.350000	-3217.928402
13.360000	-3640.597844
13.370000	-3977.817261
13.380000	-4170.627218
13.390000	-4266.832939
13.400000	-4332.202860
13.410000	-4338.417116
13.420000	-4285.680399
13.430000	-4224.292372
13.440000	-4193.945535
13.450000	-4199.552049
13.460000	-4194.211505
13.470000	-4179.417616
13.480000	-4217.447195
13.490000	-4321.614590
13.500000	-4469.714300
13.510000	-4587.460555
13.520000	-4660.601357
13.530000	-4700.494928
13.540000	-4721.611338
13.550000	-4754.016127
13.560000	-4806.001760
13.570000	-4889.650867
13.580000	-4979.053823
13.590000	-5041.362032
13.600000	-5093.333750
13.610000	-5172.551442
13.620000	-5286.949365
13.630000	-5405.714251
13.640000	-5503.656251
13.650000	-5594.054515
13.660000	-5673.384721
13.670000	-5731.105815
13.680000	-5783.245673
13.690000	-5827.161175
13.700000	-5834.086018
13.710000	-5810.025609
13.720000	-5645.317968
13.730000	-5412.094335
13.740000	-5140.468486
13.750000	-5011.941784
13.760000	-4960.965639
13.770000	-4908.773659
13.780000	-4804.555828
13.790000	-4704.912286
13.800000	-4677.851218
13.810000	-4730.553142
13.820000	-4801.288707
13.830000	-4796.433132
13.840000	-4689.231937
13.850000	-4633.125428
13.860000	-4752.073535
13.870000	-5149.068058
13.880000	-5749.062617
13.890000	-6652.457571
13.900000	-7767.149805
13.910000	-8923.589658
13.920000	-10206.218297
13.930000	-11683.124474
13.940000	-13451.190191
13.950000	-14939.321664
13.960000	-15915.642283
13.970000	-16333.316256
13.980000	-16414.822972
13.990000	-16144.905319
14.000000	-15126.610510
14.010000	-12903.189086
14.020000	-9314.452245
14.030000	-5557.953518
14.040000	-1849.152672
14.050000	1400.290985
14.060000	4326.882022
14.070000	6922.687855
14.080000	8849.920078
14.090000	10440.680608
14.100000	11868.326704
14.110000	13073.610797
14.120000	14226.697464
14.130000	15150.087194
14.140000	16060.992413
14.150000	16719.821261
14.160000	17332.027505
14.170000	17514.461852
14.180000	17440.118526
14.190000	16736.805318
14.200000	15610.669995
14.210000	13835.883099
14.220000	10503.390802
14.230000	6309.646843
14.240000	-1131.094543
14.250000	-4390.273408
14.260000	11129.314150
14.270000	17183.218245
14.280000	16589.788295
14.290000	15559.193729
14.300000	14865.940713
14.310000	14030.956640
14.320000	13432.708675
14.330000	12693.573925
14.340000	12191.486898
14.350000	11597.522112
14.360000	11263.076557
14.370000	10754.928623
14.380000	9747.913393
14.390000	7962.464607
14.400000	5111.475197
14.410000	1919.855067
14.420000	-1762.771995
14.430000	-5123.753689
14.440000	-7557.850953
14.450000	-9005.793913
14.460000	-9098.897315
14.470000	-7780.185127
14.480000	-4864.554844
14.490000	-1868.842210
14.500000	707.187618
14.510000	3167.917580
14.520000	5547.755254
14.530000	8075.084471
14.540000	10196.982679
14.550000	12428.032358
14.560000	14487.389600
14.570000	16315.162588
14.580000	17788.187010
14.590000	18612.933304
14.600000	18891.298051
14.610000	18396.509542
14.620000	17256.122726
14.630000	15265.782084
14.640000	10827.937785
14.650000	4594.743921
14.660000	-948.433917
14.670000	-2918.815346
14.680000	9848.880504
14.690000	15328.838279
14.700000	14437.681677
14.710000	13558.458910
14.720000	13411.546454
14.730000	12710.965229
14.740000	11361.351566
14.750000	8798.667911
14.760000	5139.198678
14.770000	1887.093530
14.780000	-1809.714176
14.790000	-3252.571668
14.800000	-3413.052594
14.810000	-2185.956934
14.820000	-19.937948
14.830000	2914.372548
14.840000	5329.050489
14.850000	7513.359127
14.860000	9353.988064
14.870000	11020.861336
14.880000	12619.378810
14.890000	13999.235024
14.900000	15320.317771
14.910000	16558.606776
14.920000	17820.380358
14.930000	18874.819867
14.940000	19761.955400
14.950000	20416.513520
14.960000	21013.962563
14.970000	21310.159918
14.980000	21309.759172
14.990000	20710.737522
15.000000	19568.979595
15.010000	17754.995046
15.020000	13326.676122
15.030000	657.857529
15.040000	6305.640308
15.050000	20968.800031
15.060000	20982.985479
15.070000	20427.695064
15.080000	19522.092927
15.090000	18834.435939
15.100000	18256.450064
15.110000	17715.381681
15.120000	17217.129892
15.130000	16711.612912
15.140000	16232.478067
15.150000	15765.149098
15.160000	15317.992249
15.170000	14885.749681
15.180000	14470.961722
15.190000	14031.994769
15.200000	13598.558178
15.210000	13178.275341
15.220000	12823.037387
15.230000	12499.080094
15.240000	12202.690095
15.250000	11912.926604
15.260000	11633.163356
15.270000	11359.170623
15.280000	11065.995974
15.290000	10753.563716
15.300000	10421.573127
15.310000	10097.442430
15.320000	9790.173455
15.330000	9482.988298
15.340000	9186.584681
15.350000	8891.210847
15.360000	8634.522983
15.370000	8420.735710
15.380000	8229.117507
15.390000	8027.952328
15.400000	7820.861480
15.410000	7636.955093
15.420000	7465.208392
15.430000	7267.928103
15.440000	7030.325308
15.450000	6773.704230
15.460000	6549.893557
15.470000	6378.422607
15.480000	6237.709947
15.490000	6097.809115
15.500000	5937.237367
15.510000	5772.985716
15.520000	5584.008005
15.530000	5363.880065
15.540000	5108.124772
15.550000	4838.517125
15.560000	4561.533254
15.570000	4291.171675
15.580000	4036.922581
15.590000	3797.787014
15.600000	3611.403971
15.610000	3460.233056
15.620000	3335.220555
15.630000	3196.903733
15.640000	3040.770873
15.650000	2879.254916
15.660000	2721.609299
15.670000	2592.274176
15.680000	2486.657190
15.690000	2411.944479
15.700000	2339.555007
15.710000	2272.646239
15.720000	2191.998423
15.730000	2086.640475
15.740000	1967.100120
15.750000	1833.200609
15.760000	1717.549880
15.770000	1633.294682
15.780000	1582.218516
15.790000	1530.871421
15.800000	1441.116391
15.810000	1307.442547
15.820000	1173.717318
15.830000	1055.833582
15.840000	929.767994
15.850000	809.551149
15.860000	686.307060
15.870000	584.240162
15.880000	484.270444
15.890000	394.543097
15.900000	328.115737
15.910000	253.254025
15.920000	136.817453
15.930000	-78.578753
15.940000	-367.066692
15.950000	-690.864065
15.960000	-970.325185
15.970000	-1185.139074
15.980000	-1348.506513
15.990000	-1463.888850
16.000000	-1549.567447
16.010000	-1616.461349
16.020000	-1715.919734
16.030000	-1873.146370
16.040000	-2052.626936
16.050000	-2185.264838
16.060000	-2234.954423
16.070000	-2247.140945
16.080000	-2290.884388
16.090000	-2412.161887
16.100000	-2583.825681
16.110000	-2752.660661
16.120000	-2864.651444
16.130000	-2920.533706
16.140000	-2961.482712
16.150000	-2994.210385
16.160000	-3001.483675
16.170000	-2977.156797
16.180000	-2959.516424
16.190000	-2962.282602
16.200000	-2979.077938
16.210000	-2972.577784
16.220000	-2936.984146
16.230000	-2883.514846
16.240000	-2837.528028
16.250000	-2804.332684
16.260000	-2777.980485
16.270000	-2751.423967
16.280000	-2725.066825
16.290000	-2704.145543
16.300000	-2684.080140
16.310000	-2674.196149
16.320000	-2658.986305
16.330000	-2660.313984
16.340000	-2671.448705
16.350000	-2696.767265
16.360000	-2709.801478
16.370000	-2697.903728
16.380000	-2670.530300
16.390000	-2639.030832
16.400000	-2628.953644
16.410000	-2629.717628
16.420000	-2637.056640
16.430000	-2626.347520
16.440000	-2594.554619
16.450000	-2555.028110
16.460000	-2522.064209
16.470000	-2497.353056
16.480000	-2480.583902
16.490000	-2466.349541
16.500000	-2454.473419
16.510000	-2441.696255
16.520000	-2439.097572
16.530000	-2449.050853
16.540000	-2466.402708
16.550000	-2501.151901
16.560000	-2560.073653
16.570000	-2621.887034
16.580000	-2655.431738
16.590000	-2658.418855
16.600000	-2641.211730
16.610000	-2604.982337
16.620000	-2553.726115
16.630000	-2504.645114
16.640000	-2472.967803
16.650000	-2445.966849
16.660000	-2411.951080
16.670000	-2358.361263
16.680000	-2291.062996
16.690000	-2223.524215
16.700000	-2163.910950
16.710000	-2115.761318
16.720000	-2065.134004
16.730000	-2021.488701
16.740000	-1988.770808
16.750000	-1976.329362
16.760000	-1992.171891
16.770000	-2049.956356
16.780000	-2150.645089
16.790000	-2267.617399
16.800000	-2368.214320
16.810000	-2430.757350
16.820000	-2454.626256
16.830000	-2451.050815
16.840000	-2432.832898
16.850000	-2412.804157
16.860000	-2399.155980
16.870000	-2395.008797
16.880000	-2399.602991
16.890000	-2398.646868
16.900000	-2385.544400
16.910000	-2364.791312
16.920000	-2349.655110
16.930000	-2338.041392
16.940000	-2326.913664
16.950000	-2315.784827
16.960000	-2303.994004
16.970000	-2290.351634
16.980000	-2254.515774
16.990000	-2212.514900
17.000000	-2164.827252
17.010000	-2124.881990
17.020000	-2085.252189
17.030000	-2049.452350
17.040000	-2020.518158
17.050000	-1992.843771
17.060000	-1966.647356
17.070000	-1940.747674
17.080000	-1923.655244
17.090000	-1898.101909
17.100000	-1866.239994
17.110000	-1827.307372
17.120000	-1795.393798
17.130000	-1769.000633
17.140000	-1749.421559
17.150000	-1740.903957
17.160000	-1747.653473
17.170000	-1773.679986
17.180000	-1810.392985
17.190000	-1851.673962
17.200000	-1884.994992
17.210000	-1906.908572
17.220000	-1911.809018
17.230000	-1903.388907
17.240000	-1882.170082
17.250000	-1856.448558
17.260000	-1826.402350
17.270000	-1798.420963
17.280000	-1779.200000
17.290000	-1772.284759
17.300000	-1775.885199
17.310000	-1778.693431
17.320000	-1776.162119
17.330000	-1773.036235
17.340000	-1771.676548
17.350000	-1764.263907
17.360000	-1744.777504
17.370000	-1714.094191
17.380000	-1686.501028
17.390000	-1658.463323
17.400000	-1634.837444
17.410000	-1609.059638
17.420000	-1578.779342
17.430000	-1544.259057
17.440000	-1514.342744
17.450000	-1492.376641
17.460000	-1468.471714
17.470000	-1431.093605
17.480000	-1382.912232
17.490000	-1332.434428
17.500000	-1289.633221
17.510000	-1249.011147
17.520000	-1200.956565
17.530000	-1154.588225
17.540000	-1125.247835
17.550000	-1124.106592
17.560000	-1145.447366
17.570000	-1188.261101
17.580000	-1250.602759
17.590000	-1319.345212
17.600000	-1374.367801
17.610000	-1414.779529
17.620000	-1448.121918
17.630000	-1474.494504
17.640000	-1492.173968
17.650000	-1500.851469
17.660000	-1508.221261
17.670000	-1514.830547
17.680000	-1519.908481
17.690000	-1529.473615
17.700000	-1551.916009
17.710000	-1583.064419
17.720000	-1612.222954
17.730000	-1626.301073
17.740000	-1614.189515
17.750000	-1587.589624
17.760000	-1558.146894
17.770000	-1553.915932
17.780000	-1579.367227
17.790000	-1612.833211
17.800000	-1632.919425
17.810000	-1633.458437
17.820000	-1619.169316
17.830000	-1600.769588
17.840000	-1597.446903
17.850000	-1617.055681
17.860000	-1639.321594
17.870000	-1644.017884
17.880000	-1623.909555
17.890000	-1588.371558
17.900000	-1550.856152
17.910000	-1513.041909
17.920000	-1470.469806
17.930000	-1414.720187
17.940000	-1365.514438
17.950000	-1340.080173
17.960000	-1350.568548
17.970000	-1402.112494
17.980000	-1495.637558
17.990000	-1602.090434
18.000000	-1701.093184
18.010000	-1796.833454
18.020000	-1894.584207
18.030000	-1981.560758
18.040000	-2028.064110
18.050000	-2034.407271
18.060000	-2017.628158
18.070000	-1992.620855
18.080000	-1970.556344
18.090000	-1962.209107
18.100000	-1984.879591
18.110000	-2036.121628
18.120000	-2095.533382
18.130000	-2153.110577
18.140000	-2210.267735
18.150000	-2263.135530
18.160000	-2294.684431
18.170000	-2300.916052
18.180000	-2306.233519
18.190000	-2325.392391
18.200000	-2348.438303
18.210000	-2365.928263
18.220000	-2377.728001
18.230000	-2387.535211
18.240000	-2389.386236
18.250000	-2386.898054
18.260000	-2392.800241
18.270000	-2406.623195
18.280000	-2419.256861
18.290000	-2438.127885
18.300000	-2452.732797
18.310000	-2466.741150
18.320000	-2464.225625
18.330000	-2463.186034
18.340000	-2463.073651
18.350000	-2456.017975
18.360000	-2449.371662
18.370000	-2441.233666
18.380000	-2437.100134
18.390000	-2444.532804
18.400000	-2480.265852
18.410000	-2550.883716
18.420000	-2644.127048
18.430000	-2745.977933
18.440000	-2844.409400
18.450000	-2918.129925
18.460000	-2955.468915
18.470000	-2957.401556
18.480000	-2929.961377
18.490000	-2864.051482
18.500000	-2743.856017
18.510000	-2554.792855
18.520000	-2309.581109
18.530000	-2042.014973
18.540000	-1816.146210
18.550000	-1653.210427
18.560000	-1569.455899
18.570000	-1547.071291
18.580000	-1570.197233
18.590000	-1595.617286
18.600000	-1585.046355
18.610000	-1566.774342
18.620000	-1562.639922
18.630000	-1564.946386
18.640000	-1544.270526
18.650000	-1499.292922
18.660000	-1438.358893
18.670000	-1365.058188
18.680000	-1283.213590
18.690000	-1205.948577
18.700000	-1133.800509
18.710000	-1060.922092
18.720000	-984.162693
18.730000	-908.352577
18.740000	-838.962204
18.750000	-793.585773
18.760000	-775.492286
18.770000	-776.892346
18.780000	-763.052610
18.790000	-717.687657
18.800000	-647.113564
18.810000	-581.654609
18.820000	-553.285229
18.830000	-557.628369
18.840000	-591.567473
18.850000	-629.648360
18.860000	-670.356849
18.870000	-713.112752
18.880000	-752.909689
18.890000	-782.346638
18.900000	-797.916408
18.910000	-801.371927
18.920000	-789.018890
18.930000	-758.846330
18.940000	-722.269832
18.950000	-694.108751
18.960000	-671.919110
18.970000	-646.465348
18.980000	-614.698618
18.990000	-581.290122
19.000000	-552.596795
19.010000	-531.553266
19.020000	-515.260443
19.030000	-489.567386
19.040000	-457.754232
19.050000	-442.082955
19.060000	-453.667094
19.070000	-471.293137
19.080000	-469.017406
19.090000	-446.023143
19.100000	-413.852840
19.110000	-376.183087
19.120000	-326.779624
19.130000	-270.158152
19.140000	-204.474894
19.150000	-143.295180
19.160000	-98.619192
19.170000	-70.185543
19.180000	-59.890111
19.190000	-45.798166
19.200000	-32.689132
19.210000	-11.828750
19.220000	9.679589
19.230000	26.356016
19.240000	29.917820
19.250000	12.084315
19.260000	-28.281149
19.270000	-84.957682
19.280000	-153.943732
19.290000	-232.126655
19.300000	-302.693570
19.310000	-353.767749
19.320000	-367.552723
19.330000	-368.651214
19.340000	-371.175993
19.350000	-372.281368
19.360000	-354.887103
19.370000	-321.759972
19.380000	-288.093282
19.390000	-271.372808
19.400000	-277.395621
19.410000	-302.087121
19.420000	-327.121066
19.430000	-333.595759
19.440000	-322.029408
19.450000	-302.594124
19.460000	-281.055845
19.470000	-261.718987
19.480000	-236.512449
19.490000	-203.993190
19.500000	-176.805859
19.510000	-159.710826
19.520000	-144.863377
19.530000	-127.569484
19.540000	-108.067114
19.550000	-98.594078
19.560000	-91.014842
19.570000	-83.101816
19.580000	-71.760742
19.590000	-49.732300
19.600000	-20.671105
19.610000	20.192230
19.620000	69.594714
19.630000	119.301047
19.640000	161.392379
19.650000	185.600756
19.660000	184.060350
19.670000	147.092223
19.680000	74.283539
19.690000	-5.807274
19.700000	-72.652838
19.710000	-116.206705
19.720000	-143.774994
19.730000	-157.731012
19.740000	-154.686722
19.750000	-138.748269
19.760000	-115.074010
19.770000	-88.236890
19.780000	-67.280182
19.790000	-73.232001
19.800000	-127.294037
19.810000	-211.593966
19.820000	-324.827871
19.830000	-465.764232
19.840000	-625.148067
19.850000	-761.655111
19.860000	-831.269855
19.870000	-848.850296
19.880000	-838.225839
19.890000	-820.848785
19.900000	-794.928090
19.910000	-754.312338
19.920000	-699.459129
19.930000	-639.610913
19.940000	-603.855822
19.950000	-591.639468
19.960000	-588.358904
19.970000	-569.786804
19.980000	-529.055115
19.990000	-492.838620
20.000000	-465.836885
20.010000	-457.382636
20.020000	-452.698801
20.030000	-447.769460
20.040000	-445.392903
20.050000	-430.922055
20.060000	-401.600227
20.070000	-372.938931
20.080000	-361.959343
20.090000	-363.041472
20.100000	-386.176055
20.110000	-449.648380
20.120000	-551.485576
20.130000	-651.632671
20.140000	-739.692055
20.150000	-814.792148
20.160000	-867.357168
20.170000	-883.088041
20.180000	-886.612091
20.190000	-896.517076
20.200000	-896.587987
20.210000	-880.790794
20.220000	-845.721313
20.230000	-832.670960
20.240000	-830.193620
20.250000	-843.079686
20.260000	-858.769036
20.270000	-876.003676
20.280000	-891.824123
20.290000	-890.042460
20.300000	-874.752818
20.310000	-835.526027
20.320000	-781.553508
20.330000	-699.432405
20.340000	-610.601515
20.350000	-526.797171
20.360000	-461.138438
20.370000	-413.611060
20.380000	-369.787706
20.390000	-330.284937
20.400000	-310.964248
20.410000	-318.084572
20.420000	-333.225200
20.430000	-328.343367
20.440000	-287.003679
20.450000	-238.881178
20.460000	-207.250336
20.470000	-201.199168
20.480000	-201.906198
20.490000	-179.305517
20.500000	-154.856201
20.510000	-149.897543
20.520000	-179.942922
20.530000	-224.543559
20.540000	-263.182261
20.550000	-311.107324
20.560000	-371.541462
20.570000	-436.459793
20.580000	-467.971603
20.590000	-460.721292
20.600000	-432.952930
20.610000	-400.128215
20.620000	-384.439170
20.630000	-382.952581
20.640000	-391.742489
20.650000	-399.910956
20.660000	-403.551519
20.670000	-410.053547
20.680000	-418.490913
20.690000	-435.369764
20.700000	-458.559806
20.710000	-472.468896
20.720000	-459.777179
20.730000	-429.794393
20.740000	-412.203729
20.750000	-412.205860
20.760000	-414.727799
20.770000	-392.737673
20.780000	-361.187024
20.790000	-325.730444
20.800000	-283.776741
20.810000	-243.907018
20.820000	-221.204076
20.830000	-225.221475
20.840000	-227.012041
20.850000	-207.048148
20.860000	-159.677765
20.870000	-103.427515
20.880000	-41.454192
20.890000	24.377115
20.900000	104.984974
20.910000	180.611340
20.920000	223.582952
20.930000	205.691346
20.940000	128.443162
20.950000	20.025281
20.960000	-92.853340
20.970000	-179.114741
20.980000	-215.991930
20.990000	-218.511129
21.000000	-223.342500
21.010000	-241.322397
21.020000	-251.090439
21.030000	-222.261308
21.040000	-167.107937
21.050000	-111.055367
21.060000	-73.929041
21.070000	-61.630127
21.080000	-65.863390
21.090000	-75.014632
21.100000	-76.279958
21.110000	-84.627526
21.120000	-106.157570
21.130000	-130.012536
21.140000	-126.134427
21.150000	-91.958326
21.160000	-72.727818
21.170000	-67.930288
21.180000	-69.786381
21.190000	-54.342910
21.200000	-48.469568
21.210000	-60.857258
21.220000	-67.213772
21.230000	-50.208952
21.240000	8.894381
21.250000	100.877779
21.260000	217.186279
21.270000	299.342702
21.280000	323.087514
21.290000	309.447409
21.300000	299.225181
21.310000	287.608991
21.320000	269.544382
21.330000	222.905928
21.340000	117.690894
21.350000	-43.859593
21.360000	-225.887912
21.370000	-371.050379
21.380000	-500.165640
21.390000	-614.337892
21.400000	-703.563695
21.410000	-739.726447
21.420000	-736.226526
21.430000	-705.262398
21.440000	-656.366008
21.450000	-614.658416
21.460000	-613.010629
21.470000	-645.765732
21.480000	-672.376469
21.490000	-666.395414
21.500000	-631.976585
21.510000	-592.561547
21.520000	-568.050362
21.530000	-568.183073
21.540000	-567.510693
21.550000	-547.306165
21.560000	-504.497023
21.570000	-479.364560
21.580000	-466.841585
21.590000	-458.897491
21.600000	-432.627856
21.610000	-404.019681
21.620000	-395.915275
21.630000	-398.868719
21.640000	-393.992164
21.650000	-361.196399
21.660000	-309.296919
21.670000	-266.057799
21.680000	-258.414272
21.690000	-282.983998
21.700000	-334.006356
21.710000	-392.354609
21.720000	-446.433438
21.730000	-478.856815
21.740000	-482.034777
21.750000	-488.616744
21.760000	-527.105109
21.770000	-608.809678
21.780000	-721.925353
21.790000	-831.752968
21.800000	-918.599884
21.810000	-961.839926
21.820000	-958.134618
21.830000	-912.428841
21.840000	-854.215795
21.850000	-808.818461
21.860000	-772.362071
21.870000	-728.652666
21.880000	-671.346947
21.890000	-638.085675
21.900000	-654.777378
21.910000	-708.556408
21.920000	-761.616636
21.930000	-776.839460
21.940000	-747.683403
21.950000	-691.665208
21.960000	-633.914118
21.970000	-593.951678
21.980000	-581.259795
21.990000	-587.665269
22.000000	-590.708249
22.010000	-585.903312
22.020000	-587.349228
22.030000	-609.282942
22.040000	-642.065561
22.050000	-650.733668
22.060000	-629.669527
22.070000	-575.664422
22.080000	-526.191683
22.090000	-510.378409
22.100000	-527.771786
22.110000	-539.458985
22.120000	-517.520665
22.130000	-492.839337
22.140000	-496.073556
22.150000	-521.590989
22.160000	-532.678404
22.170000	-536.934684
22.180000	-573.840830
22.190000	-670.714653
22.200000	-790.963736
22.210000	-898.297797
22.220000	-974.270991
22.230000	-1026.420632
22.240000	-1047.338507
22.250000	-1035.360195
22.260000	-993.218691
22.270000	-925.772483
22.280000	-832.884999
22.290000	-715.988543
22.300000	-588.382977
22.310000	-465.342039
22.320000	-378.724793
22.330000	-340.104371
22.340000	-337.465972
22.350000	-334.263065
22.360000	-335.116887
22.370000	-348.896349
22.380000	-374.202109
22.390000	-389.603376
22.400000	-384.111021
22.410000	-375.517378
22.420000	-370.115854
22.430000	-375.227950
22.440000	-381.534968
22.450000	-384.076716
22.460000	-370.726860
22.470000	-338.409031
22.480000	-286.717676
22.490000	-218.875796
22.500000	-154.878603
22.510000	-108.783188
22.520000	-80.791302
22.530000	-54.099924
22.540000	-24.193352
22.550000	12.793060
22.560000	55.936737
22.570000	110.916577
22.580000	173.586019
22.590000	233.903861
22.600000	276.434221
22.610000	288.446089
22.620000	271.870650
22.630000	223.188409
22.640000	139.524351
22.650000	41.878911
22.660000	-30.555606
22.670000	-56.930825
22.680000	-61.542308
22.690000	-65.514169
22.700000	-70.591000
22.710000	-77.877202
22.720000	-89.089049
22.730000	-114.711560
22.740000	-139.630259
22.750000	-153.338273
22.760000	-155.645733
22.770000	-147.413360
22.780000	-154.508271
22.790000	-173.853558
22.800000	-187.106379
22.810000	-185.430255
22.820000	-162.153711
22.830000	-143.874496
22.840000	-122.214033
22.850000	-110.152673
22.860000	-103.669150
22.870000	-101.546261
22.880000	-130.641970
22.890000	-192.309943
22.900000	-254.964009
22.910000	-274.812673
22.920000	-249.839573
22.930000	-212.849374
22.940000	-180.776089
22.950000	-140.240234
22.960000	-97.536934
22.970000	-44.695075
22.980000	3.871368
22.990000	45.112387
23.000000	77.181194
23.010000	101.494160
23.020000	115.378934
23.030000	97.390644
23.040000	35.168355
23.050000	-80.470283
23.060000	-209.338978
23.070000	-315.775525
23.080000	-375.642726
23.090000	-397.267566
23.100000	-395.394606
23.110000	-376.166019
23.120000	-358.945704
23.130000	-366.502926
23.140000	-399.197214
23.150000	-432.198802
23.160000	-453.244248
23.170000	-469.709148
23.180000	-512.114901
23.190000	-578.890913
23.200000	-643.342289
23.210000	-690.195966
23.220000	-725.720264
23.230000	-755.590311
23.240000	-771.483544
23.250000	-764.406057
23.260000	-728.010159
23.270000	-660.991202
23.280000	-546.916917
23.290000	-378.355568
23.300000	-189.023996
23.310000	-39.547276
23.320000	32.846953
23.330000	58.360518
23.340000	78.664242
23.350000	118.136193
23.360000	184.017043
23.370000	283.160589
23.380000	395.546350
23.390000	501.770867
23.400000	594.025557
23.410000	649.257860
23.420000	667.487244
23.430000	641.979270
23.440000	565.868725
23.450000	441.981299
23.460000	298.908822
23.470000	181.282405
23.480000	96.769592
23.490000	50.164985
23.500000	51.568134
23.510000	97.600920
23.520000	164.234162
23.530000	235.985033
23.540000	314.539218
23.550000	383.578737
23.560000	439.806239
23.570000	482.773633
23.580000	521.025150
23.590000	552.868094
23.600000	575.168272
23.610000	600.267049
23.620000	628.206751
23.630000	653.914902
23.640000	676.520188
23.650000	697.165510
23.660000	720.775033
23.670000	750.342300
23.680000	782.611321
23.690000	816.457338
23.700000	847.036905
23.710000	882.875713
23.720000	921.699882
23.730000	960.225469
23.740000	998.640310
23.750000	1038.179773
23.760000	1073.832334
23.770000	1107.756264
23.780000	1138.951916
23.790000	1169.611483
23.800000	1193.652454
23.810000	1218.441038
23.820000	1247.279603
23.830000	1270.840712
23.840000	1272.826108
23.850000	1233.837390
23.860000	1158.377455
23.870000	1069.156944
23.880000	992.211129
23.890000	941.717446
23.900000	917.278605
23.910000	903.176677
23.920000	903.675405
23.930000	907.534732
23.940000	923.067607
23.950000	941.454381
23.960000	957.746038
23.970000	971.996978
23.980000	975.008527
23.990000	967.175659
24.000000	949.883727
24.010000	930.648086
24.020000	920.712989
24.030000	918.696558
24.040000	927.498300
24.050000	938.992599
24.060000	952.916612
24.070000	965.223199
24.080000	977.294999
24.090000	995.412617
24.100000	1016.259256
24.110000	1039.890386
24.120000	1062.826409
24.130000	1087.330044
24.140000	1111.996446
24.150000	1139.059486
24.160000	1161.420800
24.170000	1184.102316
24.180000	1203.434861
24.190000	1228.126189
24.200000	1255.364461
24.210000	1284.770713
24.220000	1311.896968
24.230000	1336.039711
24.240000	1360.387788
24.250000	1390.262279
24.260000	1411.439390
24.270000	1392.050923
24.280000	1323.502852
24.290000	1234.556826
24.300000	1152.176082
24.310000	1096.993423
24.320000	1061.720740
24.330000	1046.064036
24.340000	1048.209380
24.350000	1054.049052
24.360000	1068.364742
24.370000	1081.943804
24.380000	1104.520306
24.390000	1122.723246
24.400000	1129.975994
24.410000	1122.458358
24.420000	1108.412876
24.430000	1094.136147
24.440000	1084.126124
24.450000	1082.761524
24.460000	1092.782724
24.470000	1106.305502
24.480000	1120.400640
24.490000	1133.133167
24.500000	1149.652212
24.510000	1170.562452
24.520000	1192.506899
24.530000	1216.283701
24.540000	1240.636376
24.550000	1261.276930
24.560000	1280.062904
24.570000	1296.878101
24.580000	1309.764254
24.590000	1323.109761
24.600000	1339.072368
24.610000	1361.625793
24.620000	1385.968917
24.630000	1412.769188
24.640000	1439.468752
24.650000	1462.187557
24.660000	1479.921542
24.670000	1497.901213
24.680000	1516.305051
24.690000	1529.877629
24.700000	1512.241311
24.710000	1454.512596
24.720000	1359.152294
24.730000	1263.185781
24.740000	1182.280943
24.750000	1111.077238
24.760000	1002.905189
24.770000	840.658633
24.780000	658.612310
24.790000	522.601473
24.800000	459.152563
24.810000	395.211566
24.820000	292.729378
24.830000	168.579253
24.840000	78.018017
24.850000	35.775013
24.860000	2.430302
24.870000	-49.056535
24.880000	-111.458286
24.890000	-159.233121
24.900000	-170.084811
24.910000	-158.907891
24.920000	-158.824449
24.930000	-186.935387
24.940000	-229.543238
24.950000	-257.651614
24.960000	-260.376199
24.970000	-265.538919
24.980000	-299.603872
24.990000	-362.418565
25.000000	-428.494406
25.010000	-484.397435
25.020000	-541.519574
25.030000	-606.429836
25.040000	-661.879762
25.050000	-688.523903
25.060000	-688.366333
25.070000	-684.076123
25.080000	-687.892629
25.090000	-698.660229
25.100000	-705.795345
25.110000	-706.000292
25.120000	-735.208717
25.130000	-813.366305
25.140000	-931.947371
25.150000	-1038.014095
25.160000	-1102.823177
25.170000	-1119.125224
25.180000	-1095.814556
25.190000	-1085.093456
25.200000	-1094.421451
25.210000	-1122.442791
25.220000	-1127.656967
25.230000	-1127.693641
25.240000	-1146.315327
25.250000	-1176.934013
25.260000	-1206.696234
25.270000	-1236.619104
25.280000	-1278.179351
25.290000	-1315.970692
25.300000	-1333.733970
25.310000	-1345.479433
25.320000	-1364.360413
25.330000	-1382.671882
25.340000	-1399.413078
25.350000	-1420.624949
25.360000	-1445.521732
25.370000	-1443.905426
25.380000	-1416.791085
25.390000	-1386.318995
25.400000	-1380.150765
25.410000	-1392.048035
25.420000	-1404.889208
25.430000	-1417.228851
25.440000	-1425.363561
25.450000	-1431.501398
25.460000	-1427.217578
25.470000	-1421.564179
25.480000	-1419.469188
25.490000	-1413.334823
25.500000	-1394.125789
25.510000	-1369.226165
25.520000	-1356.219323
25.530000	-1352.470877
25.540000	-1365.081798
25.550000	-1403.129848
25.560000	-1464.656076
25.570000	-1525.804070
25.580000	-1576.343107
25.590000	-1629.284046
25.600000	-1687.410551
25.610000	-1727.434158
25.620000	-1747.612147
25.630000	-1762.370205
25.640000	-1778.868522
25.650000	-1788.671349
25.660000	-1774.842672
25.670000	-1751.465319
25.680000	-1752.278269
25.690000	-1785.930992
25.700000	-1828.030203
25.710000	-1843.106466
25.720000	-1831.286580
25.730000	-1793.691122
25.740000	-1755.348170
25.750000	-1717.950990
25.760000	-1694.178980
25.770000	-1665.196408
25.780000	-1622.108925
25.790000	-1561.194238
25.800000	-1489.472947
25.810000	-1431.310636
25.820000	-1392.189045
25.830000	-1367.469516
25.840000	-1351.305098
25.850000	-1359.089661
25.860000	-1387.438811
25.870000	-1423.084865
25.880000	-1456.317460
25.890000	-1495.865499
25.900000	-1530.208219
25.910000	-1560.414705
25.920000	-1579.142793
25.930000	-1591.731909
25.940000	-1576.402287
25.950000	-1526.823846
25.960000	-1447.423177
25.970000	-1379.749137
25.980000	-1338.434402
25.990000	-1311.331325
26.000000	-1281.830004
26.010000	-1236.652138
26.020000	-1170.643559
26.030000	-1051.292944
26.040000	-875.933699
26.050000	-659.710091
26.060000	-427.310278
26.070000	-207.197298
26.080000	-16.381219
26.090000	144.635559
26.100000	271.144889
26.110000	362.756085
26.120000	411.259208
26.130000	435.895571
26.140000	448.630980
26.150000	462.315457
26.160000	478.583788
26.170000	502.022488
26.180000	545.505592
26.190000	609.642593
26.200000	688.356311
26.210000	765.181968
26.220000	836.858278
26.230000	897.329159
26.240000	942.314454
26.250000	971.102652
26.260000	989.405266
26.270000	1008.508942
26.280000	1037.441175
26.290000	1084.866012
26.300000	1129.680911
26.310000	1154.853643
26.320000	1156.576808
26.330000	1152.520553
26.340000	1162.098227
26.350000	1189.767556
26.360000	1222.860875
26.370000	1246.296616
26.380000	1237.558872
26.390000	1195.507228
26.400000	1130.244324
26.410000	1048.665999
26.420000	976.940059
26.430000	919.723417
26.440000	884.267686
26.450000	866.708768
26.460000	859.209891
26.470000	859.000543
26.480000	859.768559
26.490000	870.627886
26.500000	886.247756
26.510000	889.516741
26.520000	873.047857
26.530000	840.396832
26.540000	810.852666
26.550000	791.538650
26.560000	789.953953
26.570000	796.596181
26.580000	802.352348
26.590000	803.966127
26.600000	803.729260
26.610000	802.963635
26.620000	807.081239
26.630000	815.241406
26.640000	824.725763
26.650000	835.156900
26.660000	846.335658
26.670000	864.722483
26.680000	886.215250
26.690000	910.263434
26.700000	934.388727
26.710000	956.772272
26.720000	986.558614
26.730000	1020.881301
26.740000	1061.374251
26.750000	1088.231705
26.760000	1078.147400
26.770000	1026.935274
26.780000	946.599184
26.790000	871.334139
26.800000	817.302624
26.810000	783.988545
26.820000	771.308765
26.830000	769.250679
26.840000	775.303994
26.850000	785.811625
26.860000	802.282179
26.870000	829.350059
26.880000	847.496394
26.890000	855.240531
26.900000	842.990946
26.910000	824.163591
26.920000	805.102247
26.930000	787.710735
26.940000	780.534834
26.950000	777.855169
26.960000	782.293560
26.970000	794.965447
26.980000	810.671669
26.990000	826.385158
27.000000	840.356826
27.010000	851.777722
27.020000	867.032069
27.030000	886.791647
27.040000	906.998088
27.050000	926.116313
27.060000	940.595753
27.070000	953.763752
27.080000	971.504350
27.090000	986.679353
27.100000	1006.422757
27.110000	1033.553725
27.120000	1060.951153
27.130000	1066.691393
27.140000	1022.098279
27.150000	940.916167
27.160000	849.918429
27.170000	770.764102
27.180000	711.672171
27.190000	668.882938
27.200000	651.097226
27.210000	651.596461
27.220000	671.514166
27.230000	697.239750
27.240000	725.596628
27.250000	744.829608
27.260000	756.351986
27.270000	753.366903
27.280000	733.756769
27.290000	701.223335
27.300000	664.812630
27.310000	640.735753
27.320000	624.781942
27.330000	622.912214
27.340000	623.004252
27.350000	631.442059
27.360000	635.142202
27.370000	643.335516
27.380000	656.558473
27.390000	675.531555
27.400000	696.932253
27.410000	716.025526
27.420000	733.957193
27.430000	746.472862
27.440000	756.302700
27.450000	766.890056
27.460000	781.950030
27.470000	793.576247
27.480000	809.273771
27.490000	824.864261
27.500000	843.250699
27.510000	847.397735
27.520000	810.166580
27.530000	724.285622
27.540000	613.467212
27.550000	518.519914
27.560000	460.011494
27.570000	429.640616
27.580000	413.505884
27.590000	411.430954
27.600000	417.616551
27.610000	437.550461
27.620000	465.327203
27.630000	492.293471
27.640000	506.660063
27.650000	499.675415
27.660000	474.656426
27.670000	442.040364
27.680000	409.942954
27.690000	387.036475
27.700000	375.841973
27.710000	372.978845
27.720000	378.044723
27.730000	384.533080
27.740000	393.897710
27.750000	402.701998
27.760000	415.065972
27.770000	429.817303
27.780000	442.519259
27.790000	455.244207
27.800000	468.929544
27.810000	478.280503
27.820000	482.311229
27.830000	487.296024
27.840000	503.329075
27.850000	524.225550
27.860000	545.643743
27.870000	543.392025
27.880000	500.603033
27.890000	417.897405
27.900000	327.606658
27.910000	249.658986
27.920000	188.858704
27.930000	148.038133
27.940000	129.732606
27.950000	132.695920
27.960000	136.509227
27.970000	147.716159
27.980000	158.868836
27.990000	171.047588
28.000000	172.814846
28.010000	159.350992
28.020000	133.067529
28.030000	101.621963
28.040000	74.945963
28.050000	59.836842
28.060000	51.076923
28.070000	43.670867
28.080000	36.503421
28.090000	35.141135
28.100000	35.186784
28.110000	42.256146
28.120000	53.129464
28.130000	68.665618
28.140000	82.669036
28.150000	96.712368
28.160000	113.828233
28.170000	126.679259
28.180000	139.300294
28.190000	149.242978
28.200000	161.741096
28.210000	175.068225
28.220000	187.127861
28.230000	203.193697
28.240000	200.049359
28.250000	156.270073
28.260000	62.282391
28.270000	-53.269938
28.280000	-149.840242
28.290000	-217.282139
28.300000	-263.401212
28.310000	-296.017078
28.320000	-312.656946
28.330000	-316.156630
28.340000	-313.648178
28.350000	-314.025048
28.360000	-315.333973
28.370000	-325.979927
28.380000	-341.710005
28.390000	-375.708022
28.400000	-416.076125
28.410000	-459.184787
28.420000	-488.466317
28.430000	-507.777571
28.440000	-521.919333
28.450000	-532.421908
28.460000	-538.760877
28.470000	-545.808874
28.480000	-556.658970
28.490000	-561.555614
28.500000	-566.997057
28.510000	-562.651768
28.520000	-559.121896
28.530000	-546.755159
28.540000	-531.352321
28.550000	-519.256790
28.560000	-508.623942
28.570000	-505.844993
28.580000	-501.917497
28.590000	-493.513253
28.600000	-474.267440
28.610000	-454.291749
28.620000	-459.392388
28.630000	-519.814582
28.640000	-625.138035
28.650000	-744.012560
28.660000	-846.955011
28.670000	-926.671251
28.680000	-985.531862
28.690000	-1022.721412
28.700000	-1046.534174
28.710000	-1074.531009
28.720000	-1119.925402
28.730000	-1170.003785
28.740000	-1219.738990
28.750000	-1258.863602
28.760000	-1294.000581
28.770000	-1324.104140
28.780000	-1347.997091
28.790000	-1365.081704
28.800000	-1368.712571
28.810000	-1361.821290
28.820000	-1351.174432
28.830000	-1336.945404
28.840000	-1321.043811
28.850000	-1308.480890
28.860000	-1304.650523
28.870000	-1308.735687
28.880000	-1309.632097
28.890000	-1302.410633
28.900000	-1285.693342
28.910000	-1260.829709
28.920000	-1236.845692
28.930000	-1216.969588
28.940000	-1217.771442
28.950000	-1237.796741
28.960000	-1264.069010
28.970000	-1283.360007
28.980000	-1281.099696
28.990000	-1279.761813
29.000000	-1295.182267
29.010000	-1371.979431
29.020000	-1510.881015
29.030000	-1677.169717
29.040000	-1826.623630
29.050000	-1940.165646
29.060000	-2020.161651
29.070000	-2066.892279
29.080000	-2085.449226
29.090000	-2092.386630
29.100000	-2121.854583
29.110000	-2165.834484
29.120000	-2204.296128
29.130000	-2209.663972
29.140000	-2190.572647
29.150000	-2191.661017
29.160000	-2229.841486
29.170000	-2295.653891
29.180000	-2351.768484
29.190000	-2379.766503
29.200000	-2379.814073
29.210000	-2350.943280
29.220000	-2285.575166
29.230000	-2182.203435
29.240000	-2060.460708
29.250000	-1941.199671
29.260000	-1841.067088
29.270000	-1756.539212
29.280000	-1675.381217
29.290000	-1594.301281
29.300000	-1507.084899
29.310000	-1420.496180
29.320000	-1345.196058
29.330000	-1274.372781
29.340000	-1207.052520
29.350000	-1126.267621
29.360000	-1041.376346
29.370000	-943.841253
29.380000	-844.146571
29.390000	-745.455134
29.400000	-662.007110
29.410000	-604.451902
29.420000	-578.914160
29.430000	-583.485061
29.440000	-593.149048
29.450000	-588.591357
29.460000	-549.772263
29.470000	-478.480761
29.480000	-378.122571
29.490000	-272.481617
29.500000	-165.473284
29.510000	-65.215148
29.520000	23.464415
29.530000	89.982073
29.540000	132.372857
29.550000	153.473399
29.560000	145.533650
29.570000	98.239623
29.580000	33.398450
29.590000	-30.386660
29.600000	-88.825926
29.610000	-154.441805
29.620000	-240.768593
29.630000	-342.827772
29.640000	-451.748392
29.650000	-547.563909
29.660000	-631.165609
29.670000	-717.050360
29.680000	-818.291341
29.690000	-914.824363
29.700000	-971.754376
29.710000	-983.055160
29.720000	-980.030236
29.730000	-999.009513
29.740000	-1039.246796
29.750000	-1084.630304
29.760000	-1121.177280
29.770000	-1150.000060
29.780000	-1182.175393
29.790000	-1261.833611
29.800000	-1420.511335
29.810000	-1633.217054
29.820000	-1828.758261
29.830000	-1956.694757
29.840000	-2043.586641
29.850000	-2141.277901
29.860000	-2271.367298
29.870000	-2425.145820
29.880000	-2593.848475
29.890000	-2752.335415
29.900000	-2894.414305
29.910000	-3011.216215
29.920000	-3112.729747
29.930000	-3181.050801
29.940000	-3196.737251
29.950000	-3155.622834
29.960000	-3072.825731
29.970000	-2955.867847
29.980000	-2822.301416
29.990000	-2713.537172
30.000000	-2665.453132
30.010000	-2688.827878
30.020000	-2729.449070
30.030000	-2748.516029
30.040000	-2713.483012
30.050000	-2593.896441
30.060000	-2393.630090
30.070000	-2154.064377
30.080000	-1935.846905
30.090000	-1756.462877
30.100000	-1603.997695
30.110000	-1481.583026
30.120000	-1386.144020
30.130000	-1320.731494
30.140000	-1262.563121
30.150000	-1194.905867
30.160000	-1113.357602
30.170000	-1018.768389
30.180000	-952.937145
30.190000	-938.583299
30.200000	-981.808027
30.210000	-1052.300701
30.220000	-1117.006050
30.230000	-1177.446592
30.240000	-1214.145414
30.250000	-1211.935497
30.260000	-1167.313474
30.270000	-1109.509781
30.280000	-1052.433731
30.290000	-997.710063
30.300000	-947.547453
30.310000	-925.960883
30.320000	-935.926145
30.330000	-962.483970
30.340000	-985.276968
30.350000	-994.354689
30.360000	-995.321649
30.370000	-987.524771
30.380000	-983.049943
30.390000	-977.630631
30.400000	-979.458540
30.410000	-977.662274
30.420000	-969.867332
30.430000	-949.324134
30.440000	-921.283355
30.450000	-898.646645
30.460000	-874.616935
30.470000	-857.982309
30.480000	-834.857269
30.490000	-810.672062
30.500000	-783.042513
30.510000	-752.334407
30.520000	-723.537489
30.530000	-687.252917
30.540000	-652.711300
30.550000	-625.454276
30.560000	-628.558228
30.570000	-663.553384
30.580000	-721.665747
30.590000	-781.572213
30.600000	-834.761268
30.610000	-871.204978
30.620000	-892.171196
30.630000	-900.457269
30.640000	-909.892020
30.650000	-922.623342
30.660000	-925.181073
30.670000	-918.104272
30.680000	-908.763851
30.690000	-914.218683
30.700000	-928.555646
30.710000	-950.951080
30.720000	-966.578213
30.730000	-975.993517
30.740000	-975.522163
30.750000	-966.982586
30.760000	-953.399505
30.770000	-934.892285
30.780000	-925.575754
30.790000	-916.664739
30.800000	-901.014005
30.810000	-875.370554
30.820000	-843.392408
30.830000	-805.319980
30.840000	-760.687024
30.850000	-712.863248
30.860000	-655.871086
30.870000	-571.285922
30.880000	-467.708103
30.890000	-352.281793
30.900000	-239.808478
30.910000	-138.166099
30.920000	-55.482114
30.930000	-9.314004
30.940000	18.706770
30.950000	35.939911
30.960000	49.662362
30.970000	70.304303
30.980000	100.366203
30.990000	150.128302
31.000000	203.437225
31.010000	245.062830
31.020000	275.995669
31.030000	305.798647
31.040000	342.328711
31.050000	377.270870
31.060000	401.775979
31.070000	416.218987
31.080000	424.351279
31.090000	428.617137
31.100000	446.088571
31.110000	464.725333
31.120000	477.965772
31.130000	481.298875
31.140000	485.345763
31.150000	497.325817
31.160000	513.827475
31.170000	530.148305
31.180000	547.124996
31.190000	558.754103
31.200000	576.941969
31.210000	601.130755
31.220000	627.890966
31.230000	647.966135
31.240000	657.999047
31.250000	662.300268
31.260000	665.921667
31.270000	669.436074
31.280000	674.663152
31.290000	683.722940
31.300000	697.218832
31.310000	708.476300
31.320000	716.611684
31.330000	714.033950
31.340000	688.816782
31.350000	645.128060
31.360000	588.519370
31.370000	543.770098
31.380000	495.274245
31.390000	447.298014
31.400000	393.499364
31.410000	349.386737
31.420000	313.513453
31.430000	287.320340
31.440000	270.360713
31.450000	260.087934
31.460000	249.035623
31.470000	227.358224
31.480000	201.933763
31.490000	169.780127
31.500000	142.050818
31.510000	116.346293
31.520000	97.704515
31.530000	86.751281
31.540000	81.202555
31.550000	78.007891
31.560000	72.217161
31.570000	66.809454
31.580000	58.739787
31.590000	54.162238
31.600000	50.432259
31.610000	48.386653
31.620000	45.311770
31.630000	41.484126
31.640000	42.405199
31.650000	39.410312
31.660000	39.410418
31.670000	36.170790
31.680000	39.999523
31.690000	47.099031
31.700000	63.155903
31.710000	82.538797
31.720000	97.517181
31.730000	111.554693
31.740000	109.373754
31.750000	87.484450
31.760000	49.131694
31.770000	8.328036
31.780000	-29.916120
31.790000	-68.964359
31.800000	-106.392969
31.810000	-126.998534
31.820000	-137.706095
31.830000	-140.125560
31.840000	-140.805515
31.850000	-136.664145
31.860000	-128.686062
31.870000	-129.670419
31.880000	-141.637521
31.890000	-165.773529
31.900000	-196.668602
31.910000	-229.307404
31.920000	-252.444194
31.930000	-264.628412
31.940000	-266.317194
31.950000	-265.728174
31.960000	-263.258089
31.970000	-260.586102
31.980000	-257.279760
31.990000	-249.519902
32.000000	-239.401445
32.010000	-226.529227
32.020000	-210.938603
32.030000	-199.971503
32.040000	-188.853955
32.050000	-176.500637
32.060000	-155.159645
32.070000	-130.139543
32.080000	-108.208498
32.090000	-84.818440
32.100000	-60.340516
32.110000	-33.895472
32.120000	-8.884442
32.130000	2.604903
32.140000	-17.508814
32.150000	-66.901241
32.160000	-130.826883
32.170000	-185.776374
32.180000	-231.935005
32.190000	-271.380259
32.200000	-303.424332
32.210000	-324.028986
32.220000	-333.979527
32.230000	-337.404756
32.240000	-334.573886
32.250000	-324.826307
32.260000	-314.233640
32.270000	-310.631506
32.280000	-315.252624
32.290000	-333.824979
32.300000	-358.609106
32.310000	-380.053186
32.320000	-391.678964
32.330000	-393.335593
32.340000	-390.466225
32.350000	-381.633021
32.360000	-369.965164
32.370000	-358.293975
32.380000	-345.482756
32.390000	-330.650390
32.400000	-313.695786
32.410000	-292.359373
32.420000	-272.621811
32.430000	-255.075784
32.440000	-241.237796
32.450000	-226.795468
32.460000	-214.557816
32.470000	-196.501735
32.480000	-176.926535
32.490000	-154.873604
32.500000	-133.317957
32.510000	-120.269718
32.520000	-107.674189
32.530000	-98.369871
32.540000	-100.718226
32.550000	-136.845647
32.560000	-198.682326
32.570000	-265.287586
32.580000	-320.994271
32.590000	-362.094244
32.600000	-393.326466
32.610000	-409.201702
32.620000	-420.029453
32.630000	-426.608942
32.640000	-429.054963
32.650000	-429.678449
32.660000	-425.721283
32.670000	-422.757401
32.680000	-427.709692
32.690000	-448.823523
32.700000	-474.625968
32.710000	-494.205027
32.720000	-499.529141
32.730000	-503.621824
32.740000	-501.024157
32.750000	-488.017811
32.760000	-472.189767
32.770000	-469.073633
32.780000	-478.615703
32.790000	-499.761636
32.800000	-529.670116
32.810000	-574.773614
32.820000	-615.282796
32.830000	-636.093862
32.840000	-640.239131
32.850000	-631.040521
32.860000	-613.156521
32.870000	-581.583122
32.880000	-546.402922
32.890000	-503.706626
32.900000	-457.622485
32.910000	-409.104245
32.920000	-366.811127
32.930000	-325.744010
32.940000	-290.637904
32.950000	-277.357483
32.960000	-283.355654
32.970000	-296.885632
32.980000	-307.682486
32.990000	-311.032437
33.000000	-308.628720
33.010000	-299.438621
33.020000	-286.518110
33.030000	-270.769205
33.040000	-250.997111
33.050000	-224.689930
33.060000	-196.421049
33.070000	-167.859872
33.080000	-146.784007
33.090000	-133.596850
33.100000	-126.727211
33.110000	-124.584492
33.120000	-122.577936
33.130000	-124.509322
33.140000	-124.314077
33.150000	-120.691460
33.160000	-107.947417
33.170000	-89.472858
33.180000	-73.165817
33.190000	-57.465997
33.200000	-47.304806
33.210000	-35.995023
33.220000	-24.363936
33.230000	-11.751169
33.240000	3.683932
33.250000	16.912535
33.260000	31.863416
33.270000	45.666208
33.280000	64.845643
33.290000	85.503153
33.300000	108.621473
33.310000	126.765470
33.320000	129.171613
33.330000	112.834172
33.340000	81.527080
33.350000	48.717830
33.360000	22.323926
33.370000	6.382409
33.380000	2.908422
33.390000	8.159336
33.400000	20.628845
33.410000	34.388860
33.420000	50.167249
33.430000	77.443745
33.440000	112.138022
33.450000	148.966560
33.460000	178.570459
33.470000	208.343199
33.480000	237.456414
33.490000	264.529375
33.500000	292.500237
33.510000	319.850933
33.520000	354.051316
33.530000	399.648649
33.540000	450.391865
33.550000	494.919733
33.560000	526.901909
33.570000	548.705320
33.580000	576.943299
33.590000	603.249444
33.600000	624.828731
33.610000	641.631441
33.620000	658.225431
33.630000	686.199555
33.640000	712.723475
33.650000	739.310387
33.660000	767.392856
33.670000	786.227568
33.680000	793.259412
33.690000	796.683852
33.700000	803.968431
33.710000	815.633732
33.720000	822.164102
33.730000	827.135321
33.740000	840.561408
33.750000	865.804119
33.760000	896.452205
33.770000	928.000001
33.780000	954.529151
33.790000	977.073176
33.800000	992.119977
33.810000	1002.692159
33.820000	1013.244082
33.830000	1021.155873
33.840000	1026.574757
33.850000	1029.820499
33.860000	1036.455065
33.870000	1047.342245
33.880000	1065.880474
33.890000	1085.710107
33.900000	1107.532964
33.910000	1127.942467
33.920000	1151.083400
33.930000	1175.705297
33.940000	1202.519255
33.950000	1230.010112
33.960000	1258.843929
33.970000	1291.203308
33.980000	1325.711086
33.990000	1362.287032
34.000000	1394.114739
34.010000	1414.260117
34.020000	1417.748137
34.030000	1401.464015
34.040000	1376.982246
34.050000	1360.575837
34.060000	1361.760795
34.070000	1381.896224
34.080000	1409.402737
34.090000	1443.145515
34.100000	1473.589768
34.110000	1502.662381
34.120000	1534.353155
34.130000	1573.419963
34.140000	1609.314348
34.150000	1631.418433
34.160000	1647.902780
34.170000	1664.988395
34.180000	1687.732730
34.190000	1707.098884
34.200000	1725.842155
34.210000	1747.125417
34.220000	1772.864237
34.230000	1803.398187
34.240000	1835.795706
34.250000	1869.931496
34.260000	1903.307940
34.270000	1939.068684
34.280000	1973.724769
34.290000	2014.826752
34.300000	2061.710662
34.310000	2115.850041
34.320000	2163.247793
34.330000	2206.179449
34.340000	2251.392983
34.350000	2308.112439
34.360000	2359.397416
34.370000	2409.702941
34.380000	2447.958918
34.390000	2483.282881
34.400000	2512.087114
34.410000	2529.795948
34.420000	2537.835202
34.430000	2506.160207
34.440000	2452.987676
34.450000	2356.687711
34.460000	2235.523246
34.470000	2069.049920
34.480000	1846.360168
34.490000	1572.398290
34.500000	1286.234226
34.510000	1042.065721
34.520000	862.299239
34.530000	706.840516
34.540000	580.768098
34.550000	537.695800
34.560000	614.806414
34.570000	778.973294
34.580000	925.597809
34.590000	1015.045992
34.600000	1064.496071
34.610000	1106.779893
34.620000	1144.931409
34.630000	1174.780294
34.640000	1185.970071
34.650000	1179.098450
34.660000	1159.978074
34.670000	1147.407966
34.680000	1161.278764
34.690000	1167.192054
34.700000	1138.892822
34.710000	1079.013797
34.720000	1014.198442
34.730000	960.766765
34.740000	907.722573
34.750000	857.851740
34.760000	810.532109
34.770000	768.574848
34.780000	727.952164
34.790000	698.967217
34.800000	680.972634
34.810000	662.627959
34.820000	632.624848
34.830000	595.965734
34.840000	560.584587
34.850000	521.234014
34.860000	480.198956
34.870000	434.121299
34.880000	393.152159
34.890000	345.249915
34.900000	302.474395
34.910000	265.316811
34.920000	227.749330
34.930000	193.047076
34.940000	163.660361
34.950000	151.442070
34.960000	136.456863
34.970000	124.213603
34.980000	115.213474
34.990000	140.710670
35.000000	205.539124
35.010000	307.162971
35.020000	409.080833
35.030000	466.569239
35.040000	466.686916
35.050000	427.705514
35.060000	385.987495
35.070000	359.436424
35.080000	356.240578
35.090000	365.093500
35.100000	383.498085
35.110000	398.368904
35.120000	416.458001
35.130000	442.955119
35.140000	483.401157
35.150000	526.143559
35.160000	550.970757
35.170000	550.684860
35.180000	532.564400
35.190000	518.250385
35.200000	508.419061
35.210000	506.141574
35.220000	498.883764
35.230000	493.071555
35.240000	492.327962
35.250000	504.667934
35.260000	530.405816
35.270000	548.193421
35.280000	563.212273
35.290000	571.349581
35.300000	592.073489
35.310000	613.409828
35.320000	637.297148
35.330000	659.444308
35.340000	681.194735
35.350000	705.141113
35.360000	730.074544
35.370000	760.513409
35.380000	781.895466
35.390000	774.532233
35.400000	738.431511
35.410000	682.570464
35.420000	626.993133
35.430000	585.921621
35.440000	556.503841
35.450000	555.656787
35.460000	563.577129
35.470000	585.123512
35.480000	608.268247
35.490000	641.310656
35.500000	676.246217
35.510000	703.492138
35.520000	715.896573
35.530000	721.715345
35.540000	724.199618
35.550000	727.942363
35.560000	735.163287
35.570000	751.178709
35.580000	769.094587
35.590000	790.773945
35.600000	808.334291
35.610000	827.408469
35.620000	845.220056
35.630000	857.708943
35.640000	876.819569
35.650000	893.622183
35.660000	924.492318
35.670000	944.760054
35.680000	968.275189
35.690000	992.524258
35.700000	1017.737152
35.710000	1033.263744
35.720000	1043.245172
35.730000	1065.045241
35.740000	1109.407626
35.750000	1155.078386
35.760000	1177.567633
35.770000	1155.459984
35.780000	1101.495018
35.790000	1038.208947
35.800000	987.762043
35.810000	955.920427
35.820000	951.043936
35.830000	964.259181
35.840000	961.932618
35.850000	925.313789
35.860000	866.915654
35.870000	816.424220
35.880000	759.787381
35.890000	712.959379
35.900000	721.081740
35.910000	793.739497
35.920000	877.211653
35.930000	909.172216
35.940000	899.883973
35.950000	912.426499
35.960000	982.825277
35.970000	1102.568533
35.980000	1236.035646
35.990000	1349.392434
36.000000	1433.992254
36.010000	1479.555669
36.020000	1489.329916
36.030000	1471.743778
36.040000	1434.008275
36.050000	1403.665159
36.060000	1377.279031
36.070000	1346.918374
36.080000	1271.135279
36.090000	1139.935546
36.100000	976.760941
36.110000	803.292133
36.120000	635.047260
36.130000	468.273366
36.140000	314.720389
36.150000	192.950856
36.160000	76.614353
36.170000	-59.357295
36.180000	-196.026671
36.190000	-295.602873
36.200000	-326.674450
36.210000	-299.953402
36.220000	-251.715049
36.230000	-200.912315
36.240000	-191.814494
36.250000	-210.701282
36.260000	-249.919945
36.270000	-263.708267
36.280000	-238.102097
36.290000	-143.386762
