Time(s)	IR_denoised_median
0.000000	-614.341538
0.010000	-614.341538
0.020000	-614.341538
0.030000	-581.340753
0.040000	-550.590014
0.050000	-516.745164
0.060000	-478.034372
0.070000	-442.362291
0.080000	-401.620952
0.090000	-353.180724
0.100000	-319.462652
0.110000	-286.084446
0.120000	-259.548136
0.130000	-228.124569
0.140000	-201.880007
0.150000	-157.258918
0.160000	-116.524338
0.170000	-116.524338
0.180000	-116.524338
0.190000	-166.031307
0.200000	-351.355161
0.210000	-552.602038
0.220000	-715.473427
0.230000	-834.493772
0.240000	-930.851868
0.250000	-977.439826
0.260000	-977.500667
0.270000	-997.747220
0.280000	-997.747220
0.290000	-997.747220
0.300000	-997.519660
0.310000	-997.519660
0.320000	-997.519660
0.330000	-1039.417197
0.340000	-1080.423928
0.350000	-1116.771622
0.360000	-1154.542162
0.370000	-1160.204115
0.380000	-1160.204115
0.390000	-1160.204115
0.400000	-1149.747000
0.410000	-1134.410466
0.420000	-1098.539057
0.430000	-1080.486483
0.440000	-1054.340970
0.450000	-1032.854961
0.460000	-1016.294749
0.470000	-1010.424586
0.480000	-1005.391561
0.490000	-994.187827
0.500000	-986.720500
0.510000	-971.076666
0.520000	-957.295116
0.530000	-956.152767
0.540000	-947.971160
0.550000	-921.436756
0.560000	-921.436756
0.570000	-921.436756
0.580000	-983.280613
0.590000	-1168.201666
0.600000	-1362.647582
0.610000	-1514.789178
0.620000	-1647.403066
0.630000	-1740.442463
0.640000	-1797.406387
0.650000	-1822.280017
0.660000	-1828.022093
0.670000	-1828.022093
0.680000	-1828.022093
0.690000	-1815.946729
0.700000	-1815.946729
0.710000	-1815.946729
0.720000	-1855.179255
0.730000	-1895.514479
0.740000	-1920.028988
0.750000	-1945.354367
0.760000	-1965.997571
0.770000	-1981.387021
0.780000	-1986.131784
0.790000	-1990.077115
0.800000	-1990.077115
0.810000	-1990.077115
0.820000	-1968.847213
0.830000	-1968.796356
0.840000	-1963.300988
0.850000	-1929.702328
0.860000	-1925.149321
0.870000	-1912.524255
0.880000	-1894.280700
0.890000	-1873.521810
0.900000	-1843.558498
0.910000	-1806.716897
0.920000	-1765.007648
0.930000	-1746.154262
0.940000	-1737.517017
0.950000	-1719.743682
0.960000	-1719.743682
0.970000	-1719.743682
0.980000	-1814.401834
0.990000	-2010.193217
1.000000	-2222.509982
1.010000	-2407.125561
1.020000	-2565.910817
1.030000	-2712.254939
1.040000	-2832.401800
1.050000	-2919.567461
1.060000	-2983.100359
1.070000	-3042.069203
1.080000	-3064.844891
1.090000	-3065.824124
1.100000	-3090.821254
1.110000	-3138.623882
1.120000	-3187.935193
1.130000	-3244.632486
1.140000	-3308.188329
1.150000	-3359.746640
1.160000	-3412.684972
1.170000	-3462.967004
1.180000	-3490.290018
1.190000	-3509.435829
1.200000	-3519.001709
1.210000	-3519.001709
1.220000	-3519.001709
1.230000	-3516.966356
1.240000	-3516.966356
1.250000	-3511.686846
1.260000	-3511.096559
1.270000	-3510.011280
1.280000	-3500.045008
1.290000	-3483.270076
1.300000	-3472.539273
1.310000	-3470.557339
1.320000	-3466.041057
1.330000	-3465.129992
1.340000	-3462.799808
1.350000	-3447.665783
1.360000	-3447.665783
1.370000	-3447.665783
1.380000	-3492.837850
1.390000	-3677.189824
1.400000	-3885.720831
1.410000	-4087.308777
1.420000	-4245.713300
1.430000	-4363.656784
1.440000	-4445.831690
1.450000	-4490.104996
1.460000	-4505.096980
1.470000	-4522.732972
1.480000	-4540.381472
1.490000	-4546.448778
1.500000	-4557.855029
1.510000	-4579.239880
1.520000	-4611.425373
1.530000	-4659.147222
1.540000	-4713.060725
1.550000	-4762.151820
1.560000	-4801.813648
1.570000	-4802.455487
1.580000	-4811.701502
1.590000	-4811.701502
1.600000	-4802.455487
1.610000	-4795.582425
1.620000	-4787.990376
1.630000	-4776.657822
1.640000	-4752.388879
1.650000	-4737.902699
1.660000	-4717.762241
1.670000	-4710.317836
1.680000	-4704.129015
1.690000	-4702.847407
1.700000	-4689.509867
1.710000	-4672.515019
1.720000	-4661.961428
1.730000	-4637.161744
1.740000	-4615.579041
1.750000	-4586.790717
1.760000	-4554.291257
1.770000	-4554.291257
1.780000	-4554.291257
1.790000	-4608.354276
1.800000	-4783.721866
1.810000	-5002.197881
1.820000	-5201.323334
1.830000	-5346.155424
1.840000	-5447.084987
1.850000	-5495.092604
1.860000	-5532.016515
1.870000	-5534.706218
1.880000	-5534.706218
1.890000	-5534.706218
1.900000	-5508.939631
1.910000	-5508.939631
1.920000	-5508.939631
1.930000	-5546.667634
1.940000	-5583.815746
1.950000	-5620.688146
1.960000	-5664.712159
1.970000	-5689.613693
1.980000	-5689.613693
1.990000	-5689.613693
2.000000	-5680.535731
2.010000	-5672.639855
2.020000	-5655.259572
2.030000	-5625.720562
2.040000	-5610.036869
2.050000	-5593.360091
2.060000	-5591.930134
2.070000	-5587.644583
2.080000	-5583.843071
2.090000	-5567.065168
2.100000	-5532.671070
2.110000	-5509.828799
2.120000	-5482.320752
2.130000	-5458.602840
2.140000	-5439.889455
2.150000	-5424.451317
2.160000	-5422.298027
2.170000	-5403.752582
2.180000	-5403.752582
2.190000	-5403.752582
2.200000	-5472.675805
2.210000	-5661.481366
2.220000	-5861.852461
2.230000	-6028.797236
2.240000	-6157.037926
2.250000	-6225.966622
2.260000	-6258.233680
2.270000	-6277.024772
2.280000	-6277.024772
2.290000	-6277.024772
2.300000	-6270.299001
2.310000	-6270.299001
2.320000	-6270.299001
2.330000	-6272.855271
2.340000	-6317.268331
2.350000	-6365.062542
2.360000	-6395.986595
2.370000	-6430.224180
2.380000	-6442.418472
2.390000	-6454.505758
2.400000	-6454.505758
2.410000	-6454.505758
2.420000	-6437.289925
2.430000	-6420.561619
2.440000	-6400.820637
2.450000	-6385.452653
2.460000	-6365.105715
2.470000	-6334.149270
2.480000	-6324.283674
2.490000	-6304.458832
2.500000	-6277.334419
2.510000	-6268.606733
2.520000	-6265.048151
2.530000	-6254.522313
2.540000	-6231.539570
2.550000	-6219.270752
2.560000	-6209.694128
2.570000	-6180.724009
2.580000	-6171.402797
2.590000	-6171.402797
2.600000	-6171.402797
2.610000	-6288.940401
2.620000	-6480.659891
2.630000	-6677.507902
2.640000	-6947.999615
2.650000	-7069.629844
2.660000	-7069.629844
2.670000	-7069.629844
2.680000	-7040.448517
2.690000	-7010.911949
2.700000	-6486.635553
2.710000	-6325.331068
2.720000	-6283.359393
2.730000	-6165.131817
2.740000	-6062.615220
2.750000	-5745.388680
2.760000	-5557.928585
2.770000	-5485.383407
2.780000	-5365.458413
2.790000	-5040.004700
2.800000	-4293.439391
2.810000	-3242.140329
2.820000	-1793.442453
2.830000	-218.866087
2.840000	1563.942952
2.850000	3548.587316
2.860000	5652.548606
2.870000	7800.496171
2.880000	9777.212127
2.890000	11729.848711
2.900000	13696.029511
2.910000	15752.770358
2.920000	17273.381175
2.930000	18461.445540
2.940000	19386.844709
2.950000	20156.707980
2.960000	20870.778657
2.970000	21635.485110
2.980000	22593.313472
2.990000	23407.453017
3.000000	24294.881746
3.010000	25077.854320
3.020000	25809.606912
3.030000	26399.387428
3.040000	26889.228704
3.050000	27294.383388
3.060000	27575.240532
3.070000	27739.052936
3.080000	27991.345784
3.090000	28193.329462
3.100000	28353.411625
3.110000	28355.824693
3.120000	28410.703081
3.130000	28432.228575
3.140000	28439.013386
3.150000	28458.226861
3.160000	28523.734053
3.170000	28523.734053
3.180000	28530.090576
3.190000	28523.734053
3.200000	28530.090576
3.210000	28466.437905
3.220000	28533.144765
3.230000	28466.437905
3.240000	28533.144765
3.250000	28443.402379
3.260000	28443.402379
3.270000	28398.271318
3.280000	28391.254629
3.290000	27964.479634
3.300000	27923.721268
3.310000	27662.542240
3.320000	27662.542240
3.330000	27662.542240
3.340000	27763.800360
3.350000	28421.891894
3.360000	28421.891894
3.370000	28421.891894
3.380000	27520.150360
3.390000	23835.529886
3.400000	9762.855554
3.410000	8899.351711
3.420000	8723.557431
3.430000	8180.924869
3.440000	8064.509114
3.450000	7555.493641
3.460000	7462.740537
3.470000	7039.105160
3.480000	6994.999654
3.490000	6525.174875
3.500000	6495.333973
3.510000	6028.517368
3.520000	5972.979205
3.530000	5572.006036
3.540000	5518.156762
3.550000	5208.485706
3.560000	5171.989866
3.570000	4885.619776
3.580000	4831.123959
3.590000	4601.852308
3.600000	4554.891477
3.610000	4359.729280
3.620000	4326.949986
3.630000	4175.508631
3.640000	4136.940803
3.650000	3998.589548
3.660000	3939.526186
3.670000	3801.259032
3.680000	3748.512044
3.690000	3619.541594
3.700000	3581.909092
3.710000	3481.444181
3.720000	3428.533386
3.730000	3322.263954
3.740000	3288.274347
3.750000	3237.986663
3.760000	3212.860614
3.770000	3129.852390
3.780000	2969.102206
3.790000	2696.156609
3.800000	2410.186150
3.810000	2116.675609
3.820000	1883.911415
3.830000	1669.355774
3.840000	1516.334770
3.850000	1403.316755
3.860000	1329.270066
3.870000	1233.566360
3.880000	1178.993312
3.890000	1141.021778
3.900000	1067.081825
3.910000	973.104266
3.920000	870.593744
3.930000	754.573676
3.940000	647.610123
3.950000	541.383688
3.960000	457.129720
3.970000	376.503641
3.980000	307.135915
3.990000	249.014461
4.000000	191.521437
4.010000	128.943809
4.020000	84.387766
4.030000	56.203408
4.040000	34.626650
4.050000	23.892893
4.060000	8.198522
4.070000	-10.985556
4.080000	-22.822669
4.090000	-41.555081
4.100000	-81.469584
4.110000	-95.585339
4.120000	-95.585339
4.130000	-95.585339
4.140000	-91.049898
4.150000	-91.049898
4.160000	-88.516874
4.170000	-81.724171
4.180000	-81.724171
4.190000	-91.636568
4.200000	-105.590819
4.210000	-270.166618
4.220000	-509.789322
4.230000	-769.436873
4.240000	-1011.709476
4.250000	-1208.409046
4.260000	-1351.364670
4.270000	-1452.118782
4.280000	-1524.713526
4.290000	-1577.503059
4.300000	-1632.794226
4.310000	-1675.481452
4.320000	-1683.556179
4.330000	-1694.326305
4.340000	-1766.082626
4.350000	-1843.569466
4.360000	-1923.465183
4.370000	-1992.502066
4.380000	-2042.581972
4.390000	-2104.264138
4.400000	-2161.296739
4.410000	-2200.765163
4.420000	-2200.765163
4.430000	-2200.765163
4.440000	-2194.049527
4.450000	-2192.970484
4.460000	-2175.952292
4.470000	-2162.819417
4.480000	-2149.541618
4.490000	-2126.407960
4.500000	-2112.969644
4.510000	-2100.680763
4.520000	-2076.148879
4.530000	-2053.797563
4.540000	-2044.087893
4.550000	-2041.644581
4.560000	-2023.756044
4.570000	-2009.385840
4.580000	-1979.101526
4.590000	-1951.016009
4.600000	-1924.183439
4.610000	-1875.376733
4.620000	-1875.376733
4.630000	-1875.376733
4.640000	-1975.998239
4.650000	-2205.476685
4.660000	-2453.430842
4.670000	-2654.182446
4.680000	-2813.872944
4.690000	-2937.700732
4.700000	-3023.111727
4.710000	-3059.016388
4.720000	-3090.327961
4.730000	-3090.327961
4.740000	-3090.327961
4.750000	-3081.172083
4.760000	-3081.172083
4.770000	-3081.172083
4.780000	-3103.425040
4.790000	-3140.658668
4.800000	-3159.944951
4.810000	-3167.099844
4.820000	-3167.099844
4.830000	-3167.099844
4.840000	-3145.516327
4.850000	-3123.652910
4.860000	-3090.367812
4.870000	-3048.899044
4.880000	-2996.067849
4.890000	-2942.050528
4.900000	-2904.660005
4.910000	-2871.993996
4.920000	-2829.119874
4.930000	-2792.903257
4.940000	-2740.351127
4.950000	-2676.773495
4.960000	-2627.523034
4.970000	-2550.346003
4.980000	-2499.851271
4.990000	-2456.607760
5.000000	-2401.074110
5.010000	-2337.832964
5.020000	-2282.225958
5.030000	-2220.881017
5.040000	-2140.281362
5.050000	-2140.281362
5.060000	-2140.281362
5.070000	-2215.998880
5.080000	-2407.899777
5.090000	-2586.827791
5.100000	-2721.595767
5.110000	-2813.665621
5.120000	-2842.935329
5.130000	-2842.935329
5.140000	-2842.935329
5.150000	-2803.892869
5.160000	-2773.616751
5.170000	-2728.235207
5.180000	-2676.321050
5.190000	-2676.321050
5.200000	-2676.321050
5.210000	-2686.769802
5.220000	-2704.488671
5.230000	-2704.488671
5.240000	-2704.488671
5.250000	-2704.082179
5.260000	-2694.311874
5.270000	-2686.277477
5.280000	-2657.523122
5.290000	-2605.482293
5.300000	-2556.771233
5.310000	-2507.562005
5.320000	-2455.985023
5.330000	-2412.638031
5.340000	-2372.118694
5.350000	-2330.684181
5.360000	-2282.213125
5.370000	-2235.740963
5.380000	-2191.253397
5.390000	-2142.753693
5.400000	-2100.311844
5.410000	-2059.702861
5.420000	-2016.346657
5.430000	-1960.617138
5.440000	-1888.377129
5.450000	-1842.664664
5.460000	-1842.664664
5.470000	-1842.664664
5.480000	-1982.195055
5.490000	-2138.539775
5.500000	-2275.092238
5.510000	-2366.437172
5.520000	-2407.037082
5.530000	-2407.037082
5.540000	-2407.037082
5.550000	-2394.520765
5.560000	-2375.614628
5.570000	-2333.564800
5.580000	-2281.453427
5.590000	-2236.623817
5.600000	-2216.142507
5.610000	-2214.291060
5.620000	-2208.631113
5.630000	-2206.573732
5.640000	-2191.117924
5.650000	-2155.457753
5.660000	-2120.202053
5.670000	-2085.299116
5.680000	-2041.275681
5.690000	-2003.224605
5.700000	-1944.251906
5.710000	-1887.306157
5.720000	-1837.198721
5.730000	-1772.336820
5.740000	-1720.303447
5.750000	-1659.255778
5.760000	-1598.519017
5.770000	-1543.189543
5.780000	-1472.691669
5.790000	-1411.275177
5.800000	-1344.788753
5.810000	-1280.450549
5.820000	-1220.905455
5.830000	-1175.678120
5.840000	-1105.923726
5.850000	-1037.117881
5.860000	-982.179977
5.870000	-982.179977
5.880000	-982.179977
5.890000	-1119.847098
5.900000	-1276.329930
5.910000	-1396.168966
5.920000	-1479.676168
5.930000	-1529.541524
5.940000	-1529.541524
5.950000	-1529.541524
5.960000	-1519.641437
5.970000	-1496.249048
5.980000	-1475.278064
5.990000	-1438.560530
6.000000	-1406.070736
6.010000	-1406.070736
6.020000	-1406.070736
6.030000	-1418.255198
6.040000	-1436.701044
6.050000	-1436.701044
6.060000	-1436.701044
6.070000	-1436.466568
6.080000	-1407.340351
6.090000	-1364.182826
6.100000	-1334.313755
6.110000	-1311.869531
6.120000	-1271.295546
6.130000	-1249.791940
6.140000	-1216.153669
6.150000	-1175.880233
6.160000	-1140.093155
6.170000	-1098.977788
6.180000	-1047.112309
6.190000	-1004.212820
6.200000	-964.129676
6.210000	-920.517383
6.220000	-877.245981
6.230000	-835.887319
6.240000	-780.386354
6.250000	-737.447972
6.260000	-690.481875
6.270000	-629.100506
6.280000	-629.100506
6.290000	-629.100506
6.300000	-635.136717
6.310000	-774.420695
6.320000	-914.608874
6.330000	-1029.117369
6.340000	-1114.224026
6.350000	-1169.905154
6.360000	-1197.901681
6.370000	-1197.901681
6.380000	-1197.901681
6.390000	-1190.504662
6.400000	-1166.850717
6.410000	-1141.499643
6.420000	-1141.499643
6.430000	-1141.499643
6.440000	-1155.016002
6.450000	-1177.643363
6.460000	-1200.231225
6.470000	-1200.797934
6.480000	-1200.797934
6.490000	-1200.797934
6.500000	-1179.294159
6.510000	-1155.107642
6.520000	-1131.971662
6.530000	-1104.394909
6.540000	-1072.759086
6.550000	-1043.794004
6.560000	-1011.606830
6.570000	-981.318930
6.580000	-944.513553
6.590000	-920.015414
6.600000	-886.407055
6.610000	-857.907649
6.620000	-830.348485
6.630000	-804.913571
6.640000	-786.399369
6.650000	-744.924321
6.660000	-701.691172
6.670000	-661.992517
6.680000	-609.023957
6.690000	-551.232264
6.700000	-551.232264
6.710000	-551.232264
6.720000	-649.110227
6.730000	-829.841625
6.740000	-1000.763191
6.750000	-1149.327496
6.760000	-1243.468300
6.770000	-1304.065029
6.780000	-1304.065029
6.790000	-1304.065029
6.800000	-1299.034600
6.810000	-1284.989179
6.820000	-1253.898250
6.830000	-1222.203311
6.840000	-1222.203311
6.850000	-1222.203311
6.860000	-1249.016826
6.870000	-1278.707250
6.880000	-1295.817682
6.890000	-1295.817682
6.900000	-1295.817682
6.910000	-1291.527479
6.920000	-1262.318334
6.930000	-1244.271400
6.940000	-1213.768392
6.950000	-1181.222513
6.960000	-1142.291988
6.970000	-1091.284313
6.980000	-1035.967276
6.990000	-995.492421
7.000000	-961.682858
7.010000	-927.820193
7.020000	-895.537334
7.030000	-853.227852
7.040000	-811.569552
7.050000	-754.679378
7.060000	-715.853941
7.070000	-682.121190
7.080000	-643.263529
7.090000	-593.693615
7.100000	-593.693615
7.110000	-593.693615
7.120000	-630.392571
7.130000	-798.423756
7.140000	-984.946105
7.150000	-1124.400170
7.160000	-1226.826899
7.170000	-1273.417192
7.180000	-1273.417192
7.190000	-1273.417192
7.200000	-1263.232799
7.210000	-1234.633589
7.220000	-1176.596227
7.230000	-1125.041742
7.240000	-1125.041742
7.250000	-1125.041742
7.260000	-1141.712492
7.270000	-1164.911146
7.280000	-1187.499798
7.290000	-1209.526631
7.300000	-1209.526631
7.310000	-1209.526631
7.320000	-1196.367935
7.330000	-1155.150408
7.340000	-1111.611302
7.350000	-1064.039450
7.360000	-1004.961599
7.370000	-949.112323
7.380000	-896.394067
7.390000	-844.301558
7.400000	-801.981574
7.410000	-755.550631
7.420000	-709.743360
7.430000	-663.908098
7.440000	-620.637285
7.450000	-571.358162
7.460000	-515.676969
7.470000	-475.994157
7.480000	-422.697145
7.490000	-422.697145
7.500000	-422.697145
7.510000	-528.044355
7.520000	-721.756983
7.530000	-901.341095
7.540000	-1048.889003
7.550000	-1159.797813
7.560000	-1215.105017
7.570000	-1239.497842
7.580000	-1247.851708
7.590000	-1247.851708
7.600000	-1247.851708
7.610000	-1227.161812
7.620000	-1207.154114
7.630000	-1207.154114
7.640000	-1207.154114
7.650000	-1246.308141
7.660000	-1265.949499
7.670000	-1281.635774
7.680000	-1282.002965
7.690000	-1282.002965
7.700000	-1282.002965
7.710000	-1260.385378
7.720000	-1224.281868
7.730000	-1198.991494
7.740000	-1174.586111
7.750000	-1132.696373
7.760000	-1101.138999
7.770000	-1068.414895
7.780000	-1046.878861
7.790000	-1013.156565
7.800000	-975.827584
7.810000	-949.034422
7.820000	-906.786790
7.830000	-866.151044
7.840000	-837.848869
7.850000	-813.334833
7.860000	-778.014199
7.870000	-730.675020
7.880000	-730.675020
7.890000	-730.675020
7.900000	-829.953838
7.910000	-1002.384435
7.920000	-1163.648514
7.930000	-1303.884373
7.940000	-1372.348836
7.950000	-1374.656765
7.960000	-1385.618448
7.970000	-1385.618448
7.980000	-1385.618448
7.990000	-1376.903099
8.000000	-1356.003882
8.010000	-1334.707232
8.020000	-1331.902357
8.030000	-1331.902357
8.040000	-1331.902357
8.050000	-1347.916347
8.060000	-1347.916347
8.070000	-1347.916347
8.080000	-1337.894497
8.090000	-1318.909538
8.100000	-1292.457995
8.110000	-1269.673316
8.120000	-1223.027138
8.130000	-1190.729063
8.140000	-1151.544002
8.150000	-1091.916459
8.160000	-1055.327637
8.170000	-993.962771
8.180000	-948.463436
8.190000	-886.918563
8.200000	-840.881829
8.210000	-798.863945
8.220000	-745.396625
8.230000	-692.993027
8.240000	-631.956779
8.250000	-576.293071
8.260000	-512.546877
8.270000	-462.795571
8.280000	-462.795571
8.290000	-462.795571
8.300000	-572.606004
8.310000	-717.515153
8.320000	-838.155948
8.330000	-910.549767
8.340000	-958.939594
8.350000	-958.939594
8.360000	-958.939594
8.370000	-939.634998
8.380000	-921.084215
8.390000	-895.697236
8.400000	-852.339256
8.410000	-813.950482
8.420000	-811.307367
8.430000	-806.887653
8.440000	-801.972345
8.450000	-801.972345
8.460000	-795.142473
8.470000	-763.672716
8.480000	-743.652141
8.490000	-700.271061
8.500000	-659.420620
8.510000	-618.883680
8.520000	-573.271242
8.530000	-523.604135
8.540000	-466.198544
8.550000	-415.463251
8.560000	-361.146449
8.570000	-309.455270
8.580000	-259.160986
8.590000	-189.479992
8.600000	-141.431034
8.610000	-93.417858
8.620000	-46.848740
8.630000	2.576129
8.640000	64.665511
8.650000	118.402928
8.660000	188.222719
8.670000	272.075760
8.680000	272.075760
8.690000	272.075760
8.700000	242.901517
8.710000	124.433726
8.720000	21.140877
8.730000	-42.977846
8.740000	-49.688836
8.750000	-49.688836
8.760000	-49.688836
8.770000	-36.245465
8.780000	-4.468485
8.790000	33.812846
8.800000	84.728313
8.810000	127.770530
8.820000	127.770530
8.830000	128.681964
8.840000	128.681964
8.850000	128.681964
8.860000	133.655887
8.870000	155.584726
8.880000	186.409260
8.890000	217.418564
8.900000	256.140736
8.910000	302.164732
8.920000	354.806227
8.930000	385.770461
8.940000	433.591293
8.950000	480.157261
8.960000	518.343809
8.970000	568.557572
8.980000	610.924203
8.990000	656.983291
9.000000	709.420017
9.010000	751.295457
9.020000	785.912375
9.030000	832.593170
9.040000	877.255125
9.050000	916.863959
9.060000	976.618735
9.070000	1027.930911
9.080000	1027.930911
9.090000	1027.930911
9.100000	945.463089
9.110000	828.804752
9.120000	718.724652
9.130000	651.827985
9.140000	617.805133
9.150000	617.805133
9.160000	617.805133
9.170000	624.619363
9.180000	639.971785
9.190000	676.485892
9.200000	713.879256
9.210000	713.879256
9.220000	713.879256
9.230000	711.205823
9.240000	707.521978
9.250000	696.529771
9.260000	696.529771
9.270000	696.529771
9.280000	701.288751
9.290000	719.089540
9.300000	738.062386
9.310000	755.631091
9.320000	767.788809
9.330000	786.172782
9.340000	808.434441
9.350000	836.684789
9.360000	863.011052
9.370000	880.157546
9.380000	903.609497
9.390000	923.520529
9.400000	934.179521
9.410000	975.970751
9.420000	999.463906
9.430000	1025.575633
9.440000	1066.686689
9.450000	1106.062780
9.460000	1125.174856
9.470000	1125.174856
9.480000	1125.174856
9.490000	998.810487
9.500000	863.422080
9.510000	738.152948
9.520000	648.651947
9.530000	594.388618
9.540000	565.822513
9.550000	553.590550
9.560000	550.966421
9.570000	546.737731
9.580000	546.737731
9.590000	538.199485
9.600000	538.199485
9.610000	532.733913
9.620000	511.578030
9.630000	470.626847
9.640000	442.880123
9.650000	430.403687
9.660000	430.403687
9.670000	430.403687
9.680000	438.330293
9.690000	453.926457
9.700000	457.441887
9.710000	479.792274
9.720000	484.338789
9.730000	502.817010
9.740000	530.105855
9.750000	539.754823
9.760000	566.011555
9.770000	595.534110
9.780000	614.889443
9.790000	645.381494
9.800000	662.614754
9.810000	678.301237
9.820000	717.349737
9.830000	751.047366
9.840000	780.139525
9.850000	828.832056
9.860000	828.832056
9.870000	828.832056
9.880000	772.286254
9.890000	603.549676
9.900000	416.829132
9.910000	258.491410
9.920000	144.263441
9.930000	54.311252
9.940000	-4.252270
9.950000	-34.921882
9.960000	-39.787775
9.970000	-52.264514
9.980000	-61.931054
9.990000	-64.533754
10.000000	-72.254511
10.010000	-92.813444
10.020000	-132.484368
10.030000	-178.175685
10.040000	-212.018339
10.050000	-237.618850
10.060000	-252.557503
10.070000	-252.557503
10.080000	-252.557503
10.090000	-248.634613
10.100000	-227.641257
10.110000	-205.185870
10.120000	-183.210639
10.130000	-159.746734
10.140000	-137.813867
10.150000	-110.299707
10.160000	-78.459809
10.170000	-45.878600
10.180000	-18.130530
10.190000	18.576595
10.200000	54.114153
10.210000	81.020429
10.220000	112.396839
10.230000	144.399456
10.240000	193.717865
10.250000	235.646940
10.260000	280.116376
10.270000	280.116376
10.280000	280.116376
10.290000	160.966203
10.300000	-31.087641
10.310000	-211.802502
10.320000	-369.770464
10.330000	-474.535118
10.340000	-548.614815
10.350000	-582.194756
10.360000	-601.573978
10.370000	-601.593261
10.380000	-601.593261
10.390000	-601.593261
10.400000	-582.940222
10.410000	-582.940222
10.420000	-582.940222
10.430000	-614.433358
10.440000	-632.683145
10.450000	-650.402694
10.460000	-655.141090
10.470000	-655.141090
10.480000	-655.141090
10.490000	-637.406240
10.500000	-611.810939
10.510000	-594.534631
10.520000	-586.450585
10.530000	-572.631191
10.540000	-543.115163
10.550000	-503.782275
10.560000	-469.816031
10.570000	-416.835143
10.580000	-386.709025
10.590000	-353.712230
10.600000	-321.692826
10.610000	-278.554812
10.620000	-245.777835
10.630000	-231.369081
10.640000	-173.679917
10.650000	-119.489240
10.660000	-69.463129
10.670000	-17.598560
10.680000	-17.598560
10.690000	-17.598560
10.700000	-83.198236
10.710000	-254.739874
10.720000	-417.964824
10.730000	-547.852015
10.740000	-649.820347
10.750000	-697.882916
10.760000	-697.882916
10.770000	-697.882916
10.780000	-684.791472
10.790000	-653.874581
10.800000	-610.802759
10.810000	-548.825904
10.820000	-526.119795
10.830000	-526.119795
10.840000	-526.119795
10.850000	-534.270116
10.860000	-537.433991
10.870000	-537.433991
10.880000	-534.270116
10.890000	-522.413660
10.900000	-489.196020
10.910000	-451.443455
10.920000	-414.171698
10.930000	-373.447435
10.940000	-347.205825
10.950000	-306.320160
10.960000	-256.332792
10.970000	-215.224279
10.980000	-163.353271
10.990000	-123.240654
11.000000	-80.267807
11.010000	-43.317247
11.020000	7.902508
11.030000	56.509175
11.040000	93.098873
11.050000	157.476657
11.060000	203.064276
11.070000	260.663358
11.080000	278.713010
11.090000	278.713010
11.100000	278.713010
11.110000	143.198679
11.120000	12.590218
11.130000	-97.519884
11.140000	-168.514869
11.150000	-198.989432
11.160000	-198.989432
11.170000	-198.989432
11.180000	-154.808134
11.190000	-136.757410
11.200000	-107.748606
11.210000	-56.584402
11.220000	-37.956847
11.230000	-37.956847
11.240000	-37.956847
11.250000	-53.602525
11.260000	-53.602525
11.270000	-53.602525
11.280000	-38.908107
11.290000	-21.376728
11.300000	-2.810612
11.310000	35.922577
11.320000	74.194079
11.330000	102.268596
11.340000	153.333849
11.350000	198.461589
11.360000	242.584591
11.370000	275.631734
11.380000	309.915561
11.390000	367.848756
11.400000	407.088198
11.410000	452.269649
11.420000	503.212965
11.430000	549.683594
11.440000	597.402599
11.450000	640.085982
11.460000	702.699850
11.470000	753.354365
11.480000	753.354365
11.490000	753.354365
11.500000	683.580829
11.510000	567.003059
11.520000	463.933951
11.530000	385.474003
11.540000	350.332563
11.550000	350.332563
11.560000	350.332563
11.570000	376.254000
11.580000	399.285442
11.590000	444.803709
11.600000	512.708083
11.610000	567.282469
11.620000	571.855787
11.630000	572.299974
11.640000	572.299974
11.650000	572.299974
11.660000	572.299974
11.670000	588.951436
11.680000	609.929463
11.690000	648.778235
11.700000	688.310603
11.710000	728.682541
11.720000	775.737517
11.730000	806.538226
11.740000	845.324705
11.750000	876.314953
11.760000	926.059389
11.770000	962.963461
11.780000	990.923282
11.790000	1020.662699
11.800000	1047.777839
11.810000	1068.395841
11.820000	1093.706440
11.830000	1133.157090
11.840000	1174.608857
11.850000	1235.031600
11.860000	1286.421260
11.870000	1286.421260
11.880000	1286.421260
11.890000	1178.161253
11.900000	1055.069914
11.910000	967.242105
11.920000	910.947448
11.930000	905.340151
11.940000	905.340151
11.950000	905.340151
11.960000	948.072818
11.970000	958.205816
11.980000	971.484069
11.990000	1017.088894
12.000000	1024.028230
12.010000	1024.028230
12.020000	1024.028230
12.030000	1011.053636
12.040000	1011.053636
12.050000	1011.053636
12.060000	1023.047212
12.070000	1059.092728
12.080000	1089.463616
12.090000	1116.255433
12.100000	1148.936523
12.110000	1187.428206
12.120000	1225.428655
12.130000	1264.659353
12.140000	1289.910635
12.150000	1318.014863
12.160000	1359.411411
12.170000	1399.337498
12.180000	1434.981338
12.190000	1470.716168
12.200000	1512.592136
12.210000	1551.088291
12.220000	1589.273680
12.230000	1642.530336
12.240000	1642.530336
12.250000	1642.530336
12.260000	1605.478627
12.270000	1474.706679
12.280000	1348.189658
12.290000	1257.378113
12.300000	1185.804462
12.310000	1146.164890
12.320000	1137.004110
12.330000	1137.004110
12.340000	1137.004110
12.350000	1141.836751
12.360000	1170.809635
12.370000	1170.809635
12.380000	1170.809635
12.390000	1166.328399
12.400000	1132.572261
12.410000	1106.180646
12.420000	1095.485865
12.430000	1089.814560
12.440000	1089.814560
12.450000	1089.814560
12.460000	1099.568072
12.470000	1123.669733
12.480000	1132.568917
12.490000	1154.715675
12.500000	1173.477128
12.510000	1197.862953
12.520000	1215.356832
12.530000	1237.105542
12.540000	1270.255561
12.550000	1297.310145
12.560000	1312.215097
12.570000	1333.611626
12.580000	1370.175976
12.590000	1395.846064
12.600000	1433.298735
12.610000	1462.949551
12.620000	1462.949551
12.630000	1462.949551
12.640000	1336.910560
12.650000	1179.158520
12.660000	1028.262619
12.670000	915.372406
12.680000	844.565196
12.690000	798.552054
12.700000	761.896873
12.710000	742.820248
12.720000	738.220580
12.730000	738.092157
12.740000	731.564134
12.750000	715.406818
12.760000	669.883651
12.770000	609.837285
12.780000	568.273414
12.790000	523.136406
12.800000	491.790852
12.810000	472.401713
12.820000	455.305219
12.830000	444.723100
12.840000	435.812138
12.850000	435.812138
12.860000	435.812138
12.870000	442.492616
12.880000	461.829378
12.890000	486.875586
12.900000	514.373246
12.910000	549.295079
12.920000	568.854273
12.930000	585.825126
12.940000	617.359684
12.950000	640.256173
12.960000	651.933034
12.970000	671.758277
12.980000	685.424124
12.990000	695.935198
13.000000	695.935198
13.010000	695.935198
13.020000	575.260875
13.030000	386.543657
13.040000	227.001804
13.050000	108.925208
13.060000	6.644259
13.070000	-38.503988
13.080000	-64.927668
13.090000	-76.835178
13.100000	-101.311495
13.110000	-101.311495
13.120000	-107.576132
13.130000	-116.923670
13.140000	-116.923670
13.150000	-161.532622
13.160000	-203.412761
13.170000	-239.915754
13.180000	-262.887778
13.190000	-278.339401
13.200000	-287.351430
13.210000	-300.792668
13.220000	-326.810904
13.230000	-357.204885
13.240000	-357.204885
13.250000	-357.204885
13.260000	-332.507000
13.270000	-297.445379
13.280000	-290.836012
13.290000	-268.925139
13.300000	-241.319284
13.310000	-214.404297
13.320000	-179.770704
13.330000	-152.958557
13.340000	-117.143091
13.350000	-87.611411
13.360000	-74.512297
13.370000	-53.180111
13.380000	-53.180111
13.390000	-53.180111
13.400000	-65.345065
13.410000	-189.507369
13.420000	-336.761271
13.430000	-468.069591
13.440000	-570.263722
13.450000	-660.731463
13.460000	-712.661025
13.470000	-712.661025
13.480000	-712.661025
13.490000	-707.255819
13.500000	-676.535372
13.510000	-633.683447
13.520000	-633.683447
13.530000	-633.683447
13.540000	-675.776856
13.550000	-699.216493
13.560000	-720.612776
13.570000	-731.402518
13.580000	-737.440130
13.590000	-739.725020
13.600000	-752.084845
13.610000	-752.084845
13.620000	-752.084845
13.630000	-747.039635
13.640000	-732.435824
13.650000	-685.774544
13.660000	-649.379020
13.670000	-614.395210
13.680000	-573.352765
13.690000	-538.096100
13.700000	-495.284936
13.710000	-472.938604
13.720000	-467.157874
13.730000	-455.759736
13.740000	-433.105506
13.750000	-376.563857
13.760000	-331.269327
13.770000	-331.269327
13.780000	-331.269327
13.790000	-398.136782
13.800000	-529.583655
13.810000	-661.854646
13.820000	-761.807474
13.830000	-860.782440
13.840000	-919.871557
13.850000	-960.910656
13.860000	-968.181596
13.870000	-968.868337
13.880000	-968.868337
13.890000	-968.181596
13.900000	-976.198966
13.910000	-976.198966
13.920000	-976.198966
13.930000	-1005.801956
13.940000	-1026.861437
13.950000	-1026.861437
13.960000	-1026.861437
13.970000	-1017.134432
13.980000	-979.215711
13.990000	-957.541082
14.000000	-951.484757
14.010000	-926.894465
14.020000	-890.906295
14.030000	-865.327505
14.040000	-810.197807
14.050000	-752.985623
14.060000	-725.541487
14.070000	-705.535309
14.080000	-675.940355
14.090000	-636.171011
14.100000	-581.368579
14.110000	-548.964187
14.120000	-509.655060
14.130000	-469.897346
14.140000	-421.944520
14.150000	-358.874972
14.160000	-318.047686
14.170000	-318.047686
14.180000	-318.047686
14.190000	-426.459808
14.200000	-544.833778
14.210000	-647.145919
14.220000	-720.700112
14.230000	-761.900858
14.240000	-761.900858
14.250000	-761.900858
14.260000	-745.514682
14.270000	-743.711139
14.280000	-743.604930
14.290000	-707.434993
14.300000	-707.434993
14.310000	-707.434993
14.320000	-717.957035
14.330000	-717.957035
14.340000	-717.957035
14.350000	-713.094817
14.360000	-710.120536
14.370000	-709.721862
14.380000	-706.443042
14.390000	-693.162661
14.400000	-646.008009
14.410000	-608.435245
14.420000	-570.202361
14.430000	-538.803332
14.440000	-504.395991
14.450000	-471.257191
14.460000	-455.669682
14.470000	-442.672415
14.480000	-418.995286
14.490000	-376.148122
14.500000	-363.527319
14.510000	-347.443146
14.520000	-316.167267
14.530000	-281.851432
14.540000	-225.770157
14.550000	-184.459318
14.560000	-184.459318
14.570000	-184.459318
14.580000	-241.071353
14.590000	-356.601053
14.600000	-459.774966
14.610000	-545.281637
14.620000	-585.465494
14.630000	-588.107894
14.640000	-603.320686
14.650000	-628.838746
14.660000	-628.838746
14.670000	-628.838746
14.680000	-626.088209
14.690000	-592.479797
14.700000	-574.243780
14.710000	-574.243780
14.720000	-574.243780
14.730000	-570.204852
14.740000	-565.128188
14.750000	-565.128188
14.760000	-539.566241
14.770000	-509.185956
14.780000	-480.752198
14.790000	-460.290479
14.800000	-425.910265
14.810000	-392.544920
14.820000	-382.136350
14.830000	-350.666956
14.840000	-316.582741
14.850000	-295.830857
14.860000	-248.925592
14.870000	-216.262849
14.880000	-174.141062
14.890000	-146.875367
14.900000	-111.274673
14.910000	-85.650469
14.920000	-84.446226
14.930000	-73.340173
14.940000	-29.698393
14.950000	17.780652
14.960000	17.780652
14.970000	17.780652
14.980000	14.624576
14.990000	-86.862387
15.000000	-204.900924
15.010000	-276.506701
15.020000	-323.708197
15.030000	-352.154276
15.040000	-356.831380
15.050000	-364.555617
15.060000	-364.555617
15.070000	-356.831380
15.080000	-369.591309
15.090000	-369.591309
15.100000	-369.591309
15.110000	-417.066461
15.120000	-451.488001
15.130000	-493.145198
15.140000	-521.319837
15.150000	-551.370741
15.160000	-600.203580
15.170000	-624.478409
15.180000	-624.478409
15.190000	-624.478409
15.200000	-613.692771
15.210000	-595.374322
15.220000	-547.063619
15.230000	-527.559431
15.240000	-511.249669
15.250000	-498.863839
15.260000	-475.439472
15.270000	-440.254110
15.280000	-434.791848
15.290000	-434.791848
15.300000	-434.791848
15.310000	-463.807674
15.320000	-486.201221
15.330000	-486.201221
15.340000	-486.201221
15.350000	-467.685934
15.360000	-467.685934
15.370000	-467.685934
15.380000	-470.373341
15.390000	-579.767340
15.400000	-720.979007
15.410000	-840.238463
15.420000	-928.753110
15.430000	-987.781948
15.440000	-1033.613093
15.450000	-1059.960044
15.460000	-1059.960044
15.470000	-1059.960044
15.480000	-1040.391280
15.490000	-1012.658195
15.500000	-974.309163
15.510000	-941.450668
15.520000	-906.204316
15.530000	-860.284958
15.540000	-775.086374
15.550000	-646.228283
15.560000	-480.040117
15.570000	-332.349597
15.580000	-208.898096
15.590000	-109.496185
15.600000	-7.725356
15.610000	82.204559
15.620000	154.429468
15.630000	236.957743
15.640000	295.372487
15.650000	349.820681
15.660000	384.176009
15.670000	427.768839
15.680000	476.849279
15.690000	527.677865
15.700000	577.486288
15.710000	639.592373
15.720000	715.051142
15.730000	778.395783
15.740000	842.683768
15.750000	842.683768
15.760000	842.683768
15.770000	803.628377
15.780000	678.140406
15.790000	554.056147
15.800000	461.972923
15.810000	400.359019
15.820000	358.744419
15.830000	339.661308
15.840000	319.407738
15.850000	311.028575
15.860000	278.901611
15.870000	244.517093
15.880000	242.395825
15.890000	210.705689
15.900000	177.100701
15.910000	142.786683
15.920000	96.737180
15.930000	51.898880
15.940000	-7.740362
15.950000	-48.887828
15.960000	-48.940821
15.970000	-48.940821
15.980000	-48.940821
15.990000	-34.626004
16.000000	-1.563994
16.010000	41.414568
16.020000	69.736370
16.030000	116.580695
16.040000	162.860272
16.050000	218.794565
16.060000	276.902966
16.070000	325.965726
16.080000	372.963363
16.090000	404.047547
16.100000	404.047547
16.110000	404.047547
16.120000	370.902292
16.130000	258.281491
16.140000	122.880341
16.150000	19.444345
16.160000	-43.299130
16.170000	-70.461802
16.180000	-95.587547
16.190000	-109.200248
16.200000	-109.200248
16.210000	-109.200248
16.220000	-84.191401
16.230000	-50.178297
16.240000	-23.543028
16.250000	-23.543028
16.260000	-23.543028
16.270000	-32.358727
16.280000	-46.937056
16.290000	-46.937056
16.300000	-46.937056
16.310000	-38.109539
16.320000	-17.180490
16.330000	18.550081
16.340000	63.567488
16.350000	108.169720
16.360000	139.277852
16.370000	177.854659
16.380000	185.797933
16.390000	208.741668
16.400000	244.157955
16.410000	276.565459
16.420000	340.628200
16.430000	368.618151
16.440000	368.618151
16.450000	368.618151
16.460000	260.799673
16.470000	131.138854
16.480000	10.400023
16.490000	-66.355246
16.500000	-95.946285
16.510000	-95.946285
16.520000	-95.946285
16.530000	-74.097851
16.540000	-59.760855
16.550000	-54.434519
16.560000	-19.490960
16.570000	-19.490960
16.580000	-19.490960
16.590000	-37.616676
16.600000	-56.797189
16.610000	-71.224276
16.620000	-71.224276
16.630000	-71.224276
16.640000	-66.159656
16.650000	-36.677768
16.660000	-8.808757
16.670000	31.562268
16.680000	73.448962
16.690000	120.819267
16.700000	175.677304
16.710000	207.964346
16.720000	244.036865
16.730000	271.980708
16.740000	318.478954
16.750000	370.865635
16.760000	370.865635
16.770000	370.865635
16.780000	348.245683
16.790000	249.712476
16.800000	148.573074
16.810000	80.707741
16.820000	37.756395
16.830000	20.706225
16.840000	16.921036
16.850000	16.921036
16.860000	16.921036
16.870000	39.834791
16.880000	66.938934
16.890000	66.938934
16.900000	66.938934
16.910000	54.790989
16.920000	41.951738
16.930000	41.951738
16.940000	41.951738
16.950000	56.700530
16.960000	74.802898
16.970000	97.771535
16.980000	116.561976
16.990000	152.906287
17.000000	193.203327
17.010000	224.020924
17.020000	258.898276
17.030000	286.045609
17.040000	332.680076
17.050000	366.887697
17.060000	410.589641
17.070000	449.610638
17.080000	493.544574
17.090000	546.298130
17.100000	546.298130
17.110000	546.298130
17.120000	467.350566
17.130000	359.640336
17.140000	253.209837
17.150000	196.428286
17.160000	161.841545
17.170000	130.219580
17.180000	129.583852
17.190000	125.598378
17.200000	125.598378
17.210000	125.598378
17.220000	152.863421
17.230000	152.863421
17.240000	152.863421
17.250000	152.054181
17.260000	142.550810
17.270000	142.550810
17.280000	142.550810
17.290000	145.082869
17.300000	152.660597
17.310000	168.616120
17.320000	180.286755
17.330000	184.156145
17.340000	207.980506
17.350000	233.551673
17.360000	245.664297
17.370000	268.035944
17.380000	293.244442
17.390000	332.553458
17.400000	360.706242
17.410000	385.142777
17.420000	402.119362
17.430000	430.777019
17.440000	479.484997
17.450000	479.484997
17.460000	479.484997
17.470000	468.615225
17.480000	336.506823
17.490000	208.101495
17.500000	129.015839
17.510000	72.370892
17.520000	24.835087
17.530000	24.835087
17.540000	24.835087
17.550000	33.236961
17.560000	35.677554
17.570000	39.121678
17.580000	39.121678
17.590000	37.878183
17.600000	37.878183
17.610000	32.286148
17.620000	20.677353
17.630000	20.677353
17.640000	20.677353
17.650000	26.117570
17.660000	39.513612
17.670000	54.530204
17.680000	83.687041
17.690000	108.841004
17.700000	136.911697
17.710000	171.124052
17.720000	210.106126
17.730000	251.386483
17.740000	281.252086
17.750000	317.718467
17.760000	354.313195
17.770000	377.012114
17.780000	427.509740
17.790000	469.072748
17.800000	508.809084
17.810000	562.138585
17.820000	562.138585
17.830000	562.138585
17.840000	474.125588
17.850000	337.420549
17.860000	222.233735
17.870000	147.581294
17.880000	103.243791
17.890000	89.753742
17.900000	88.182533
17.910000	74.895365
17.920000	66.170447
17.930000	66.170447
17.940000	66.170447
17.950000	82.339916
17.960000	82.339916
17.970000	82.339916
17.980000	73.886415
17.990000	49.402974
18.000000	48.807606
18.010000	48.807606
18.020000	48.807606
18.030000	73.382893
18.040000	94.706588
18.050000	103.348651
18.060000	106.633092
18.070000	133.354843
18.080000	160.398438
18.090000	178.380122
18.100000	203.214595
18.110000	225.316647
18.120000	245.039284
18.130000	272.260518
18.140000	309.825792
18.150000	347.148581
18.160000	384.623491
18.170000	386.815553
18.180000	386.815553
18.190000	386.815553
18.200000	277.191161
18.210000	162.671544
18.220000	91.036020
18.230000	46.333087
18.240000	28.958250
18.250000	28.958250
18.260000	28.958250
18.270000	33.671729
18.280000	34.392398
18.290000	66.522270
18.300000	92.852055
18.310000	92.852055
18.320000	92.852055
18.330000	66.248903
18.340000	63.847487
18.350000	63.847487
18.360000	63.847487
18.370000	68.149645
18.380000	71.730072
18.390000	73.494017
18.400000	83.622982
18.410000	105.799818
18.420000	114.414638
18.430000	142.245107
18.440000	174.053459
18.450000	209.710858
18.460000	249.672769
18.470000	295.157508
18.480000	334.234685
18.490000	366.614767
18.500000	408.821331
18.510000	454.988994
18.520000	454.988994
18.530000	454.988994
18.540000	360.765488
18.550000	221.912116
18.560000	99.248892
18.570000	7.314413
18.580000	-50.320050
18.590000	-91.364068
18.600000	-107.840877
18.610000	-109.981993
18.620000	-109.981993
18.630000	-109.981993
18.640000	-93.347069
18.650000	-93.347069
18.660000	-93.347069
18.670000	-113.568571
18.680000	-133.060151
18.690000	-164.317587
18.700000	-185.702939
18.710000	-185.702939
18.720000	-185.702939
18.730000	-180.915864
18.740000	-154.185783
18.750000	-134.769486
18.760000	-102.871805
18.770000	-69.732473
18.780000	-47.584773
18.790000	-15.629040
18.800000	12.583514
18.810000	49.521370
18.820000	73.633787
18.830000	111.780074
18.840000	132.499121
18.850000	162.172800
18.860000	204.276600
18.870000	241.483357
18.880000	245.925465
18.890000	245.925465
18.900000	245.925465
18.910000	104.793002
18.920000	-53.035186
18.930000	-181.135419
18.940000	-281.153579
18.950000	-354.087878
18.960000	-393.276850
18.970000	-417.135224
18.980000	-440.416175
18.990000	-453.209581
19.000000	-453.209581
19.010000	-459.157372
19.020000	-465.571288
19.030000	-475.244300
19.040000	-508.080309
19.050000	-551.350484
19.060000	-561.211888
19.070000	-567.056402
19.080000	-567.056402
19.090000	-567.056402
19.100000	-554.372505
19.110000	-529.444903
19.120000	-512.559973
19.130000	-487.761067
19.140000	-463.842675
19.150000	-432.056345
19.160000	-406.214680
19.170000	-383.332864
19.180000	-358.609106
19.190000	-325.632406
19.200000	-285.050392
19.210000	-263.029538
19.220000	-231.369884
19.230000	-189.530188
19.240000	-146.743795
19.250000	-98.019364
19.260000	-46.166747
19.270000	-46.166747
19.280000	-46.166747
19.290000	-115.063844
19.300000	-264.108403
19.310000	-401.582341
19.320000	-523.649848
19.330000	-607.075291
19.340000	-658.300552
19.350000	-695.628576
19.360000	-728.955931
19.370000	-754.171151
19.380000	-775.662416
19.390000	-783.371211
19.400000	-788.418012
19.410000	-789.719236
19.420000	-802.012550
19.430000	-818.135754
19.440000	-830.681295
19.450000	-834.766398
19.460000	-834.766398
19.470000	-834.766398
19.480000	-823.965772
19.490000	-802.677964
19.500000	-793.684968
19.510000	-757.445638
19.520000	-721.615937
19.530000	-692.180924
19.540000	-659.531126
19.550000	-625.975911
19.560000	-584.447432
19.570000	-553.869063
19.580000	-514.283631
19.590000	-472.863306
19.600000	-448.177605
19.610000	-413.760216
19.620000	-376.188587
19.630000	-325.638214
19.640000	-286.319065
19.650000	-250.454255
19.660000	-195.434581
19.670000	-168.395601
19.680000	-168.395601
19.690000	-168.395601
19.700000	-284.732978
19.710000	-417.248198
19.720000	-529.927140
19.730000	-610.190043
19.740000	-659.183754
19.750000	-694.200848
19.760000	-712.409567
19.770000	-735.302788
19.780000	-741.632725
19.790000	-744.907421
19.800000	-746.555689
19.810000	-756.501973
19.820000	-772.632627
19.830000	-794.234939
19.840000	-811.745266
19.850000	-811.745266
19.860000	-811.745266
19.870000	-810.025398
19.880000	-794.957405
19.890000	-765.393140
19.900000	-731.186432
19.910000	-693.759534
19.920000	-658.447798
19.930000	-627.137826
19.940000	-589.697300
19.950000	-545.563317
19.960000	-502.991705
19.970000	-470.008623
19.980000	-425.225525
19.990000	-379.562629
20.000000	-337.461265
20.010000	-293.107934
20.020000	-238.710786
20.030000	-198.760867
20.040000	-158.872232
20.050000	-100.420606
20.060000	-48.171039
20.070000	12.008558
20.080000	12.008558
20.090000	12.008558
20.100000	9.690107
20.110000	-116.644634
20.120000	-221.921048
20.130000	-309.052058
20.140000	-356.481107
20.150000	-380.579501
20.160000	-381.748073
20.170000	-384.052142
20.180000	-384.052142
20.190000	-381.748073
20.200000	-367.348173
20.210000	-362.460021
20.220000	-362.460021
20.230000	-362.460021
20.240000	-383.681410
20.250000	-413.095359
20.260000	-454.254783
20.270000	-514.754330
20.280000	-564.737536
20.290000	-622.557659
20.300000	-701.217240
20.310000	-701.217240
20.320000	-701.217240
20.330000	-691.911951
20.340000	-666.419735
20.350000	-615.592500
20.360000	-556.095701
20.370000	-472.193508
20.380000	-394.909217
20.390000	-346.779997
20.400000	-295.580777
20.410000	-230.433230
20.420000	-187.389004
20.430000	-138.919261
20.440000	-62.217285
20.450000	22.469718
20.460000	120.017044
20.470000	226.829387
20.480000	293.426887
20.490000	293.426887
20.500000	293.426887
20.510000	201.599629
20.520000	120.652275
20.530000	84.040974
20.540000	58.691286
20.550000	50.586284
20.560000	42.664030
20.570000	42.664030
20.580000	42.664030
20.590000	47.532342
20.600000	91.054685
20.610000	132.672180
20.620000	146.397599
20.630000	161.964433
20.640000	184.673113
20.650000	199.200080
20.660000	210.003329
20.670000	232.466436
20.680000	238.214388
20.690000	264.915542
20.700000	300.289945
20.710000	332.367507
20.720000	358.393142
20.730000	394.875033
20.740000	431.425439
20.750000	471.423660
20.760000	506.428874
20.770000	539.006430
20.780000	576.449517
20.790000	610.551156
20.800000	644.506307
20.810000	667.061327
20.820000	715.702388
20.830000	752.369721
20.840000	803.080463
20.850000	803.080463
20.860000	803.080463
20.870000	740.574294
20.880000	621.223754
20.890000	513.669097
20.900000	425.807415
20.910000	377.805476
20.920000	343.271327
20.930000	341.357285
20.940000	341.357285
20.950000	341.357285
20.960000	344.046706
20.970000	351.710069
20.980000	351.710069
20.990000	351.710069
21.000000	344.817363
21.010000	322.469703
21.020000	318.173769
21.030000	318.173769
21.040000	318.173769
21.050000	318.259412
21.060000	331.930586
21.070000	350.776712
21.080000	384.274376
21.090000	399.188751
21.100000	418.785610
21.110000	452.575483
21.120000	481.230316
21.130000	517.061998
21.140000	543.609078
21.150000	568.628314
21.160000	609.026450
21.170000	649.118784
21.180000	696.521678
21.190000	696.521678
21.200000	696.521678
21.210000	662.901790
21.220000	547.812822
21.230000	430.269531
21.240000	335.566213
21.250000	272.607318
21.260000	231.282598
21.270000	222.470420
21.280000	222.470420
21.290000	222.470420
21.300000	233.641376
21.310000	256.927513
21.320000	260.103463
21.330000	260.103463
21.340000	260.103463
21.350000	238.872534
21.360000	219.510421
21.370000	219.510421
21.380000	219.510421
21.390000	223.060569
21.400000	230.211684
21.410000	258.736108
21.420000	278.799709
21.430000	291.514290
21.440000	320.467243
21.450000	337.167339
21.460000	362.287842
21.470000	386.756846
21.480000	406.139453
21.490000	438.426341
21.500000	474.936320
21.510000	512.877509
21.520000	512.877509
21.530000	512.877509
21.540000	399.493162
21.550000	277.762719
21.560000	165.259799
21.570000	94.708793
21.580000	42.892135
21.590000	19.765420
21.600000	19.765420
21.610000	19.765420
21.620000	28.199612
21.630000	45.830082
21.640000	68.918258
21.650000	68.918258
21.660000	68.918258
21.670000	43.605341
21.680000	25.916382
21.690000	9.310885
21.700000	9.310885
21.710000	9.310885
21.720000	18.958548
21.730000	24.295545
21.740000	52.011466
21.750000	78.162038
21.760000	95.130221
21.770000	130.145320
21.780000	163.140242
21.790000	190.194208
21.800000	225.220592
21.810000	255.190529
21.820000	295.400256
21.830000	295.400256
21.840000	295.400256
21.850000	245.069889
21.860000	114.887257
21.870000	-7.854681
21.880000	-106.878687
21.890000	-170.770539
21.900000	-213.692735
21.910000	-237.630732
21.920000	-240.176562
21.930000	-240.176562
21.940000	-240.176562
21.950000	-215.345302
21.960000	-215.345302
21.970000	-215.345302
21.980000	-221.891679
21.990000	-243.640254
22.000000	-264.670912
22.010000	-264.670912
22.020000	-264.670912
22.030000	-260.911103
22.040000	-248.225856
22.050000	-211.394533
22.060000	-160.094572
22.070000	-111.875976
22.080000	-56.864255
22.090000	-17.422150
22.100000	45.558810
22.110000	105.876308
22.120000	149.038152
22.130000	198.302667
22.140000	245.455369
22.150000	267.267936
22.160000	267.267936
22.170000	267.267936
22.180000	148.272388
22.190000	12.945982
22.200000	-98.280524
22.210000	-184.459431
22.220000	-239.795043
22.230000	-271.876436
22.240000	-299.895016
22.250000	-299.895016
22.260000	-299.895016
22.270000	-264.346365
22.280000	-207.516187
22.290000	-204.827920
22.300000	-204.827920
22.310000	-204.827920
22.320000	-204.827920
22.330000	-204.827920
22.340000	-204.525147
22.350000	-172.630331
22.360000	-142.713465
22.370000	-93.932612
22.380000	-58.019458
22.390000	3.986104
22.400000	54.491240
22.410000	96.042130
22.420000	162.114067
22.430000	214.929748
22.440000	267.904907
22.450000	325.821171
22.460000	388.710332
22.470000	443.704906
22.480000	502.611373
22.490000	552.548788
22.500000	552.548788
22.510000	552.548788
22.520000	522.833255
22.530000	432.003909
22.540000	339.980992
22.550000	287.919259
22.560000	256.992586
22.570000	231.872897
22.580000	231.872897
22.590000	231.872897
22.600000	232.236019
22.610000	249.791524
22.620000	275.434093
22.630000	284.757998
22.640000	284.757998
22.650000	284.757998
22.660000	264.888854
22.670000	253.917421
22.680000	249.306766
22.690000	249.306766
22.700000	249.306766
22.710000	264.232876
22.720000	290.621849
22.730000	314.354883
22.740000	331.996077
22.750000	360.562922
22.760000	388.321242
22.770000	415.834691
22.780000	451.698463
22.790000	484.080393
22.800000	513.138696
22.810000	557.406681
22.820000	598.507704
22.830000	649.850451
22.840000	705.854766
22.850000	705.854766
22.860000	705.854766
22.870000	640.703744
22.880000	541.914389
22.890000	455.035369
22.900000	396.615980
22.910000	363.342726
22.920000	354.114466
22.930000	354.114466
22.940000	354.114466
22.950000	357.010848
22.960000	367.971308
22.970000	400.390403
22.980000	400.390403
22.990000	400.390403
23.000000	394.321883
23.010000	390.747345
23.020000	385.322943
23.030000	385.322943
23.040000	385.322943
23.050000	406.676775
23.060000	428.763525
23.070000	452.739901
23.080000	488.257341
23.090000	512.744383
23.100000	541.886041
23.110000	571.724674
23.120000	601.553376
23.130000	634.745822
23.140000	682.271160
23.150000	726.718546
23.160000	775.085439
23.170000	843.746407
23.180000	889.766125
23.190000	889.766125
23.200000	889.766125
23.210000	808.382188
23.220000	706.959486
23.230000	612.693948
23.240000	555.730917
23.250000	525.182402
23.260000	525.182402
23.270000	523.918154
23.280000	513.554060
23.290000	476.397547
23.300000	411.423819
23.310000	302.022503
23.320000	302.022503
23.330000	302.022503
23.340000	328.850874
23.350000	328.850874
23.360000	328.850874
23.370000	308.552893
23.380000	308.552893
23.390000	308.552893
23.400000	316.170065
23.410000	344.419917
23.420000	373.744541
23.430000	409.381136
23.440000	428.267224
23.450000	458.508663
23.460000	460.973741
23.470000	460.973741
23.480000	467.649172
23.490000	472.797760
23.500000	487.325312
23.510000	550.586898
23.520000	613.946410
23.530000	613.946410
23.540000	613.946410
23.550000	522.489776
23.560000	424.403448
23.570000	360.011995
23.580000	307.713784
23.590000	255.583967
23.600000	236.169230
23.610000	228.030420
23.620000	228.030420
23.630000	228.030420
23.640000	242.285353
23.650000	242.285353
23.660000	242.285353
23.670000	235.434664
23.680000	219.481685
23.690000	196.985550
23.700000	180.120087
23.710000	180.120087
23.720000	180.120087
23.730000	183.468697
23.740000	187.034335
23.750000	192.704027
23.760000	202.039943
23.770000	221.455195
23.780000	231.549452
23.790000	240.300278
23.800000	252.067507
23.810000	270.160721
23.820000	293.591763
23.830000	308.002206
23.840000	321.194408
23.850000	321.194408
23.860000	321.194408
23.870000	235.606490
23.880000	110.600540
23.890000	-1.610796
23.900000	-78.597939
23.910000	-135.916639
23.920000	-175.744154
23.930000	-208.229111
23.940000	-230.840531
23.950000	-264.042274
23.960000	-264.591488
23.970000	-274.769344
23.980000	-275.795978
23.990000	-279.275661
24.000000	-305.980074
24.010000	-328.333517
24.020000	-352.243094
24.030000	-365.328344
24.040000	-365.328344
24.050000	-365.328344
24.060000	-361.813225
24.070000	-354.343881
24.080000	-346.952480
24.090000	-340.426738
24.100000	-331.068225
24.110000	-313.494001
24.120000	-294.205864
24.130000	-275.539289
24.140000	-251.309785
24.150000	-223.597172
24.160000	-194.403602
24.170000	-194.403602
24.180000	-194.403602
24.190000	-212.945061
24.200000	-341.239824
24.210000	-461.053725
24.220000	-570.216413
24.230000	-641.083975
24.240000	-692.311916
24.250000	-728.066373
24.260000	-751.396485
24.270000	-770.054008
24.280000	-770.054008
24.290000	-773.846047
24.300000	-773.965511
24.310000	-773.965511
24.320000	-778.714369
24.330000	-814.891515
24.340000	-835.462414
24.350000	-838.550535
24.360000	-838.550535
24.370000	-835.462414
24.380000	-829.225293
24.390000	-807.392399
24.400000	-796.987101
24.410000	-774.526470
24.420000	-759.862476
24.430000	-736.555515
24.440000	-711.797512
24.450000	-685.559582
24.460000	-663.743785
24.470000	-632.504446
24.480000	-598.742160
24.490000	-579.472294
24.500000	-549.620212
24.510000	-517.527273
24.520000	-469.432981
24.530000	-469.432981
24.540000	-469.432981
24.550000	-536.838114
24.560000	-668.915961
24.570000	-775.873903
24.580000	-863.776181
24.590000	-917.848276
24.600000	-955.721266
24.610000	-975.765645
24.620000	-984.685166
24.630000	-984.685166
24.640000	-984.685166
24.650000	-962.644573
24.660000	-962.644573
24.670000	-962.644573
24.680000	-976.559477
24.690000	-988.265544
24.700000	-998.631964
24.710000	-998.631964
24.720000	-998.631964
24.730000	-997.806758
24.740000	-983.663184
24.750000	-958.654803
24.760000	-937.661682
24.770000	-905.415703
24.780000	-874.732908
24.790000	-834.105315
24.800000	-795.865055
24.810000	-774.797022
24.820000	-733.850099
24.830000	-703.669839
24.840000	-666.697825
24.850000	-623.587650
24.860000	-589.580482
24.870000	-548.413687
24.880000	-512.536638
24.890000	-475.181462
24.900000	-418.456638
24.910000	-418.456638
24.920000	-418.456638
24.930000	-424.095403
24.940000	-540.985804
24.950000	-630.864223
24.960000	-685.896022
24.970000	-685.896022
24.980000	-685.896022
24.990000	-680.373617
25.000000	-643.819676
25.010000	-603.083170
25.020000	-576.820382
25.030000	-537.658816
25.040000	-497.922461
25.050000	-490.872262
25.060000	-489.914692
25.070000	-489.914692
25.080000	-490.872262
25.090000	-498.676050
25.100000	-498.676050
25.110000	-498.676050
25.120000	-483.030700
25.130000	-457.718519
25.140000	-428.561397
25.150000	-404.760518
25.160000	-393.075428
25.170000	-369.708417
25.180000	-357.707737
25.190000	-340.536991
25.200000	-313.361365
25.210000	-284.390350
25.220000	-251.976655
25.230000	-218.242571
25.240000	-181.569954
25.250000	-142.087645
25.260000	-102.157211
25.270000	-89.714820
25.280000	-89.714820
25.290000	-89.714820
25.300000	-200.391757
25.310000	-301.317058
25.320000	-389.128206
25.330000	-445.865397
25.340000	-471.900963
25.350000	-471.900963
25.360000	-471.900963
25.370000	-456.954711
25.380000	-435.471878
25.390000	-392.267406
25.400000	-363.489155
25.410000	-361.833782
25.420000	-360.124036
25.430000	-358.490731
25.440000	-350.390874
25.450000	-347.255282
25.460000	-328.850069
25.470000	-309.657016
25.480000	-283.528538
25.490000	-248.051093
25.500000	-207.206383
25.510000	-177.460994
25.520000	-139.767941
25.530000	-101.925602
25.540000	-66.295257
25.550000	-43.393017
25.560000	0.318297
25.570000	35.988376
25.580000	71.051953
25.590000	103.364183
25.600000	135.820463
25.610000	174.770773
25.620000	211.569362
25.630000	233.716440
25.640000	233.716440
25.650000	233.716440
25.660000	117.015624
25.670000	14.458091
25.680000	-60.374151
25.690000	-102.801185
25.700000	-122.780332
25.710000	-130.035749
25.720000	-132.156300
25.730000	-132.156300
25.740000	-132.156300
25.750000	-115.295968
25.760000	-78.252117
25.770000	-78.252117
25.780000	-78.252117
25.790000	-83.511794
25.800000	-88.553652
25.810000	-91.695694
25.820000	-91.695694
25.830000	-91.695694
25.840000	-72.890558
25.850000	-45.846569
25.860000	-6.949285
25.870000	24.969462
25.880000	53.081263
25.890000	82.820834
25.900000	120.142649
25.910000	147.637732
25.920000	192.356123
25.930000	232.350315
25.940000	281.699090
25.950000	336.043081
25.960000	375.029232
25.970000	429.908964
25.980000	473.229797
25.990000	528.947975
26.000000	566.354749
26.010000	566.354749
26.020000	566.354749
26.030000	459.313045
26.040000	339.624106
26.050000	259.558178
26.060000	221.791004
26.070000	221.791004
26.080000	221.791004
26.090000	242.025862
26.100000	282.314063
26.110000	308.260321
26.120000	342.754865
26.130000	385.466467
26.140000	408.755146
26.150000	408.755146
26.160000	408.755146
26.170000	408.755146
26.180000	408.755146
26.190000	413.267808
26.200000	426.884128
26.210000	450.693554
26.220000	471.399325
26.230000	508.246413
26.240000	531.818816
26.250000	553.950723
26.260000	579.256841
26.270000	623.724835
26.280000	649.585984
26.290000	688.729227
26.300000	720.810819
26.310000	736.804042
26.320000	778.213966
26.330000	806.699256
26.340000	851.843552
26.350000	886.478643
26.360000	929.479298
26.370000	929.479298
26.380000	929.479298
26.390000	818.887899
26.400000	677.578644
26.410000	572.700123
26.420000	494.507882
26.430000	445.587423
26.440000	426.399685
26.450000	426.399685
26.460000	426.399685
26.470000	446.546877
26.480000	464.392741
26.490000	503.678232
26.500000	503.678232
26.510000	503.678232
26.520000	480.307883
26.530000	451.099599
26.540000	441.426607
26.550000	432.698437
26.560000	432.698437
26.570000	432.698437
26.580000	450.127259
26.590000	474.328138
26.600000	484.575665
26.610000	502.508789
26.620000	520.988099
26.630000	538.748714
26.640000	563.468301
26.650000	594.007692
26.660000	616.958131
26.670000	647.388269
26.680000	670.409116
26.690000	715.935387
26.700000	744.713653
26.710000	744.713653
26.720000	744.713653
26.730000	740.503651
26.740000	614.291658
26.750000	473.363652
26.760000	365.784986
26.770000	281.106650
26.780000	227.372828
26.790000	199.858307
26.800000	190.996602
26.810000	190.521229
26.820000	190.521229
26.830000	190.521229
26.840000	196.377979
26.850000	196.377979
26.860000	196.377979
26.870000	189.054100
26.880000	158.228520
26.890000	124.048774
26.900000	120.159856
26.910000	120.159856
26.920000	120.159856
26.930000	134.618026
26.940000	148.583205
26.950000	164.447055
26.960000	183.854442
26.970000	214.335902
26.980000	233.085998
26.990000	260.386715
27.000000	277.253312
27.010000	296.568646
27.020000	331.464882
27.030000	363.707976
27.040000	403.798901
27.050000	403.798901
27.060000	403.798901
27.070000	374.086194
27.080000	236.479033
27.090000	96.481844
27.100000	-6.102233
27.110000	-85.226850
27.120000	-144.612128
27.130000	-168.839754
27.140000	-195.223670
27.150000	-196.498516
27.160000	-196.498516
27.170000	-196.498516
27.180000	-192.034747
27.190000	-192.034747
27.200000	-192.034747
27.210000	-226.324078
27.220000	-248.217746
27.230000	-256.873624
27.240000	-259.785480
27.250000	-259.785480
27.260000	-259.785480
27.270000	-244.393716
27.280000	-228.126129
27.290000	-219.554665
27.300000	-198.344655
27.310000	-166.734901
27.320000	-144.568834
27.330000	-114.771051
27.340000	-79.804004
27.350000	-51.791074
27.360000	-14.919795
27.370000	25.172628
27.380000	61.001970
27.390000	61.001970
27.400000	61.001970
27.410000	59.240487
27.420000	-68.034937
27.430000	-201.579498
27.440000	-285.900962
27.450000	-353.598882
27.460000	-387.587981
27.470000	-388.560962
27.480000	-388.560962
27.490000	-388.560962
27.500000	-382.041805
27.510000	-348.188363
27.520000	-307.970170
27.530000	-306.408058
27.540000	-306.408058
27.550000	-306.408058
27.560000	-310.114116
27.570000	-310.114116
27.580000	-310.114116
27.590000	-296.550851
27.600000	-277.628977
27.610000	-246.131110
27.620000	-215.156968
27.630000	-180.621474
27.640000	-144.659320
27.650000	-104.054391
27.660000	-74.169923
27.670000	-39.359328
27.680000	-10.711116
27.690000	22.438349
27.700000	70.790697
27.710000	112.188709
27.720000	160.434237
27.730000	214.942549
27.740000	214.942549
27.750000	214.942549
27.760000	173.834451
27.770000	50.543173
27.780000	-54.246613
27.790000	-128.685685
27.800000	-174.321293
27.810000	-174.321293
27.820000	-174.321293
27.830000	-172.903881
27.840000	-150.520288
27.850000	-131.932258
27.860000	-87.450054
27.870000	-67.262168
27.880000	-67.262168
27.890000	-67.262168
27.900000	-76.911212
27.910000	-76.911212
27.920000	-76.911212
27.930000	-61.477889
27.940000	-44.177078
27.950000	-15.444578
27.960000	1.120174
27.970000	38.788622
27.980000	65.281110
27.990000	88.175050
28.000000	122.506323
28.010000	149.512475
28.020000	179.856214
28.030000	214.868159
28.040000	261.264820
28.050000	294.181056
28.060000	343.868792
28.070000	368.718256
28.080000	368.718256
28.090000	368.718256
28.100000	275.171876
28.110000	169.182998
28.120000	96.932149
28.130000	60.570941
28.140000	60.441582
28.150000	60.441582
28.160000	60.441582
28.170000	74.566004
28.180000	74.566004
28.190000	74.566004
