Time(s)	IR_denoised_wiener
0.000000	78.224897
0.010000	99.551666
0.020000	45.100992
0.030000	-36.052565
0.040000	-144.072341
0.050000	-263.942146
0.060000	-359.180882
0.070000	-402.184056
0.080000	-408.736997
0.090000	-410.130737
0.100000	-395.840892
0.110000	-334.349499
0.120000	-230.374495
0.130000	-135.026304
0.140000	-62.471022
0.150000	-13.999243
0.160000	-12.625816
0.170000	-58.241037
0.180000	-143.760924
0.190000	-229.058646
0.200000	-299.633421
0.210000	-340.876730
0.220000	-351.878075
0.230000	-329.690854
0.240000	-271.124118
0.250000	-195.569488
0.260000	-135.074497
0.270000	-110.086259
0.280000	-108.271931
0.290000	-111.591528
0.300000	-118.519314
0.310000	-135.122663
0.320000	-165.767453
0.330000	-185.913585
0.340000	-180.380895
0.350000	-140.729697
0.360000	-81.063344
0.370000	-19.898769
0.380000	28.591556
0.390000	60.284765
0.400000	82.602758
0.410000	106.803016
0.420000	143.268660
0.430000	182.256010
0.440000	226.291206
0.450000	264.661839
0.460000	321.063703
0.470000	384.293511
0.480000	439.814990
0.490000	467.898444
0.500000	459.917207
0.510000	415.847012
0.520000	339.014876
0.530000	261.192857
0.540000	210.755263
0.550000	209.839853
0.560000	245.383477
0.570000	277.396966
0.580000	274.017642
0.590000	228.673397
0.600000	172.738777
0.610000	114.201227
0.620000	57.097581
0.630000	8.385153
0.640000	-27.235521
0.650000	-35.758186
0.660000	-22.307773
0.670000	17.771619
0.680000	64.531562
0.690000	105.634377
0.700000	126.676825
0.710000	135.870400
0.720000	137.789468
0.730000	142.097319
0.740000	149.854952
0.750000	156.952720
0.760000	162.571704
0.770000	162.774666
0.780000	165.629417
0.790000	184.585592
0.800000	222.297891
0.810000	273.013378
0.820000	329.267822
0.830000	372.048476
0.840000	406.275390
0.850000	425.356728
0.860000	441.639280
0.870000	442.567085
0.880000	400.932960
0.890000	314.482200
0.900000	203.925463
0.910000	106.745315
0.920000	37.155510
0.930000	-13.754111
0.940000	-62.000141
0.950000	-111.587207
0.960000	-160.172169
0.970000	-195.427175
0.980000	-218.415755
0.990000	-230.971182
1.000000	-243.050726
1.010000	-264.216991
1.020000	-290.017233
1.030000	-322.183625
1.040000	-356.337935
1.050000	-385.514603
1.060000	-404.368343
1.070000	-411.896566
1.080000	-424.820286
1.090000	-441.267448
1.100000	-455.635763
1.110000	-460.340455
1.120000	-459.524812
1.130000	-452.107592
1.140000	-441.468376
1.150000	-423.897968
1.160000	-403.810737
1.170000	-380.718473
1.180000	-354.197309
1.190000	-348.651641
1.200000	-376.261876
1.210000	-419.214429
1.220000	-441.990244
1.230000	-433.557330
1.240000	-434.908117
1.250000	-510.344622
1.260000	-710.168325
1.270000	-1018.784856
1.280000	-1361.654618
1.290000	-1624.686219
1.300000	-1762.871700
1.310000	-1755.200104
1.320000	-1653.703357
1.330000	-1480.348321
1.340000	-1260.595210
1.350000	-1025.897285
1.360000	-805.532386
1.370000	-681.308827
1.380000	-676.694621
1.390000	-815.774348
1.400000	-992.886435
1.410000	-1091.930783
1.420000	-1028.886250
1.430000	-805.035605
1.440000	-481.728969
1.450000	-177.608771
1.460000	80.047337
1.470000	261.147162
1.480000	330.147900
1.490000	243.826752
1.500000	43.090664
1.510000	-141.302694
1.520000	-237.183592
1.530000	-235.996585
1.540000	-211.407016
1.550000	-171.233249
1.560000	-128.702539
1.570000	-99.868534
1.580000	-122.782953
1.590000	-181.413358
1.600000	-226.497128
1.610000	-246.119402
1.620000	-230.609720
1.630000	-188.935833
1.640000	-140.811297
1.650000	-102.469113
1.660000	-55.979055
1.670000	12.593012
1.680000	92.391210
1.690000	170.254648
1.700000	250.414814
1.710000	330.169205
1.720000	392.337015
1.730000	436.735202
1.740000	483.252155
1.750000	523.160138
1.760000	549.776834
1.770000	566.215615
1.780000	591.949797
1.790000	635.510766
1.800000	674.975214
1.810000	682.057579
1.820000	651.666503
1.830000	599.931205
1.840000	552.986828
1.850000	523.034467
1.860000	497.840964
1.870000	479.778444
1.880000	462.605052
1.890000	456.500808
1.900000	462.610611
1.910000	488.506780
1.920000	532.857332
1.930000	595.782018
1.940000	660.990584
1.950000	716.333218
1.960000	756.406607
1.970000	786.511039
1.980000	821.445584
1.990000	857.233792
2.000000	901.445742
2.010000	954.867007
2.020000	1015.366606
2.030000	1072.739713
2.040000	1116.882359
2.050000	1144.558832
2.060000	1159.343963
2.070000	1166.977300
2.080000	1175.070362
2.090000	1190.319150
2.100000	1205.016000
2.110000	1209.246634
2.120000	1183.526602
2.130000	1103.083724
2.140000	965.020954
2.150000	784.894698
2.160000	589.803066
2.170000	378.550208
2.180000	151.511254
2.190000	-67.809483
2.200000	-252.851380
2.210000	-417.359586
2.220000	-558.916490
2.230000	-672.316054
2.240000	-743.037193
2.250000	-789.778759
2.260000	-844.944347
2.270000	-910.239769
2.280000	-994.621170
2.290000	-1075.029734
2.300000	-1149.439775
2.310000	-1203.537082
2.320000	-1240.391040
2.330000	-1265.803956
2.340000	-1305.482760
2.350000	-1358.416993
2.360000	-1407.951470
2.370000	-1435.444943
2.380000	-1439.220878
2.390000	-1430.596408
2.400000	-1415.229619
2.410000	-1402.513380
2.420000	-1385.950329
2.430000	-1374.562280
2.440000	-1396.145589
2.450000	-1467.002933
2.460000	-1550.619433
2.470000	-1603.849346
2.480000	-1623.627645
2.490000	-1642.551628
2.500000	-1671.668212
2.510000	-1704.631299
2.520000	-1722.432767
2.530000	-1711.150632
2.540000	-1684.031219
2.550000	-1654.764033
2.560000	-1644.743915
2.570000	-1645.388399
2.580000	-1643.203295
2.590000	-1625.776109
2.600000	-1588.778774
2.610000	-1545.974247
2.620000	-1504.764357
2.630000	-1465.580973
2.640000	-1423.830683
2.650000	-1394.669963
2.660000	-1375.275777
2.670000	-1361.851215
2.680000	-1340.788975
2.690000	-1311.830951
2.700000	-1269.717016
2.710000	-1211.245007
2.720000	-1151.457247
2.730000	-1105.755535
2.740000	-1087.955334
2.750000	-1118.713791
2.760000	-1194.482593
2.770000	-1281.016765
2.780000	-1330.067117
2.790000	-1332.522992
2.800000	-1311.502604
2.810000	-1288.788005
2.820000	-1273.666230
2.830000	-1264.117749
2.840000	-1258.927841
2.850000	-1249.857286
2.860000	-1236.974659
2.870000	-1221.361961
2.880000	-1213.476203
2.890000	-1215.272207
2.900000	-1223.392019
2.910000	-1227.592339
2.920000	-1225.758884
2.930000	-1213.334401
2.940000	-1182.879716
2.950000	-1136.531213
2.960000	-1085.453691
2.970000	-1050.516246
2.980000	-1028.723567
2.990000	-1008.906817
3.000000	-982.428249
3.010000	-948.078839
3.020000	-906.565763
3.030000	-853.330482
3.040000	-791.150685
3.050000	-731.700321
3.060000	-700.868243
3.070000	-700.430687
3.080000	-720.647413
3.090000	-733.871597
3.100000	-734.914470
3.110000	-725.758215
3.120000	-711.281967
3.130000	-699.412153
3.140000	-691.055597
3.150000	-686.489564
3.160000	-664.862849
3.170000	-613.012861
3.180000	-535.476594
3.190000	-448.659742
3.200000	-366.841923
3.210000	-291.695854
3.220000	-228.306910
3.230000	-181.153680
3.240000	-142.494809
3.250000	-105.369882
3.260000	-64.777408
3.270000	-33.724623
3.280000	-18.129369
3.290000	-6.453340
3.300000	24.127994
3.310000	77.009816
3.320000	134.573123
3.330000	179.385881
3.340000	216.659752
3.350000	260.699806
3.360000	301.258739
3.370000	322.578632
3.380000	302.420201
3.390000	254.804228
3.400000	201.182823
3.410000	166.286481
3.420000	159.484473
3.430000	158.596864
3.440000	158.414415
3.450000	147.137724
3.460000	138.329487
3.470000	138.240868
3.480000	140.459036
3.490000	146.281341
3.500000	141.462273
3.510000	144.996378
3.520000	154.991633
3.530000	174.976683
3.540000	198.076354
3.550000	220.215499
3.560000	249.111170
3.570000	267.303090
3.580000	285.809011
3.590000	295.253025
3.600000	303.472701
3.610000	298.066153
3.620000	287.445885
3.630000	280.132110
3.640000	277.652603
3.650000	265.072462
3.660000	242.487082
3.670000	240.349540
3.680000	270.524052
3.690000	327.499306
3.700000	366.707692
3.710000	352.260377
3.720000	278.227944
3.730000	182.396032
3.740000	78.938049
3.750000	-3.172772
3.760000	-61.168745
3.770000	-96.163641
3.780000	-103.671376
3.790000	-92.936590
3.800000	-56.873336
3.810000	-10.848536
3.820000	43.552079
3.830000	131.235327
3.840000	265.869860
3.850000	446.201622
3.860000	660.415572
3.870000	872.358190
3.880000	1068.614372
3.890000	1244.462782
3.900000	1393.065007
3.910000	1499.469572
3.920000	1546.433988
3.930000	1554.839191
3.940000	1541.048822
3.950000	1519.127552
3.960000	1506.932582
3.970000	1506.965692
3.980000	1535.780324
3.990000	1596.692957
4.000000	1680.185045
4.010000	1767.319991
4.020000	1817.455849
4.030000	1802.239862
4.040000	1718.387964
4.050000	1579.799417
4.060000	1427.319932
4.070000	1286.910607
4.080000	1172.812224
4.090000	1082.902696
4.100000	1004.534764
4.110000	940.529732
4.120000	888.502100
4.130000	862.460857
4.140000	859.348242
4.150000	868.630411
4.160000	881.457919
4.170000	896.412557
4.180000	914.165448
4.190000	928.100062
4.200000	928.790560
4.210000	935.458130
4.220000	949.625520
4.230000	970.735516
4.240000	993.372066
4.250000	1020.293510
4.260000	1047.691954
4.270000	1068.433629
4.280000	1084.294113
4.290000	1099.504827
4.300000	1106.120357
4.310000	1084.133616
4.320000	1040.277276
4.330000	1007.090357
4.340000	1004.656896
4.350000	1023.890383
4.360000	1052.617930
4.370000	1085.966833
4.380000	1097.442427
4.390000	1041.246248
4.400000	926.005522
4.410000	787.522537
4.420000	682.213922
4.430000	625.608321
4.440000	606.604081
4.450000	608.934589
4.460000	608.894909
4.470000	615.605205
4.480000	637.103381
4.490000	667.156994
4.500000	696.222874
4.510000	703.263739
4.520000	684.977344
4.530000	661.019543
4.540000	650.649792
4.550000	659.657144
4.560000	681.540335
4.570000	698.849576
4.580000	710.727734
4.590000	708.270902
4.600000	700.214282
4.610000	688.590889
4.620000	672.944092
4.630000	659.846643
4.640000	649.238500
4.650000	637.675602
4.660000	608.746138
4.670000	560.459360
4.680000	503.536888
4.690000	443.142385
4.700000	378.224766
4.710000	279.327919
4.720000	122.173717
4.730000	-82.477134
4.740000	-287.531376
4.750000	-442.359988
4.760000	-546.127754
4.770000	-622.063803
4.780000	-692.142559
4.790000	-751.449308
4.800000	-792.573051
4.810000	-813.271881
4.820000	-823.125875
4.830000	-838.202453
4.840000	-867.750466
4.850000	-905.180329
4.860000	-948.812986
4.870000	-1005.272416
4.880000	-1070.939071
4.890000	-1122.402131
4.900000	-1140.168182
4.910000	-1152.087753
4.920000	-1178.135134
4.930000	-1216.807454
4.940000	-1253.492734
4.950000	-1290.667654
4.960000	-1332.950016
4.970000	-1375.261924
4.980000	-1413.838493
4.990000	-1443.948005
5.000000	-1470.849080
5.010000	-1485.355949
5.020000	-1510.376204
5.030000	-1567.522235
5.040000	-1673.986589
5.050000	-1809.347438
5.060000	-1937.650023
5.070000	-2035.970948
5.080000	-2098.790567
5.090000	-2144.088426
5.100000	-2192.701821
5.110000	-2249.591916
5.120000	-2287.955525
5.130000	-2281.860889
5.140000	-2233.048372
5.150000	-2189.018720
5.160000	-2182.196338
5.170000	-2220.204969
5.180000	-2268.993034
5.190000	-2308.860475
5.200000	-2342.948938
5.210000	-2381.632268
5.220000	-2419.959109
5.230000	-2444.142741
5.240000	-2451.094854
5.250000	-2447.108396
5.260000	-2438.994647
5.270000	-2421.804237
5.280000	-2402.021511
5.290000	-2384.257096
5.300000	-2371.138242
5.310000	-2362.463970
5.320000	-2358.684999
5.330000	-2372.465731
5.340000	-2426.687583
5.350000	-2529.855513
5.360000	-2652.011761
5.370000	-2738.270441
5.380000	-2766.853513
5.390000	-2759.898976
5.400000	-2748.813374
5.410000	-2735.204631
5.420000	-2720.531417
5.430000	-2698.580752
5.440000	-2678.716709
5.450000	-2657.011074
5.460000	-2639.352566
5.470000	-2633.202194
5.480000	-2635.381876
5.490000	-2634.793747
5.500000	-2614.817698
5.510000	-2578.861465
5.520000	-2544.045135
5.530000	-2522.335092
5.540000	-2518.672771
5.550000	-2529.871970
5.560000	-2535.003312
5.570000	-2522.184718
5.580000	-2478.080245
5.590000	-2421.335039
5.600000	-2363.553579
5.610000	-2315.564956
5.620000	-2276.743146
5.630000	-2244.870819
5.640000	-2249.432710
5.650000	-2293.850618
5.660000	-2358.136077
5.670000	-2398.174820
5.680000	-2409.357831
5.690000	-2414.984763
5.700000	-2420.271527
5.710000	-2429.533015
5.720000	-2432.886169
5.730000	-2434.859935
5.740000	-2425.866920
5.750000	-2411.632908
5.760000	-2398.586025
5.770000	-2395.481112
5.780000	-2392.321536
5.790000	-2378.060059
5.800000	-2350.146385
5.810000	-2311.051154
5.820000	-2269.719716
5.830000	-2231.094279
5.840000	-2212.723008
5.850000	-2208.800900
5.860000	-2205.430661
5.870000	-2190.571478
5.880000	-2166.903195
5.890000	-2135.394047
5.900000	-2110.468276
5.910000	-2099.251040
5.920000	-2102.402273
5.930000	-2134.197626
5.940000	-2204.374847
5.950000	-2308.488460
5.960000	-2392.259235
5.970000	-2431.242058
5.980000	-2429.936063
5.990000	-2413.096341
6.000000	-2388.276121
6.010000	-2366.335592
6.020000	-2349.968363
6.030000	-2326.572828
6.040000	-2286.707978
6.050000	-2233.883010
6.060000	-2194.880897
6.070000	-2165.810311
6.080000	-2148.436027
6.090000	-2124.715180
6.100000	-2095.072466
6.110000	-2047.281154
6.120000	-1998.818262
6.130000	-1965.535680
6.140000	-1952.559510
6.150000	-1944.423775
6.160000	-1933.678103
6.170000	-1920.687189
6.180000	-1908.155491
6.190000	-1901.642648
6.200000	-1900.297962
6.210000	-1902.276543
6.220000	-1911.803404
6.230000	-1955.984701
6.240000	-2039.590692
6.250000	-2135.948119
6.260000	-2201.003615
6.270000	-2234.704163
6.280000	-2250.122757
6.290000	-2269.821481
6.300000	-2277.802899
6.310000	-2271.307079
6.320000	-2241.797433
6.330000	-2205.522664
6.340000	-2176.111658
6.350000	-2160.043791
6.360000	-2153.387413
6.370000	-2169.266821
6.380000	-2209.953335
6.390000	-2249.731197
6.400000	-2263.838317
6.410000	-2237.537759
6.420000	-2206.173697
6.430000	-2195.295115
6.440000	-2212.769716
6.450000	-2218.227339
6.460000	-2193.398601
6.470000	-2158.903334
6.480000	-2137.000394
6.490000	-2122.804617
6.500000	-2113.238413
6.510000	-2094.639497
6.520000	-2078.840519
6.530000	-2063.393932
6.540000	-2083.837097
6.550000	-2129.977599
6.560000	-2175.742900
6.570000	-2200.527116
6.580000	-2214.348298
6.590000	-2240.392921
6.600000	-2271.815954
6.610000	-2284.821518
6.620000	-2262.910927
6.630000	-2231.637469
6.640000	-2216.609139
6.650000	-2204.614439
6.660000	-2163.186640
6.670000	-2083.586611
6.680000	-1980.757063
6.690000	-1891.544651
6.700000	-1809.799582
6.710000	-1759.841038
6.720000	-1710.609121
6.730000	-1653.114948
6.740000	-1564.628926
6.750000	-1464.416633
6.760000	-1389.942231
6.770000	-1345.535235
6.780000	-1337.834198
6.790000	-1353.502348
6.800000	-1379.628422
6.810000	-1415.067239
6.820000	-1466.674446
6.830000	-1534.507636
6.840000	-1588.195417
6.850000	-1591.822333
6.860000	-1555.396375
6.870000	-1512.085477
6.880000	-1490.467202
6.890000	-1486.806650
6.900000	-1475.689550
6.910000	-1440.427130
6.920000	-1388.517944
6.930000	-1339.283958
6.940000	-1294.833851
6.950000	-1240.293175
6.960000	-1177.726218
6.970000	-1114.845402
6.980000	-1055.132012
6.990000	-1000.582810
7.000000	-952.054806
7.010000	-922.203620
7.020000	-901.765919
7.030000	-896.378059
7.040000	-909.648349
7.050000	-923.667794
7.060000	-936.078720
7.070000	-917.719969
7.080000	-883.797832
7.090000	-828.879825
7.100000	-780.101574
7.110000	-754.504611
7.120000	-755.858987
7.130000	-779.259822
7.140000	-796.704672
7.150000	-794.871184
7.160000	-775.738998
7.170000	-762.685374
7.180000	-755.516749
7.190000	-747.620867
7.200000	-728.754221
7.210000	-697.380728
7.220000	-655.465850
7.230000	-608.946786
7.240000	-571.992790
7.250000	-548.608368
7.260000	-532.278348
7.270000	-529.423724
7.280000	-540.329362
7.290000	-564.015309
7.300000	-577.430179
7.310000	-587.129355
7.320000	-588.271554
7.330000	-589.382688
7.340000	-586.511944
7.350000	-586.763706
7.360000	-598.517192
7.370000	-611.184684
7.380000	-618.958316
7.390000	-613.685997
7.400000	-603.862622
7.410000	-591.584544
7.420000	-595.892288
7.430000	-624.862475
7.440000	-670.952557
7.450000	-692.450727
7.460000	-678.833320
7.470000	-657.876333
7.480000	-653.098540
7.490000	-652.263870
7.500000	-633.728702
7.510000	-602.111629
7.520000	-561.409221
7.530000	-507.987798
7.540000	-433.122420
7.550000	-343.617243
7.560000	-242.533255
7.570000	-128.606684
7.580000	-20.701868
7.590000	71.061446
7.600000	157.155679
7.610000	262.407988
7.620000	364.525507
7.630000	451.761241
7.640000	517.222461
7.650000	580.503746
7.660000	644.860414
7.670000	699.529664
7.680000	752.207012
7.690000	783.809343
7.700000	796.274683
7.710000	801.783178
7.720000	799.308121
7.730000	801.800121
7.740000	817.335563
7.750000	863.519962
7.760000	954.031608
7.770000	1066.489477
7.780000	1209.497454
7.790000	1359.056791
7.800000	1510.372695
7.810000	1667.340589
7.820000	1840.962695
7.830000	2023.938637
7.840000	2196.218131
7.850000	2351.276882
7.860000	2513.263439
7.870000	2676.909189
7.880000	2832.674426
7.890000	2990.976254
7.900000	3160.797270
7.910000	3342.404344
7.920000	3520.598414
7.930000	3702.617301
7.940000	3884.093367
7.950000	4054.541559
7.960000	4187.274319
7.970000	4295.307739
7.980000	4383.501420
7.990000	4454.137714
8.000000	4515.484797
8.010000	4562.673709
8.020000	4596.227326
8.030000	4616.957050
8.040000	4633.406495
8.050000	4663.015717
8.060000	4699.272895
8.070000	4738.838210
8.080000	4774.552655
8.090000	4801.091629
8.100000	4829.638985
8.110000	4870.439009
8.120000	4930.147282
8.130000	5002.183779
8.140000	5068.058500
8.150000	5132.095365
8.160000	5196.402949
8.170000	5274.145094
8.180000	5356.128869
8.190000	5431.635236
8.200000	5503.672126
8.210000	5574.237238
8.220000	5649.008423
8.230000	5710.560312
8.240000	5764.527477
8.250000	5814.331590
8.260000	5876.204154
8.270000	5940.488993
8.280000	5989.316919
8.290000	6030.844573
8.300000	6062.528334
8.310000	6073.974605
8.320000	6055.539091
8.330000	6023.307154
8.340000	6005.048316
8.350000	5999.026198
8.360000	5997.008353
8.370000	5995.895742
8.380000	5998.455281
8.390000	6010.913242
8.400000	6030.349844
8.410000	6052.066209
8.420000	6080.744757
8.430000	6111.000299
8.440000	6142.964415
8.450000	6170.059670
8.460000	6210.396330
8.470000	6269.228886
8.480000	6334.593442
8.490000	6395.213106
8.500000	6448.628477
8.510000	6504.712118
8.520000	6561.445616
8.530000	6619.032464
8.540000	6670.391742
8.550000	6725.883429
8.560000	6784.790505
8.570000	6849.559782
8.580000	6907.297430
8.590000	6942.044901
8.600000	6941.297869
8.610000	6918.084308
8.620000	6880.769756
8.630000	6841.952977
8.640000	6779.965166
8.650000	6685.673682
8.660000	6562.011238
8.670000	6405.527590
8.680000	6237.609431
8.690000	6064.490246
8.700000	5902.719414
8.710000	5745.204474
8.720000	5606.037099
8.730000	5467.647569
8.740000	5325.873709
8.750000	5157.185809
8.760000	4965.266269
8.770000	4744.178342
8.780000	4493.821711
8.790000	4242.060642
8.800000	3998.806884
8.810000	3781.107629
8.820000	3584.544212
8.830000	3428.029143
8.840000	3306.358391
8.850000	3215.095138
8.860000	3136.611310
8.870000	3047.619805
8.880000	2952.079168
8.890000	2862.306741
8.900000	2800.044741
8.910000	2759.054488
8.920000	2729.804749
8.930000	2708.620931
8.940000	2687.019940
8.950000	2666.682776
8.960000	2639.341038
8.970000	2617.600920
8.980000	2600.756919
8.990000	2598.009980
9.000000	2609.945191
9.010000	2626.852483
9.020000	2648.620528
9.030000	2673.483441
9.040000	2708.110981
9.050000	2743.863230
9.060000	2774.397540
9.070000	2809.743348
9.080000	2859.470412
9.090000	2919.372067
9.100000	2973.964263
9.110000	3016.809749
9.120000	3051.602199
9.130000	3088.714160
9.140000	3132.671234
9.150000	3186.393407
9.160000	3251.848969
9.170000	3305.780064
9.180000	3335.497790
9.190000	3344.652331
9.200000	3360.316999
9.210000	3401.607431
9.220000	3438.771960
9.230000	3457.707405
9.240000	3462.711258
9.250000	3468.267705
9.260000	3479.388749
9.270000	3492.901574
9.280000	3512.513003
9.290000	3533.939829
9.300000	3558.410501
9.310000	3588.404712
9.320000	3631.075757
9.330000	3670.225422
9.340000	3707.876041
9.350000	3740.447391
9.360000	3777.794847
9.370000	3819.721657
9.380000	3862.448647
9.390000	3902.406234
9.400000	3936.845985
9.410000	3976.868321
9.420000	4025.625798
9.430000	4081.720354
9.440000	4137.455539
9.450000	4195.666631
9.460000	4250.324316
9.470000	4305.702629
9.480000	4333.830631
9.490000	4332.533567
9.500000	4305.073929
9.510000	4286.505135
9.520000	4290.309200
9.530000	4300.778967
9.540000	4309.277509
9.550000	4318.127679
9.560000	4343.660202
9.570000	4377.114492
9.580000	4416.432733
9.590000	4459.135960
9.600000	4506.916890
9.610000	4551.828785
9.620000	4587.099743
9.630000	4608.889403
9.640000	4619.991469
9.650000	4627.650449
9.660000	4640.572937
9.670000	4661.077167
9.680000	4691.836060
9.690000	4730.835796
9.700000	4765.412121
9.710000	4783.268333
9.720000	4785.361497
9.730000	4786.406221
9.740000	4794.624559
9.750000	4813.526610
9.760000	4840.195974
9.770000	4876.316168
9.780000	4921.415172
9.790000	4952.026745
9.800000	4945.283965
9.810000	4907.128138
9.820000	4877.889280
9.830000	4873.133936
9.840000	4881.055485
9.850000	4891.109560
9.860000	4902.210952
9.870000	4918.058499
9.880000	4926.279315
9.890000	4942.371192
9.900000	4979.625625
9.910000	5039.264846
9.920000	5103.530653
9.930000	5142.399036
9.940000	5155.120322
9.950000	5146.816902
9.960000	5132.334191
9.970000	5109.448632
9.980000	5065.443200
9.990000	5005.048761
10.000000	4948.511787
10.010000	4890.826284
10.020000	4839.524653
10.030000	4795.491783
10.040000	4772.141193
10.050000	4747.960282
10.060000	4716.694869
10.070000	4694.047254
10.080000	4679.424867
10.090000	4649.956992
10.100000	4580.361715
10.110000	4503.903828
10.120000	4449.826604
10.130000	4430.339061
10.140000	4417.378803
10.150000	4398.344051
10.160000	4372.821118
10.170000	4348.223164
10.180000	4324.424645
10.190000	4314.984378
10.200000	4314.817386
10.210000	4320.586690
10.220000	4316.340961
10.230000	4302.729234
10.240000	4284.700111
10.250000	4263.347392
10.260000	4254.581903
10.270000	4253.051479
10.280000	4254.607017
10.290000	4232.495829
10.300000	4196.530544
10.310000	4166.093390
10.320000	4160.242356
10.330000	4167.057267
10.340000	4173.063498
10.350000	4187.191786
10.360000	4212.974395
10.370000	4247.408392
10.380000	4250.545950
10.390000	4206.448472
10.400000	4116.250636
10.410000	4017.336365
10.420000	3845.419653
10.430000	3564.415188
10.440000	2988.336117
10.450000	2167.943065
10.460000	1077.415162
10.470000	-169.395629
10.480000	-1444.295342
10.490000	-2590.084405
10.500000	-3541.196385
10.510000	-4342.627792
10.520000	-5000.076833
10.530000	-5416.344276
10.540000	-5721.715678
10.550000	-5954.127445
10.560000	-6098.898491
10.570000	-6163.482635
10.580000	-6177.140137
10.590000	-6203.602673
10.600000	-6276.306603
10.610000	-6372.581123
10.620000	-6474.503070
10.630000	-6562.576621
10.640000	-6668.532638
10.650000	-6794.855189
10.660000	-6911.841487
10.670000	-6994.184425
10.680000	-7008.838546
10.690000	-6984.396581
10.700000	-6957.575662
10.710000	-6952.295402
10.720000	-6968.305571
10.730000	-6990.550054
10.740000	-7018.810004
10.750000	-7066.245792
10.760000	-7131.349009
10.770000	-7203.328038
10.780000	-7269.298037
10.790000	-7303.795230
10.800000	-7305.737204
10.810000	-7270.011494
10.820000	-7212.330630
10.830000	-7163.703707
10.840000	-7138.983782
10.850000	-7128.435940
10.860000	-7111.384510
10.870000	-7077.644642
10.880000	-7040.968624
10.890000	-7004.277844
10.900000	-6944.271527
10.910000	-6849.403995
10.920000	-6732.438335
10.930000	-6615.355702
10.940000	-6507.373380
10.950000	-6410.427052
10.960000	-6338.484088
10.970000	-6286.926237
10.980000	-6253.416168
10.990000	-6230.897088
11.000000	-6213.839887
11.010000	-6167.277302
11.020000	-6067.454018
11.030000	-5907.532966
11.040000	-5709.646024
11.050000	-5497.961821
11.060000	-5291.661180
11.070000	-5138.642282
11.080000	-5058.440347
11.090000	-5048.439632
11.100000	-5048.575236
11.110000	-5031.509465
11.120000	-5000.311957
11.130000	-4960.774109
11.140000	-4891.831241
11.150000	-4766.213662
11.160000	-4610.024665
11.170000	-4472.245830
11.180000	-4364.313613
11.190000	-4257.033888
11.200000	-4125.483924
11.210000	-3984.135227
11.220000	-3867.583346
11.230000	-3792.730541
11.240000	-3749.152325
11.250000	-3725.536711
11.260000	-3722.302142
11.270000	-3749.252582
11.280000	-3798.622906
11.290000	-3830.768685
11.300000	-3827.559114
11.310000	-3788.224035
11.320000	-3746.483469
11.330000	-3714.849713
11.340000	-3695.275870
11.350000	-3663.301674
11.360000	-3614.356820
11.370000	-3555.019910
11.380000	-3505.044656
11.390000	-3474.951843
11.400000	-3453.914582
11.410000	-3443.493501
11.420000	-3444.359389
11.430000	-3458.618027
11.440000	-3479.025690
11.450000	-3500.330088
11.460000	-3510.590558
11.470000	-3500.634872
11.480000	-3467.759806
11.490000	-3434.597326
11.500000	-3413.490330
11.510000	-3398.767933
11.520000	-3381.470859
11.530000	-3372.252833
11.540000	-3391.072066
11.550000	-3430.258315
11.560000	-3467.230105
11.570000	-3489.557433
11.580000	-3497.022053
11.590000	-3497.814608
11.600000	-3490.055874
11.610000	-3478.360363
11.620000	-3464.687674
11.630000	-3451.513980
11.640000	-3444.268512
11.650000	-3450.950042
11.660000	-3483.804173
11.670000	-3528.256686
11.680000	-3562.598882
11.690000	-3562.168235
11.700000	-3536.100457
11.710000	-3496.035028
11.720000	-3440.181154
11.730000	-3365.181147
11.740000	-3257.518510
11.750000	-3129.684170
11.760000	-2987.457127
11.770000	-2848.172831
11.780000	-2711.301423
11.790000	-2593.998980
11.800000	-2523.463025
11.810000	-2531.461538
11.820000	-2633.872285
11.830000	-2812.790041
11.840000	-3028.848750
11.850000	-3238.066078
11.860000	-3410.157094
11.870000	-3512.631009
11.880000	-3531.812744
11.890000	-3421.068364
11.900000	-3180.494907
11.910000	-2802.323978
11.920000	-2394.652272
11.930000	-2103.034462
11.940000	-1930.111021
11.950000	-1870.986834
11.960000	-1860.959245
11.970000	-1867.996416
11.980000	-1891.194276
11.990000	-1931.646620
12.000000	-1964.326507
12.010000	-1972.622678
12.020000	-1965.164591
12.030000	-1946.223733
12.040000	-1887.550748
12.050000	-1769.486193
12.060000	-1616.362614
12.070000	-1469.099484
12.080000	-1350.095936
12.090000	-1256.950686
12.100000	-1194.823080
12.110000	-1187.493108
12.120000	-1238.802551
12.130000	-1325.267906
12.140000	-1401.362570
12.150000	-1444.079302
12.160000	-1460.313112
12.170000	-1459.539820
12.180000	-1448.565317
12.190000	-1411.915094
12.200000	-1353.847951
12.210000	-1276.260380
12.220000	-1196.148820
12.230000	-1127.574617
12.240000	-1075.067433
12.250000	-1043.199801
12.260000	-1019.583857
12.270000	-1003.835905
12.280000	-985.718047
12.290000	-966.481943
12.300000	-946.495057
12.310000	-924.435452
12.320000	-892.901004
12.330000	-855.732331
12.340000	-807.928673
12.350000	-758.714460
12.360000	-713.258216
12.370000	-683.361319
12.380000	-685.915080
12.390000	-728.295539
12.400000	-829.584406
12.410000	-981.468309
12.420000	-1153.506893
12.430000	-1309.940539
12.440000	-1424.436138
12.450000	-1479.417812
12.460000	-1468.711135
12.470000	-1404.593642
12.480000	-1325.372267
12.490000	-1258.387415
12.500000	-1213.633901
12.510000	-1186.121580
12.520000	-1169.874439
12.530000	-1154.826178
12.540000	-1136.110976
12.550000	-1114.528093
12.560000	-1086.985283
12.570000	-1058.233367
12.580000	-1027.158655
12.590000	-998.269267
12.600000	-965.952754
12.610000	-927.294435
12.620000	-885.746191
12.630000	-847.642694
12.640000	-821.527518
12.650000	-818.981093
12.660000	-853.629567
12.670000	-912.561675
12.680000	-978.701877
12.690000	-1031.113304
12.700000	-1079.840882
12.710000	-1121.944147
12.720000	-1148.946165
12.730000	-1151.086212
12.740000	-1124.047738
12.750000	-1075.910245
12.760000	-1018.474028
12.770000	-968.729599
12.780000	-934.188579
12.790000	-908.491707
12.800000	-882.543015
12.810000	-852.248166
12.820000	-817.889958
12.830000	-779.317117
12.840000	-739.893435
12.850000	-703.367192
12.860000	-665.521621
12.870000	-626.743010
12.880000	-588.131376
12.890000	-554.107395
12.900000	-518.357596
12.910000	-479.798589
12.920000	-445.251131
12.930000	-429.156141
12.940000	-442.446948
12.950000	-484.794495
12.960000	-533.225454
12.970000	-568.755165
12.980000	-585.016452
12.990000	-595.080200
13.000000	-604.430725
13.010000	-611.696984
13.020000	-610.809132
13.030000	-596.292233
13.040000	-562.831264
13.050000	-524.918286
13.060000	-492.483716
13.070000	-472.846460
13.080000	-461.078263
13.090000	-444.060976
13.100000	-425.026321
13.110000	-400.899873
13.120000	-371.289877
13.130000	-341.061097
13.140000	-306.838448
13.150000	-281.240316
13.160000	-256.972813
13.170000	-230.068907
13.180000	-207.443719
13.190000	-180.828861
13.200000	-157.931312
13.210000	-128.512079
13.220000	-108.797224
13.230000	-121.852790
13.240000	-167.237017
13.250000	-232.465278
13.260000	-278.241097
13.270000	-299.810305
13.280000	-310.599180
13.290000	-324.126056
13.300000	-348.579496
13.310000	-364.669605
13.320000	-363.558184
13.330000	-335.513426
13.340000	-297.245281
13.350000	-266.328464
13.360000	-247.866689
13.370000	-242.766924
13.380000	-232.068193
13.390000	-212.883915
13.400000	-180.899872
13.410000	-150.352332
13.420000	-124.334467
13.430000	-96.762106
13.440000	-72.431886
13.450000	-46.110315
13.460000	-26.533365
13.470000	-3.037306
13.480000	14.343201
13.490000	35.458840
13.500000	58.556710
13.510000	81.322550
13.520000	90.776990
13.530000	68.541119
13.540000	24.778982
13.550000	-27.863221
13.560000	-65.484216
13.570000	-88.296269
13.580000	-103.060923
13.590000	-117.360133
13.600000	-128.236956
13.610000	-128.039080
13.620000	-118.733762
13.630000	-98.000309
13.640000	-77.228656
13.650000	-59.565699
13.660000	-55.704115
13.670000	-54.363616
13.680000	-48.483743
13.690000	-35.466070
13.700000	-16.900192
13.710000	1.795940
13.720000	22.746016
13.730000	41.080987
13.740000	60.792435
13.750000	78.722569
13.760000	97.230476
13.770000	111.053317
13.780000	126.744701
13.790000	144.076129
13.800000	165.310090
13.810000	184.119968
13.820000	192.582670
13.830000	177.862183
13.840000	131.579655
13.850000	72.056852
13.860000	23.973510
13.870000	-3.076884
13.880000	-31.340098
13.890000	-65.448637
13.900000	-95.900991
13.910000	-109.429195
13.920000	-106.117418
13.930000	-94.718801
13.940000	-74.258741
13.950000	-57.664582
13.960000	-44.982386
13.970000	-37.898944
13.980000	-31.638732
13.990000	-20.748269
14.000000	-4.591508
14.010000	18.455547
14.020000	38.808986
14.030000	58.742944
14.040000	80.260040
14.050000	103.075657
14.060000	120.746066
14.070000	136.487082
14.080000	154.286686
14.090000	172.602746
14.100000	193.891338
14.110000	216.426932
14.120000	237.212792
14.130000	248.959909
14.140000	227.542201
14.150000	176.289443
14.160000	105.946738
14.170000	46.727492
14.180000	6.679052
14.190000	-28.172674
14.200000	-63.175729
14.210000	-96.329832
14.220000	-121.295488
14.230000	-131.095189
14.240000	-135.069738
14.250000	-140.798431
14.260000	-146.427188
14.270000	-158.132557
14.280000	-161.336177
14.290000	-168.148248
14.300000	-164.782016
14.310000	-155.487836
14.320000	-138.151111
14.330000	-116.450453
14.340000	-95.798463
14.350000	-76.004218
14.360000	-59.726558
14.370000	-41.809143
14.380000	-28.959572
14.390000	-13.847554
14.400000	2.178495
14.410000	20.516787
14.420000	39.704203
14.430000	53.931652
14.440000	67.654188
14.450000	55.661415
14.460000	11.051125
14.470000	-57.836665
14.480000	-119.424196
14.490000	-158.314981
14.500000	-188.582627
14.510000	-222.389924
14.520000	-257.302549
14.530000	-284.715876
14.540000	-298.630620
14.550000	-304.340206
14.560000	-299.538214
14.570000	-286.911682
14.580000	-280.075618
14.590000	-278.376792
14.600000	-283.217852
14.610000	-282.737683
14.620000	-276.322880
14.630000	-265.703264
14.640000	-252.358495
14.650000	-233.254075
14.660000	-208.667185
14.670000	-178.066325
14.680000	-153.941646
14.690000	-134.769771
14.700000	-124.828071
14.710000	-112.692468
14.720000	-99.678204
14.730000	-81.528254
14.740000	-58.468718
14.750000	-38.646872
14.760000	-22.833055
14.770000	-35.089887
14.780000	-77.731086
14.790000	-143.432868
14.800000	-206.504781
14.810000	-246.048124
14.820000	-275.966179
14.830000	-303.904648
14.840000	-334.009422
14.850000	-358.987544
14.860000	-372.646475
14.870000	-378.353814
14.880000	-368.844435
14.890000	-358.703200
14.900000	-348.593584
14.910000	-343.988206
14.920000	-339.568491
14.930000	-331.198173
14.940000	-323.488784
14.950000	-310.968115
14.960000	-297.020718
14.970000	-278.640793
14.980000	-261.496402
14.990000	-248.558963
15.000000	-235.538007
15.010000	-220.402172
15.020000	-197.822354
15.030000	-177.872449
15.040000	-157.989719
15.050000	-138.935878
15.060000	-125.752487
15.070000	-111.884062
15.080000	-112.491132
15.090000	-135.060359
15.100000	-187.813944
15.110000	-249.069624
15.120000	-291.034698
15.130000	-309.725294
15.140000	-325.569801
15.150000	-345.256809
15.160000	-369.000318
15.170000	-384.332972
15.180000	-385.027062
15.190000	-375.349991
15.200000	-356.958273
15.210000	-347.321685
15.220000	-338.062670
15.230000	-336.914741
15.240000	-335.031571
15.250000	-328.765044
15.260000	-316.247928
15.270000	-302.208953
15.280000	-293.043942
15.290000	-285.868706
15.300000	-269.725365
15.310000	-251.150342
15.320000	-232.301512
15.330000	-216.006816
15.340000	-198.431935
15.350000	-176.771602
15.360000	-154.484625
15.370000	-130.762636
15.380000	-114.468086
15.390000	-106.635955
15.400000	-130.415640
15.410000	-179.999331
15.420000	-251.270333
15.430000	-314.527836
15.440000	-361.418624
15.450000	-399.334117
15.460000	-433.461625
15.470000	-464.695599
15.480000	-487.052286
15.490000	-500.974174
15.500000	-508.880707
15.510000	-508.805918
15.520000	-501.949251
15.530000	-496.888904
15.540000	-497.903169
15.550000	-506.193494
15.560000	-507.711460
15.570000	-503.435146
15.580000	-492.075511
15.590000	-479.591552
15.600000	-467.989742
15.610000	-451.620820
15.620000	-434.824816
15.630000	-416.528139
15.640000	-399.563050
15.650000	-383.317942
15.660000	-368.195517
15.670000	-353.328540
15.680000	-335.044063
15.690000	-311.901888
15.700000	-290.470720
15.710000	-286.054838
15.720000	-314.119588
15.730000	-376.725564
15.740000	-450.252002
15.750000	-505.601482
15.760000	-539.675544
15.770000	-568.749814
15.780000	-603.301840
15.790000	-637.070326
15.800000	-660.804217
15.810000	-672.293939
15.820000	-672.866200
15.830000	-662.396251
15.840000	-647.161239
15.850000	-639.396520
15.860000	-638.301515
15.870000	-641.272320
15.880000	-639.972636
15.890000	-635.720662
15.900000	-622.836660
15.910000	-609.084145
15.920000	-592.551752
15.930000	-579.012460
15.940000	-566.455276
15.950000	-559.835799
15.960000	-553.204144
15.970000	-539.196624
15.980000	-520.521447
15.990000	-500.432451
16.000000	-482.713101
16.010000	-457.503092
16.020000	-435.833814
16.030000	-418.416451
16.040000	-427.885185
16.050000	-471.824969
16.060000	-540.424645
16.070000	-604.381862
16.080000	-641.184035
16.090000	-670.254584
16.100000	-700.781994
16.110000	-735.642677
16.120000	-758.860235
16.130000	-766.261269
16.140000	-761.156461
16.150000	-743.400474
16.160000	-722.675788
16.170000	-706.061303
16.180000	-699.052203
16.190000	-704.241589
16.200000	-714.261340
16.210000	-724.622513
16.220000	-734.004552
16.230000	-743.534839
16.240000	-750.260538
16.250000	-754.312246
16.260000	-751.694430
16.270000	-736.272303
16.280000	-703.319999
16.290000	-658.447836
16.300000	-621.170119
16.310000	-590.753388
16.320000	-572.889449
16.330000	-560.541472
16.340000	-556.485815
16.350000	-551.479214
16.360000	-554.982141
16.370000	-589.300070
16.380000	-652.926812
16.390000	-721.571333
16.400000	-767.373904
16.410000	-797.784365
16.420000	-830.359438
16.430000	-867.131331
16.440000	-895.480521
16.450000	-913.014724
16.460000	-916.774259
16.470000	-911.091560
16.480000	-900.574697
16.490000	-889.673095
16.500000	-892.238614
16.510000	-906.381561
16.520000	-931.742742
16.530000	-947.535765
16.540000	-946.117306
16.550000	-929.215872
16.560000	-907.682908
16.570000	-890.388996
16.580000	-879.059816
16.590000	-874.055100
16.600000	-867.576845
16.610000	-861.576297
16.620000	-850.901798
16.630000	-844.629784
16.640000	-834.003423
16.650000	-820.201981
16.660000	-804.261837
16.670000	-791.274924
16.680000	-789.684816
16.690000	-808.169616
16.700000	-852.586896
16.710000	-912.171238
16.720000	-961.934897
16.730000	-998.382601
16.740000	-1031.135356
16.750000	-1070.076833
16.760000	-1107.435179
16.770000	-1132.242513
16.780000	-1143.575177
16.790000	-1140.887508
16.800000	-1129.207777
16.810000	-1111.001766
16.820000	-1099.010567
16.830000	-1093.556210
16.840000	-1091.276522
16.850000	-1082.231518
16.860000	-1076.401761
16.870000	-1070.005898
16.880000	-1062.003693
16.890000	-1042.223316
16.900000	-1016.115597
16.910000	-988.237616
16.920000	-966.033703
16.930000	-948.693107
16.940000	-938.088632
16.950000	-926.584183
16.960000	-908.944097
16.970000	-896.647348
16.980000	-889.559409
16.990000	-908.224611
17.000000	-957.253814
17.010000	-1033.903410
17.020000	-1111.335988
17.030000	-1165.375666
17.040000	-1199.278515
17.050000	-1231.005506
17.060000	-1261.624020
17.070000	-1287.737974
17.080000	-1302.406843
17.090000	-1305.601969
17.100000	-1291.284520
17.110000	-1270.623398
17.120000	-1253.266992
17.130000	-1249.755039
17.140000	-1243.615156
17.150000	-1221.667719
17.160000	-1178.421869
17.170000	-1111.692336
17.180000	-1038.048372
17.190000	-960.780842
17.200000	-892.800396
17.210000	-812.539152
17.220000	-712.688145
17.230000	-599.429800
17.240000	-485.019909
17.250000	-381.746583
17.260000	-273.698979
17.270000	-152.507542
17.280000	-18.156491
17.290000	114.269156
17.300000	220.273914
17.310000	275.294064
17.320000	274.006861
17.330000	251.347202
17.340000	241.991386
17.350000	253.245414
17.360000	262.816157
17.370000	264.443829
17.380000	264.600018
17.390000	266.893124
17.400000	276.314373
17.410000	293.257773
17.420000	316.286296
17.430000	333.858547
17.440000	332.852367
17.450000	314.431660
17.460000	291.718994
17.470000	282.285976
17.480000	290.486238
17.490000	308.378045
17.500000	331.535930
17.510000	355.410498
17.520000	381.878594
17.530000	414.056270
17.540000	452.157796
17.550000	497.317001
17.560000	540.021445
17.570000	573.533624
17.580000	583.146058
17.590000	571.415097
17.600000	542.560580
17.610000	495.568775
17.620000	426.588456
17.630000	348.390485
17.640000	288.948361
17.650000	257.117852
17.660000	231.517941
17.670000	199.830724
17.680000	140.691171
17.690000	64.259900
17.700000	1.218364
17.710000	-36.396648
17.720000	-35.952774
17.730000	-42.243003
17.740000	-46.674818
17.750000	-58.835608
17.760000	-66.699267
17.770000	-69.820572
17.780000	-72.763474
17.790000	-69.802056
17.800000	-57.524267
17.810000	-26.790153
17.820000	24.340707
17.830000	88.175384
17.840000	142.814640
17.850000	179.827109
17.860000	202.972474
17.870000	233.511872
17.880000	263.034997
17.890000	284.186932
17.900000	274.377623
17.910000	229.569441
17.920000	161.755314
17.930000	90.966274
17.940000	27.767127
17.950000	-34.021556
17.960000	-92.870687
17.970000	-146.008899
17.980000	-187.501534
17.990000	-215.675127
18.000000	-228.463942
18.010000	-227.349194
18.020000	-222.112703
18.030000	-220.346254
18.040000	-229.087737
18.050000	-251.993943
18.060000	-275.674650
18.070000	-284.626643
18.080000	-278.292209
18.090000	-262.933117
18.100000	-246.234164
18.110000	-222.187915
18.120000	-197.194902
18.130000	-172.746039
18.140000	-149.468853
18.150000	-121.266715
18.160000	-88.740990
18.170000	-52.432449
18.180000	-19.675779
18.190000	-15.623213
18.200000	-50.878804
18.210000	-116.066059
18.220000	-170.635268
18.230000	-202.558401
18.240000	-218.412757
18.250000	-238.390157
18.260000	-264.775180
18.270000	-282.473727
18.280000	-287.466326
18.290000	-276.523198
18.300000	-262.163216
18.310000	-246.505347
18.320000	-243.853569
18.330000	-249.059485
18.340000	-262.850893
18.350000	-279.552282
18.360000	-289.793063
18.370000	-290.683285
18.380000	-278.351688
18.390000	-261.132370
18.400000	-233.488848
18.410000	-200.559478
18.420000	-171.250465
18.430000	-152.594282
18.440000	-122.209537
18.450000	-59.577847
18.460000	34.497119
18.470000	132.423907
18.480000	201.583462
18.490000	229.542533
18.500000	224.121464
18.510000	198.072001
18.520000	164.057787
18.530000	127.982731
18.540000	88.040691
18.550000	43.632461
18.560000	6.460998
18.570000	-15.991192
18.580000	-15.711104
18.590000	2.758062
18.600000	34.190240
18.610000	66.230986
18.620000	85.834193
18.630000	97.163613
18.640000	108.235755
18.650000	126.509662
18.660000	148.356409
18.670000	167.599518
18.680000	167.199287
18.690000	144.147896
18.700000	99.474490
18.710000	58.184619
18.720000	29.797571
18.730000	20.971816
18.740000	22.169083
18.750000	25.858695
18.760000	32.658396
18.770000	35.822022
18.780000	37.937938
18.790000	15.145212
18.800000	-39.970255
18.810000	-120.724532
18.820000	-202.058383
18.830000	-263.168452
18.840000	-314.794382
18.850000	-359.817437
18.860000	-399.417768
18.870000	-425.999789
18.880000	-434.270355
18.890000	-424.084563
18.900000	-396.346174
18.910000	-364.088403
18.920000	-333.955595
18.930000	-306.959985
18.940000	-277.094340
18.950000	-240.384478
18.960000	-198.461196
18.970000	-151.349330
18.980000	-104.051880
18.990000	-65.199686
19.000000	-37.500552
19.010000	-23.589481
19.020000	-16.126849
19.030000	-10.189650
19.040000	0.046879
19.050000	13.657141
19.060000	27.347554
19.070000	35.966900
19.080000	19.409846
19.090000	-31.556171
19.100000	-109.677323
19.110000	-175.517642
19.120000	-213.689380
19.130000	-233.069979
19.140000	-245.231773
19.150000	-257.465535
19.160000	-263.925107
19.170000	-265.398376
19.180000	-258.457969
19.190000	-253.552475
19.200000	-257.496031
19.210000	-274.212520
19.220000	-291.001018
19.230000	-302.737996
19.240000	-306.354967
19.250000	-302.448886
19.260000	-296.228958
19.270000	-281.634890
19.280000	-256.952976
19.290000	-218.318429
19.300000	-176.218544
19.310000	-136.155761
19.320000	-99.973564
19.330000	-71.162467
19.340000	-39.521177
19.350000	-10.708280
19.360000	14.116005
19.370000	22.221221
19.380000	-3.751113
19.390000	-59.947955
19.400000	-136.089529
19.410000	-202.551630
19.420000	-256.654928
19.430000	-302.659353
19.440000	-345.037912
19.450000	-377.219085
19.460000	-393.236910
19.470000	-395.949409
19.480000	-389.918949
19.490000	-388.514280
19.500000	-397.054572
19.510000	-411.862131
19.520000	-424.650553
19.530000	-428.017416
19.540000	-426.416092
19.550000	-419.294601
19.560000	-408.990532
19.570000	-396.701601
19.580000	-383.696758
19.590000	-371.573069
19.600000	-354.845739
19.610000	-340.940840
19.620000	-326.424370
19.630000	-311.443223
19.640000	-292.449595
19.650000	-265.733866
19.660000	-241.634066
19.670000	-216.772794
19.680000	-205.986475
19.690000	-227.604516
19.700000	-284.077091
19.710000	-355.488581
19.720000	-407.574020
19.730000	-433.893409
19.740000	-448.904632
19.750000	-462.393636
19.760000	-474.315080
19.770000	-476.978309
19.780000	-463.832706
19.790000	-443.707871
19.800000	-422.109112
19.810000	-408.882526
19.820000	-404.458085
19.830000	-410.490897
19.840000	-414.864837
19.850000	-410.540731
19.860000	-402.397090
19.870000	-388.329399
19.880000	-374.040708
19.890000	-349.162420
19.900000	-321.487941
19.910000	-293.399546
19.920000	-265.681654
19.930000	-235.375824
19.940000	-202.631898
19.950000	-168.434282
19.960000	-137.002809
19.970000	-112.904033
19.980000	-99.445827
19.990000	-120.170144
20.000000	-171.553850
20.010000	-243.155149
20.020000	-304.008621
20.030000	-340.923978
20.040000	-366.601390
20.050000	-393.089789
20.060000	-419.890346
20.070000	-436.958578
20.080000	-438.251364
20.090000	-427.246463
20.100000	-406.668464
20.110000	-383.603009
20.120000	-372.160072
20.130000	-369.299532
20.140000	-368.360677
20.150000	-352.017559
20.160000	-327.344285
20.170000	-300.113184
20.180000	-273.032502
20.190000	-250.257659
20.200000	-224.399066
20.210000	-201.815129
20.220000	-177.107084
20.230000	-151.763771
20.240000	-127.185622
20.250000	-99.734512
20.260000	-69.976818
20.270000	-35.396401
20.280000	-1.488137
20.290000	20.562789
20.300000	10.948399
20.310000	-37.470190
20.320000	-104.231396
20.330000	-169.528944
20.340000	-215.104587
20.350000	-251.688297
20.360000	-287.323215
20.370000	-320.840332
20.380000	-351.893920
20.390000	-366.302680
20.400000	-365.855297
20.410000	-347.764428
20.420000	-323.533050
20.430000	-304.233945
20.440000	-293.865476
20.450000	-287.016872
20.460000	-274.191081
20.470000	-256.164232
20.480000	-229.172246
20.490000	-199.338591
20.500000	-168.138963
20.510000	-138.179512
20.520000	-111.432536
20.530000	-84.332292
20.540000	-47.702909
20.550000	-1.166582
20.560000	54.701619
20.570000	110.320105
20.580000	159.462607
20.590000	204.178296
20.600000	239.554778
20.610000	269.078052
20.620000	273.939073
20.630000	236.669708
20.640000	159.734522
20.650000	76.036227
20.660000	12.874031
20.670000	-32.318309
20.680000	-72.987185
20.690000	-112.949054
20.700000	-143.782594
20.710000	-166.906442
20.720000	-175.520191
20.730000	-166.169595
20.740000	-139.898530
20.750000	-111.764768
20.760000	-79.855595
20.770000	-37.303479
20.780000	30.586550
20.790000	122.827311
20.800000	251.779456
20.810000	420.648581
20.820000	604.278281
20.830000	798.913974
20.840000	995.816946
20.850000	1202.278440
20.860000	1398.337317
20.870000	1586.763401
20.880000	1762.228340
20.890000	1930.339449
20.900000	2084.481659
20.910000	2226.669867
20.920000	2343.758795
20.930000	2433.096006
20.940000	2508.482788
20.950000	2582.588782
20.960000	2667.609960
20.970000	2751.086372
20.980000	2824.488495
20.990000	2875.983475
21.000000	2931.547464
21.010000	2996.902856
21.020000	3068.994865
21.030000	3128.859027
21.040000	3165.880281
21.050000	3189.620274
21.060000	3201.159954
21.070000	3217.844949
21.080000	3240.480806
21.090000	3272.832188
21.100000	3308.863655
21.110000	3342.910486
21.120000	3374.017250
21.130000	3403.420363
21.140000	3433.600886
21.150000	3462.679262
21.160000	3488.278507
21.170000	3511.042808
21.180000	3537.736931
21.190000	3561.801374
21.200000	3594.008843
21.210000	3626.274941
21.220000	3666.759722
21.230000	3698.782165
21.240000	3732.687558
21.250000	3766.692960
21.260000	3796.713420
21.270000	3818.040498
21.280000	3829.855840
21.290000	3835.840331
21.300000	3838.769748
21.310000	3833.392769
21.320000	3824.486510
21.330000	3813.378343
21.340000	3773.235814
21.350000	3697.195900
21.360000	3591.799631
21.370000	3504.570922
21.380000	3441.361074
21.390000	3390.009048
21.400000	3332.352415
21.410000	3274.293432
21.420000	3222.459671
21.430000	3188.038003
21.440000	3167.975869
21.450000	3159.899522
21.460000	3155.591447
21.470000	3150.553682
21.480000	3143.999950
21.490000	3134.990438
21.500000	3130.212689
21.510000	3129.525306
21.520000	3138.558377
21.530000	3153.819090
21.540000	3175.364643
21.550000	3200.556468
21.560000	3229.964203
21.570000	3255.387705
21.580000	3272.692987
21.590000	3288.700509
21.600000	3312.546348
21.610000	3352.462429
21.620000	3400.473489
21.630000	3455.695463
21.640000	3513.842914
21.650000	3574.056163
21.660000	3627.976610
21.670000	3677.229075
21.680000	3728.241524
21.690000	3779.163821
21.700000	3820.937733
21.710000	3820.149262
21.720000	3771.160963
21.730000	3695.326017
21.740000	3629.878088
21.750000	3586.883664
21.760000	3553.309336
21.770000	3518.564107
21.780000	3486.897102
21.790000	3461.022405
21.800000	3452.624535
21.810000	3458.888847
21.820000	3471.785192
21.830000	3483.536426
21.840000	3490.737839
21.850000	3498.319729
21.860000	3506.122166
21.870000	3519.563487
21.880000	3540.608258
21.890000	3564.900567
21.900000	3592.215787
21.910000	3624.018428
21.920000	3660.261337
21.930000	3694.560399
21.940000	3724.759331
21.950000	3755.561337
21.960000	3790.025544
21.970000	3827.657834
21.980000	3867.728988
21.990000	3906.516521
22.000000	3941.538764
22.010000	3973.485999
22.020000	4007.461870
22.030000	4053.903774
22.040000	4105.769696
22.050000	4164.443142
22.060000	4204.100276
22.070000	4208.438479
22.080000	4183.922186
22.090000	4140.872160
22.100000	4098.194354
22.110000	4046.988380
22.120000	3951.149590
22.130000	3792.577354
22.140000	3610.684921
22.150000	3444.586433
22.160000	3292.861959
22.170000	3110.895330
22.180000	2917.630762
22.190000	2756.687902
22.200000	2633.041352
22.210000	2538.190066
22.220000	2451.162953
22.230000	2382.856992
22.240000	2343.358186
22.250000	2328.559404
22.260000	2321.925680
22.270000	2296.972798
22.280000	2254.304446
22.290000	2199.802780
22.300000	2140.085861
22.310000	2089.386159
22.320000	2049.230036
22.330000	2025.043067
22.340000	2006.726207
22.350000	2000.471158
22.360000	2004.258053
22.370000	2016.958369
22.380000	2032.163834
22.390000	2046.173205
22.400000	2068.156899
22.410000	2091.060468
22.420000	2108.199685
22.430000	2108.984076
22.440000	2074.932894
22.450000	1996.977304
22.460000	1887.433605
22.470000	1786.086390
22.480000	1709.910386
22.490000	1645.148081
22.500000	1556.028665
22.510000	1434.318968
22.520000	1287.555412
22.530000	1152.266223
22.540000	1068.453350
22.550000	1041.478218
22.560000	1041.278769
22.570000	1015.652397
22.580000	965.270618
22.590000	916.917710
22.600000	895.608555
22.610000	876.394937
22.620000	841.647255
22.630000	766.531221
22.640000	658.117274
22.650000	516.657306
22.660000	380.030668
22.670000	270.077531
22.680000	207.610928
22.690000	193.444002
22.700000	176.381008
22.710000	116.839859
22.720000	-16.162987
22.730000	-167.534074
22.740000	-288.398783
22.750000	-366.685657
22.760000	-431.091635
22.770000	-505.170041
22.780000	-567.342634
22.790000	-596.004963
22.800000	-582.314466
22.810000	-522.541545
22.820000	-422.669087
22.830000	-307.487723
22.840000	-191.689067
22.850000	-92.469031
22.860000	-49.133176
22.870000	-87.110782
22.880000	-157.740831
22.890000	-184.377861
22.900000	-150.216848
22.910000	-99.518482
22.920000	-78.405614
22.930000	-94.262152
22.940000	-146.617400
22.950000	-194.273702
22.960000	-211.921041
22.970000	-186.368566
22.980000	-114.303651
22.990000	-35.970040
23.000000	22.964989
23.010000	63.110063
23.020000	110.912198
23.030000	221.875769
23.040000	372.245702
23.050000	533.898324
23.060000	677.509615
23.070000	822.319490
23.080000	1028.482649
23.090000	1288.148801
23.100000	1568.647279
23.110000	1824.868551
23.120000	2051.844926
23.130000	2258.213249
23.140000	2420.205961
23.150000	2536.202624
23.160000	2632.559130
23.170000	2749.811006
23.180000	2862.977163
23.190000	2919.586761
23.200000	2908.081824
23.210000	2847.686016
23.220000	2783.160261
23.230000	2742.306992
23.240000	2740.771585
23.250000	2752.377338
23.260000	2761.975378
23.270000	2743.979122
23.280000	2697.471610
23.290000	2630.829004
23.300000	2568.231698
23.310000	2526.878016
23.320000	2481.758673
23.330000	2428.196846
23.340000	2361.163131
23.350000	2301.462877
23.360000	2270.777352
23.370000	2266.199831
23.380000	2289.607584
23.390000	2324.085778
23.400000	2359.989445
23.410000	2382.821100
23.420000	2390.265160
23.430000	2392.114420
23.440000	2374.665412
23.450000	2337.965558
23.460000	2265.537963
23.470000	2154.034728
23.480000	2014.964228
23.490000	1878.331868
23.500000	1768.215622
23.510000	1660.669413
23.520000	1548.683393
23.530000	1428.850924
23.540000	1308.010905
23.550000	1188.515902
23.560000	1091.550108
23.570000	1046.026246
23.580000	1048.154461
23.590000	1062.602418
23.600000	1068.615464
23.610000	1073.402815
23.620000	1091.575019
23.630000	1117.957893
23.640000	1148.009456
23.650000	1181.996775
23.660000	1230.272967
23.670000	1298.153963
23.680000	1388.659740
23.690000	1493.072568
23.700000	1586.125462
23.710000	1653.142067
23.720000	1704.445714
23.730000	1748.322556
23.740000	1793.213685
23.750000	1856.305054
23.760000	1953.085671
23.770000	2077.333939
23.780000	2177.937710
23.790000	2254.603067
23.800000	2297.862523
23.810000	2307.994223
23.820000	2289.558304
23.830000	2271.208023
23.840000	2279.669175
23.850000	2301.061247
23.860000	2312.837752
23.870000	2305.361976
23.880000	2286.797792
23.890000	2286.460549
23.900000	2326.140743
23.910000	2405.565918
23.920000	2508.170139
23.930000	2620.407900
23.940000	2730.596740
23.950000	2836.665456
23.960000	2946.436764
23.970000	3043.907543
23.980000	3114.995740
23.990000	3160.902302
24.000000	3198.973423
24.010000	3245.264862
24.020000	3297.936928
24.030000	3358.334751
24.040000	3417.233573
24.050000	3475.792230
24.060000	3547.921191
24.070000	3623.202365
24.080000	3664.217633
24.090000	3654.349425
24.100000	3624.320686
24.110000	3592.803411
24.120000	3547.341682
24.130000	3458.878630
24.140000	3338.803965
24.150000	3191.929327
24.160000	3017.240452
24.170000	2800.597483
24.180000	2568.438516
24.190000	2350.588335
24.200000	2141.516116
24.210000	1918.505194
24.220000	1668.256010
24.230000	1367.820979
24.240000	1014.271487
24.250000	684.869390
24.260000	403.897691
24.270000	185.255034
24.280000	-11.493542
24.290000	-181.289026
24.300000	-347.688200
24.310000	-480.413561
24.320000	-560.980424
24.330000	-581.636253
24.340000	-594.509294
24.350000	-636.225377
24.360000	-695.318583
24.370000	-778.614068
24.380000	-865.137667
24.390000	-940.443655
24.400000	-975.008447
24.410000	-967.781357
24.420000	-948.396886
24.430000	-914.802200
24.440000	-860.212620
24.450000	-778.602201
24.460000	-674.838793
24.470000	-567.891555
24.480000	-462.212481
24.490000	-375.006752
24.500000	-342.766718
24.510000	-396.905662
24.520000	-511.631584
24.530000	-625.845431
24.540000	-736.797959
24.550000	-862.319715
24.560000	-990.697923
24.570000	-1106.602197
24.580000	-1218.150487
24.590000	-1321.008733
24.600000	-1397.728671
24.610000	-1460.996385
24.620000	-1548.878280
24.630000	-1650.354293
24.640000	-1725.456810
24.650000	-1772.662893
24.660000	-1803.252269
24.670000	-1812.111554
24.680000	-1763.819545
24.690000	-1655.507982
24.700000	-1505.640389
24.710000	-1362.517950
24.720000	-1250.263012
24.730000	-1151.284793
24.740000	-1010.657783
24.750000	-811.367025
24.760000	-585.401646
24.770000	-386.393091
24.780000	-211.544805
24.790000	-60.984688
24.800000	49.708885
24.810000	68.760368
24.820000	0.215416
24.830000	-96.913963
24.840000	-143.128687
24.850000	-110.306187
24.860000	-118.793904
24.870000	-171.960330
24.880000	-261.680641
24.890000	-314.023361
24.900000	-345.742629
24.910000	-375.353946
24.920000	-494.605010
24.930000	-760.455942
24.940000	-1512.442471
24.950000	-2440.933062
24.960000	-3365.803416
24.970000	-4209.328266
24.980000	-4864.326562
24.990000	-5382.827345
25.000000	-5792.690929
25.010000	-6039.163607
25.020000	-6129.308135
25.030000	-6124.247066
25.040000	-6074.743092
25.050000	-6035.313923
25.060000	-6017.034725
25.070000	-6025.009912
25.080000	-6053.277660
25.090000	-6052.237202
25.100000	-5994.569042
25.110000	-5900.585286
25.120000	-5821.604905
25.130000	-5789.542036
25.140000	-5797.532165
25.150000	-5813.429828
25.160000	-5812.148493
25.170000	-5784.366431
25.180000	-5742.833417
25.190000	-5689.951682
25.200000	-5618.504715
25.210000	-5527.903619
25.220000	-5427.554267
25.230000	-5322.864328
25.240000	-5214.947362
25.250000	-5107.857333
25.260000	-5007.037344
25.270000	-4892.475648
25.280000	-4746.163502
25.290000	-4557.814602
25.300000	-4344.065091
25.310000	-4137.233478
25.320000	-3957.639241
25.330000	-3799.287568
25.340000	-3654.919352
25.350000	-3523.737431
25.360000	-3426.973224
25.370000	-3367.184470
25.380000	-3335.379024
25.390000	-3329.369015
25.400000	-3334.471133
25.410000	-3325.246436
25.420000	-3291.328827
25.430000	-3243.574749
25.440000	-3209.292704
25.450000	-3208.612715
25.460000	-3252.629490
25.470000	-3335.336436
25.480000	-3424.628966
25.490000	-3515.203098
25.500000	-3613.732275
25.510000	-3718.786689
25.520000	-3815.205285
25.530000	-3917.527477
25.540000	-4028.723657
25.550000	-4132.293416
25.560000	-4204.970211
25.570000	-4250.882807
25.580000	-4283.993399
25.590000	-4314.212086
25.600000	-4344.082068
25.610000	-4376.963996
25.620000	-4409.239934
25.630000	-4435.132957
25.640000	-4445.813654
25.650000	-4426.711619
25.660000	-4390.221439
25.670000	-4352.394836
25.680000	-4319.698556
25.690000	-4283.800852
25.700000	-4242.958304
25.710000	-4190.960199
25.720000	-4128.002288
25.730000	-4050.877853
25.740000	-3991.578251
25.750000	-3977.552630
25.760000	-4008.849489
25.770000	-4055.917553
25.780000	-4085.549682
25.790000	-4096.476718
25.800000	-4096.716071
25.810000	-4088.795639
25.820000	-4063.626170
25.830000	-4015.567074
25.840000	-3935.303286
25.850000	-3835.510056
25.860000	-3736.446396
25.870000	-3643.190500
25.880000	-3556.691290
25.890000	-3458.932592
25.900000	-3371.492591
25.910000	-3297.739560
25.920000	-3231.382799
25.930000	-3160.647425
25.940000	-3100.462814
25.950000	-3073.694031
25.960000	-3074.915871
25.970000	-3077.132578
25.980000	-3057.164351
25.990000	-3030.796828
26.000000	-3005.843337
26.010000	-2994.927057
26.020000	-2980.893653
26.030000	-2958.877819
26.040000	-2944.788116
26.050000	-2966.314989
26.060000	-3025.065262
26.070000	-3083.766620
26.080000	-3118.166314
26.090000	-3135.760484
26.100000	-3149.738233
26.110000	-3162.513496
26.120000	-3162.727895
26.130000	-3156.436712
26.140000	-3132.459381
26.150000	-3092.517963
26.160000	-3030.291455
26.170000	-2952.424232
26.180000	-2874.270232
26.190000	-2815.465066
26.200000	-2781.666764
26.210000	-2747.877835
26.220000	-2704.561862
26.230000	-2650.435993
26.240000	-2600.290428
26.250000	-2537.363398
26.260000	-2455.838197
26.270000	-2344.732310
26.280000	-2202.199959
26.290000	-2057.642463
26.300000	-1928.316959
26.310000	-1833.680411
26.320000	-1759.797143
26.330000	-1695.179784
26.340000	-1640.097441
26.350000	-1595.468544
26.360000	-1584.579880
26.370000	-1603.803844
26.380000	-1622.775762
26.390000	-1614.601959
26.400000	-1589.192403
26.410000	-1576.574723
26.420000	-1584.667423
26.430000	-1588.910416
26.440000	-1569.607623
26.450000	-1523.074920
26.460000	-1460.372822
26.470000	-1396.033118
26.480000	-1333.223953
26.490000	-1273.102576
26.500000	-1214.184242
26.510000	-1152.949149
26.520000	-1087.263992
26.530000	-1019.256018
26.540000	-959.147503
26.550000	-910.993737
26.560000	-868.115574
26.570000	-821.171099
26.580000	-777.241952
26.590000	-736.776344
26.600000	-694.130598
26.610000	-644.830028
26.620000	-593.154741
26.630000	-553.355431
26.640000	-523.912786
26.650000	-520.036875
26.660000	-549.426499
26.670000	-607.126065
26.680000	-662.311197
26.690000	-700.033759
26.700000	-731.709397
26.710000	-764.704278
26.720000	-800.865903
26.730000	-826.772502
26.740000	-852.191920
26.750000	-873.910393
26.760000	-895.976036
26.770000	-925.828579
26.780000	-984.233886
26.790000	-1080.150952
26.800000	-1193.514778
26.810000	-1309.924442
26.820000	-1417.571146
26.830000	-1528.197096
26.840000	-1638.018798
26.850000	-1749.252927
26.860000	-1865.235650
26.870000	-1991.747684
26.880000	-2125.191698
26.890000	-2248.971085
26.900000	-2354.934673
26.910000	-2442.645443
26.920000	-2515.784752
26.930000	-2572.065208
26.940000	-2599.034706
26.950000	-2615.330801
26.960000	-2654.084200
26.970000	-2731.308391
26.980000	-2822.112955
26.990000	-2886.669140
27.000000	-2938.712244
27.010000	-2980.420773
27.020000	-3018.077961
27.030000	-3040.211302
27.040000	-3061.268354
27.050000	-3081.381802
27.060000	-3100.877686
27.070000	-3114.621480
27.080000	-3124.255553
27.090000	-3139.966942
27.100000	-3146.311046
27.110000	-3145.775369
27.120000	-3125.737755
27.130000	-3103.076522
27.140000	-3076.525292
27.150000	-3048.129712
27.160000	-3020.055023
27.170000	-2988.908408
27.180000	-2952.327241
27.190000	-2907.758439
27.200000	-2848.659209
27.210000	-2776.700570
27.220000	-2705.425470
27.230000	-2651.384776
27.240000	-2609.531670
27.250000	-2567.781003
27.260000	-2536.095188
27.270000	-2523.236091
27.280000	-2545.072429
27.290000	-2596.025170
27.300000	-2670.441046
27.310000	-2752.509930
27.320000	-2817.173153
27.330000	-2859.771575
27.340000	-2879.969939
27.350000	-2900.481258
27.360000	-2928.106334
27.370000	-2959.879322
27.380000	-2964.879699
27.390000	-2952.099283
27.400000	-2939.053922
27.410000	-2938.348357
27.420000	-2947.227028
27.430000	-2951.940089
27.440000	-2963.840369
27.450000	-2978.859167
27.460000	-2997.166785
27.470000	-3017.139795
27.480000	-3035.185961
27.490000	-3039.093256
27.500000	-3017.569158
27.510000	-2967.094532
27.520000	-2916.399011
27.530000	-2879.077253
27.540000	-2857.218525
27.550000	-2828.345321
27.560000	-2791.113782
27.570000	-2744.630518
27.580000	-2684.346398
27.590000	-2628.323375
27.600000	-2572.862944
27.610000	-2530.736622
27.620000	-2504.023384
27.630000	-2513.873602
27.640000	-2549.766264
27.650000	-2577.613342
27.660000	-2595.262389
27.670000	-2607.368673
27.680000	-2620.759384
27.690000	-2629.080701
27.700000	-2647.305835
27.710000	-2670.393266
27.720000	-2682.810261
27.730000	-2665.347119
27.740000	-2630.049833
27.750000	-2589.950879
27.760000	-2540.553002
27.770000	-2482.210906
27.780000	-2403.330811
27.790000	-2321.523101
27.800000	-2241.710209
27.810000	-2161.783557
27.820000	-2081.727384
27.830000	-1999.334463
27.840000	-1919.057077
27.850000	-1836.820590
27.860000	-1758.370117
27.870000	-1680.235506
27.880000	-1595.960097
27.890000	-1495.590326
27.900000	-1402.254806
27.910000	-1316.828906
27.920000	-1243.501164
27.930000	-1184.000942
27.940000	-1145.032384
27.950000	-1148.483525
27.960000	-1203.795899
27.970000	-1310.202180
27.980000	-1393.954036
27.990000	-1415.941992
28.000000	-1407.897033
28.010000	-1415.641732
28.020000	-1427.266947
28.030000	-1387.806275
28.040000	-1303.385291
28.050000	-1207.624534
28.060000	-1098.314313
28.070000	-959.311160
28.080000	-785.176914
28.090000	-594.966769
28.100000	-360.475616
28.110000	-58.497799
28.120000	333.619009
28.130000	729.488694
28.140000	1083.620681
28.150000	1416.487624
28.160000	1730.127870
28.170000	2008.884341
28.180000	2228.236705
28.190000	2376.062129
28.200000	2457.852715
28.210000	2481.039795
28.220000	2445.244235
28.230000	2368.534151
28.240000	2261.082472
28.250000	2164.585857
28.260000	2088.304738
28.270000	2025.402135
28.280000	1944.604329
28.290000	1833.416743
28.300000	1713.145803
28.310000	1604.581264
28.320000	1500.430419
28.330000	1393.568781
28.340000	1299.602252
28.350000	1230.372990
28.360000	1184.901466
28.370000	1142.287308
28.380000	1110.781121
28.390000	1092.687882
28.400000	1094.844680
28.410000	1098.190980
28.420000	1089.767507
28.430000	1062.555086
28.440000	1017.224992
28.450000	975.158445
28.460000	948.508332
28.470000	958.974718
28.480000	991.546351
28.490000	1032.986852
28.500000	1063.760192
28.510000	1100.961520
28.520000	1151.810960
28.530000	1201.074017
28.540000	1235.736106
28.550000	1247.068671
28.560000	1250.600359
28.570000	1249.570812
28.580000	1251.352618
28.590000	1236.210562
28.600000	1200.697076
28.610000	1152.430227
28.620000	1118.981244
28.630000	1111.825968
28.640000	1118.756014
28.650000	1146.163814
28.660000	1192.401740
28.670000	1259.740811
28.680000	1337.910082
28.690000	1414.878704
28.700000	1481.326926
28.710000	1528.253847
28.720000	1554.336540
28.730000	1560.876513
28.740000	1555.271840
28.750000	1549.422432
28.760000	1555.453917
28.770000	1582.207416
28.780000	1616.157903
28.790000	1653.938881
28.800000	1688.772999
28.810000	1724.287959
28.820000	1748.937331
28.830000	1766.271281
28.840000	1779.695904
28.850000	1805.219032
28.860000	1838.664025
28.870000	1871.421417
28.880000	1896.572078
28.890000	1899.205610
28.900000	1884.474114
28.910000	1840.550494
28.920000	1794.090938
28.930000	1756.798487
28.940000	1738.648941
28.950000	1722.252305
28.960000	1699.180934
28.970000	1676.700310
28.980000	1668.349609
28.990000	1673.731176
29.000000	1688.129241
29.010000	1707.053815
29.020000	1722.525433
29.030000	1733.356230
29.040000	1734.206313
29.050000	1732.658522
29.060000	1733.177962
29.070000	1734.913817
29.080000	1739.458852
29.090000	1746.467901
29.100000	1757.049417
29.110000	1775.671790
29.120000	1791.573612
29.130000	1808.559349
29.140000	1822.387568
29.150000	1830.431386
29.160000	1834.194415
29.170000	1832.278493
29.180000	1832.009747
29.190000	1831.419399
29.200000	1822.128261
29.210000	1791.537617
29.220000	1729.243140
29.230000	1653.058437
29.240000	1589.374757
29.250000	1546.524238
29.260000	1521.471127
29.270000	1498.953819
29.280000	1475.264631
29.290000	1449.056648
29.300000	1424.742071
29.310000	1417.190998
29.320000	1417.491661
29.330000	1423.014732
29.340000	1422.557818
29.350000	1418.884917
29.360000	1420.315291
29.370000	1429.416655
29.380000	1446.077373
29.390000	1462.941739
29.400000	1473.857266
29.410000	1482.175356
29.420000	1490.318286
29.430000	1501.429202
29.440000	1513.785420
29.450000	1521.358588
29.460000	1518.609137
29.470000	1517.024515
29.480000	1525.784150
29.490000	1547.029930
29.500000	1575.298263
29.510000	1585.342159
29.520000	1569.890719
29.530000	1511.656993
29.540000	1438.973054
29.550000	1370.644702
29.560000	1321.411040
29.570000	1287.282231
29.580000	1258.535637
29.590000	1232.642966
29.600000	1209.036814
29.610000	1194.395869
29.620000	1190.898963
29.630000	1203.530868
29.640000	1219.755096
29.650000	1226.039615
29.660000	1227.707198
29.670000	1233.268998
29.680000	1253.378082
29.690000	1280.161408
29.700000	1304.426925
29.710000	1333.815964
29.720000	1363.491730
29.730000	1404.231286
29.740000	1439.533800
29.750000	1468.074775
29.760000	1492.307018
29.770000	1518.316628
29.780000	1547.122306
29.790000	1575.604029
29.800000	1605.007419
29.810000	1632.271679
29.820000	1638.241301
29.830000	1602.329260
29.840000	1539.300355
29.850000	1473.141113
29.860000	1429.426908
29.870000	1398.921337
29.880000	1370.279161
29.890000	1340.122434
29.900000	1309.209251
29.910000	1283.070597
29.920000	1270.215618
29.930000	1271.065439
29.940000	1288.966367
29.950000	1309.415053
29.960000	1326.812811
29.970000	1335.503177
29.980000	1337.419526
29.990000	1336.336531
30.000000	1340.111701
30.010000	1347.553343
30.020000	1356.209451
30.030000	1362.175918
30.040000	1367.066147
30.050000	1376.219884
30.060000	1373.609335
30.070000	1370.083530
30.080000	1363.195872
30.090000	1372.755501
30.100000	1394.464051
30.110000	1425.847652
30.120000	1459.801984
30.130000	1483.340081
30.140000	1484.559954
30.150000	1448.909567
30.160000	1389.478783
30.170000	1326.250183
30.180000	1283.495509
30.190000	1248.910365
30.200000	1213.943136
30.210000	1179.016349
30.220000	1151.832462
30.230000	1136.200556
30.240000	1130.128643
30.250000	1136.488103
30.260000	1153.168311
30.270000	1167.170098
30.280000	1176.329268
30.290000	1183.290665
30.300000	1195.261947
30.310000	1212.485111
30.320000	1232.280091
30.330000	1260.463522
30.340000	1289.355592
30.350000	1319.893817
30.360000	1345.505796
30.370000	1371.452383
30.380000	1400.411777
30.390000	1428.088423
30.400000	1460.442971
30.410000	1486.441903
30.420000	1513.288767
30.430000	1534.188503
30.440000	1556.271425
30.450000	1580.684321
30.460000	1586.626481
30.470000	1561.636071
30.480000	1487.064582
30.490000	1383.796771
30.500000	1278.953834
30.510000	1203.402091
30.520000	1149.505309
30.530000	1089.721006
30.540000	1017.549803
30.550000	963.577282
30.560000	942.319272
30.570000	944.805096
30.580000	947.150755
30.590000	948.532812
30.600000	948.085602
30.610000	952.718941
30.620000	957.759264
30.630000	960.013330
30.640000	966.565574
30.650000	977.392837
30.660000	988.131483
30.670000	991.536160
30.680000	996.179437
30.690000	1008.445599
30.700000	1025.307190
30.710000	1041.788856
30.720000	1057.553694
30.730000	1074.243730
30.740000	1091.567902
30.750000	1104.124404
30.760000	1118.388052
30.770000	1132.422107
30.780000	1155.345503
30.790000	1165.074510
30.800000	1147.766111
30.810000	1086.826664
30.820000	1004.734782
30.830000	925.691065
30.840000	871.805323
30.850000	831.236585
30.860000	793.654465
30.870000	760.254959
30.880000	731.609826
30.890000	716.403618
30.900000	710.304168
30.910000	720.692572
30.920000	731.375271
30.930000	737.119856
30.940000	730.548752
30.950000	725.714311
30.960000	727.471985
30.970000	738.410918
30.980000	751.142886
30.990000	759.218529
31.000000	765.280534
31.010000	767.789776
31.020000	765.861777
31.030000	757.132091
31.040000	737.212593
31.050000	711.275789
31.060000	692.025875
31.070000	687.849394
31.080000	698.925025
31.090000	708.819091
31.100000	715.639138
31.110000	706.199429
31.120000	668.130447
31.130000	606.736554
31.140000	535.084608
31.150000	482.092029
31.160000	440.046256
31.170000	400.219419
31.180000	358.461788
31.190000	320.481799
31.200000	299.338690
31.210000	289.133220
31.220000	294.351827
31.230000	308.528863
31.240000	319.791007
31.250000	324.387638
31.260000	316.999957
31.270000	308.732182
31.280000	303.964353
31.290000	307.852691
31.300000	320.689135
31.310000	331.716510
31.320000	348.905591
31.330000	364.978592
31.340000	391.614162
31.350000	415.612299
31.360000	446.157405
31.370000	482.658914
31.380000	528.818758
31.390000	578.117003
31.400000	620.242470
31.410000	648.691542
31.420000	638.387714
31.430000	585.095748
31.440000	497.340306
31.450000	410.679711
31.460000	340.342436
31.470000	288.666846
31.480000	238.061601
31.490000	187.136781
31.500000	124.859106
31.510000	53.414374
31.520000	-12.872171
31.530000	-61.207844
31.540000	-85.183394
31.550000	-103.127229
31.560000	-107.987609
31.570000	-100.296956
31.580000	-86.370695
31.590000	-81.721740
31.600000	-88.613996
31.610000	-112.385045
31.620000	-158.420982
31.630000	-222.920141
31.640000	-293.100468
31.650000	-354.347507
31.660000	-403.375174
31.670000	-433.997817
31.680000	-444.894280
31.690000	-432.539911
31.700000	-401.667364
31.710000	-359.988276
31.720000	-327.706303
31.730000	-329.012591
31.740000	-377.949149
31.750000	-452.837362
31.760000	-530.085417
31.770000	-590.573202
31.780000	-639.186515
31.790000	-685.888655
31.800000	-732.163425
31.810000	-772.417200
31.820000	-802.042334
31.830000	-822.528538
31.840000	-839.498723
31.850000	-856.868060
31.860000	-866.822512
31.870000	-875.813111
31.880000	-878.680824
31.890000	-879.683828
31.900000	-877.423454
31.910000	-864.772045
31.920000	-849.774364
31.930000	-827.725220
31.940000	-808.398382
31.950000	-791.885167
31.960000	-779.592732
31.970000	-770.271216
31.980000	-752.325412
31.990000	-733.610770
32.000000	-707.251044
32.010000	-679.887526
32.020000	-649.720226
32.030000	-622.418185
32.040000	-615.455201
32.050000	-640.833831
32.060000	-701.732594
32.070000	-769.395057
32.080000	-821.928765
32.090000	-850.558865
32.100000	-871.092296
32.110000	-887.590208
32.120000	-903.487181
32.130000	-914.165785
32.140000	-915.115311
32.150000	-902.643159
32.160000	-874.981535
32.170000	-844.391790
32.180000	-823.414498
32.190000	-806.657047
32.200000	-785.404118
32.210000	-745.807218
32.220000	-683.986690
32.230000	-606.551657
32.240000	-525.816943
32.250000	-450.852405
32.260000	-367.481778
32.270000	-272.748939
32.280000	-176.413041
32.290000	-100.243162
32.300000	-40.171242
32.310000	6.694952
32.320000	64.230559
32.330000	124.982864
32.340000	189.423436
32.350000	239.990694
32.360000	258.383867
32.370000	234.457310
32.380000	175.495357
32.390000	121.450301
32.400000	91.653660
32.410000	87.831850
32.420000	99.214679
32.430000	123.674305
32.440000	152.528325
32.450000	188.652594
32.460000	231.269485
32.470000	290.097385
32.480000	350.381224
32.490000	402.995557
32.500000	437.928569
32.510000	456.362633
32.520000	468.940170
32.530000	480.485450
32.540000	495.723329
32.550000	512.695182
32.560000	523.930058
32.570000	535.046342
32.580000	549.569948
32.590000	567.159217
32.600000	583.972655
32.610000	598.384026
32.620000	629.538346
32.630000	673.651876
32.640000	704.816029
32.650000	703.376402
32.660000	662.568685
32.670000	586.236364
32.680000	477.759762
32.690000	356.914440
32.700000	255.757709
32.710000	193.998454
32.720000	172.142815
32.730000	172.138110
32.740000	166.274724
32.750000	143.430025
32.760000	112.568549
32.770000	96.867764
32.780000	106.934675
32.790000	126.672359
32.800000	144.754143
32.810000	150.585910
32.820000	158.081239
32.830000	166.900668
32.840000	177.851874
32.850000	189.984353
32.860000	202.396433
32.870000	220.525940
32.880000	241.692551
32.890000	266.851397
32.900000	289.408515
32.910000	313.647337
32.920000	328.857264
32.930000	344.272048
32.940000	357.046850
32.950000	373.362246
32.960000	380.291341
32.970000	357.539608
32.980000	296.675827
32.990000	197.179455
33.000000	93.931647
33.010000	7.219992
33.020000	-54.738240
33.030000	-108.032112
33.040000	-161.280152
33.050000	-207.801399
33.060000	-241.716797
33.070000	-257.798332
33.080000	-255.726106
33.090000	-253.070240
33.100000	-251.584469
33.110000	-260.588745
33.120000	-271.954040
33.130000	-284.017461
33.140000	-290.871052
33.150000	-289.680364
33.160000	-291.384954
33.170000	-295.537696
33.180000	-303.128480
33.190000	-299.577917
33.200000	-291.154891
33.210000	-280.500433
33.220000	-267.064764
33.230000	-260.008477
33.240000	-250.149748
33.250000	-245.121491
33.260000	-246.777606
33.270000	-264.480501
33.280000	-313.313174
33.290000	-393.691178
33.300000	-492.704049
33.310000	-579.410860
33.320000	-640.033874
33.330000	-685.757526
33.340000	-735.944528
33.350000	-789.606603
33.360000	-836.053441
33.370000	-865.683507
33.380000	-871.393981
33.390000	-864.368655
33.400000	-853.954074
33.410000	-852.620223
33.420000	-858.031248
33.430000	-861.077498
33.440000	-857.345526
33.450000	-845.768058
33.460000	-826.888203
33.470000	-805.360431
33.480000	-783.982843
33.490000	-761.498595
33.500000	-737.636981
33.510000	-711.525085
33.520000	-688.531428
33.530000	-663.746360
33.540000	-639.669082
33.550000	-607.158361
33.560000	-574.410220
33.570000	-540.434161
33.580000	-517.743974
33.590000	-525.951471
33.600000	-577.613519
33.610000	-664.633709
33.620000	-749.289828
33.630000	-804.566630
33.640000	-837.280139
33.650000	-864.415030
33.660000	-892.462307
33.670000	-920.129188
33.680000	-932.828217
33.690000	-929.767940
33.700000	-911.083147
33.710000	-891.666806
33.720000	-879.538542
33.730000	-872.423162
33.740000	-871.890013
33.750000	-870.373025
33.760000	-860.125994
33.770000	-846.242894
33.780000	-828.565353
33.790000	-816.356166
33.800000	-797.830817
33.810000	-775.057781
33.820000	-745.968255
33.830000	-705.968837
33.840000	-667.033938
33.850000	-622.043216
33.860000	-578.689097
33.870000	-527.619258
33.880000	-477.608871
33.890000	-436.406987
33.900000	-403.386487
33.910000	-395.456735
33.920000	-424.029193
33.930000	-483.339164
33.940000	-545.156383
33.950000	-583.440122
33.960000	-604.584833
33.970000	-622.774305
33.980000	-639.523301
33.990000	-652.642777
34.000000	-652.986769
34.010000	-634.396535
34.020000	-606.035703
34.030000	-574.352516
34.040000	-550.974841
34.050000	-534.815843
34.060000	-520.109682
34.070000	-505.833703
34.080000	-482.094613
34.090000	-454.434689
34.100000	-424.609482
34.110000	-395.244674
34.120000	-366.657555
34.130000	-338.257978
34.140000	-313.589055
34.150000	-290.126285
34.160000	-267.063200
34.170000	-241.526433
34.180000	-218.094921
34.190000	-189.096292
34.200000	-160.366689
34.210000	-130.849750
34.220000	-108.532073
34.230000	-115.176071
34.240000	-157.189894
34.250000	-225.661169
34.260000	-289.988579
34.270000	-340.069246
34.280000	-379.023171
34.290000	-408.672925
34.300000	-431.257645
34.310000	-450.813180
34.320000	-458.320807
34.330000	-451.502725
34.340000	-432.593367
34.350000	-417.426186
34.360000	-414.374894
34.370000	-422.519798
34.380000	-436.339009
34.390000	-441.784771
34.400000	-431.515868
34.410000	-413.285069
34.420000	-395.220501
34.430000	-380.631746
34.440000	-361.085364
34.450000	-339.535050
34.460000	-317.471089
34.470000	-297.632861
34.480000	-279.037193
34.490000	-259.584401
34.500000	-236.123395
34.510000	-207.396982
34.520000	-181.758017
34.530000	-164.054814
34.540000	-172.283143
34.550000	-218.550383
34.560000	-301.625057
34.570000	-388.478222
34.580000	-452.503727
34.590000	-497.675342
34.600000	-541.938906
34.610000	-581.664174
34.620000	-611.887562
34.630000	-629.842344
34.640000	-638.033496
34.650000	-631.181422
34.660000	-614.389725
34.670000	-599.720875
34.680000	-593.243565
34.690000	-587.403124
34.700000	-575.613084
34.710000	-554.272729
34.720000	-524.173285
34.730000	-493.674535
34.740000	-458.208851
34.750000	-424.283751
34.760000	-387.724854
34.770000	-349.081833
34.780000	-305.406586
34.790000	-267.425586
34.800000	-234.230583
34.810000	-197.589549
34.820000	-155.578335
34.830000	-115.952632
34.840000	-75.066740
34.850000	-35.504225
34.860000	-20.449228
34.870000	-52.892220
34.880000	-124.582274
34.890000	-195.361712
34.900000	-251.623472
34.910000	-290.027395
34.920000	-332.234092
34.930000	-374.790954
34.940000	-414.344595
34.950000	-436.021906
34.960000	-439.994876
34.970000	-422.072083
34.980000	-388.838715
34.990000	-351.297765
35.000000	-320.846419
35.010000	-305.676837
35.020000	-288.946964
35.030000	-269.927836
35.040000	-240.521009
35.050000	-216.403945
35.060000	-202.558217
35.070000	-200.027844
35.080000	-185.687042
35.090000	-146.169277
35.100000	-70.312045
35.110000	26.125831
35.120000	131.251327
35.130000	249.644549
35.140000	391.676244
35.150000	563.665052
35.160000	745.876457
35.170000	920.204150
35.180000	1067.254523
35.190000	1173.608306
35.200000	1220.467053
35.210000	1220.615697
35.220000	1201.904692
35.230000	1197.154369
35.240000	1215.127782
35.250000	1237.804892
35.260000	1254.891382
35.270000	1262.994199
35.280000	1271.878147
35.290000	1290.034222
35.300000	1328.727260
35.310000	1381.881854
35.320000	1437.415609
35.330000	1491.274429
35.340000	1540.296447
35.350000	1596.900308
35.360000	1665.011601
35.370000	1749.386564
35.380000	1838.206436
35.390000	1926.082787
35.400000	2009.265165
35.410000	2045.198903
35.420000	1997.200222
35.430000	1899.370026
35.440000	1809.060104
35.450000	1719.559856
35.460000	1634.142417
35.470000	1558.952923
35.480000	1499.084183
35.490000	1424.779600
35.500000	1350.677519
35.510000	1307.513759
35.520000	1274.994255
35.530000	1272.888460
35.540000	1324.852444
35.550000	1437.413827
35.560000	1555.405818
35.570000	1686.977978
35.580000	1890.963520
35.590000	2197.147696
35.600000	2609.473447
35.610000	2996.185143
35.620000	3311.810745
35.630000	3552.161349
35.640000	3723.076707
35.650000	3844.304768
35.660000	3955.263247
35.670000	4064.563556
35.680000	4190.008415
35.690000	4319.941524
35.700000	4471.031490
35.710000	4654.504649
35.720000	4883.927728
35.730000	5141.180750
35.740000	5411.366065
35.750000	5685.405961
35.760000	5958.014454
35.770000	6213.134371
35.780000	6433.191234
35.790000	6605.074006
35.800000	6728.267943
35.810000	6802.546090
35.820000	6831.553232
35.830000	6817.879468
35.840000	6770.720391
35.850000	6700.078282
35.860000	6602.045349
35.870000	6492.526928
35.880000	6371.187147
35.890000	6221.458433
35.900000	6012.817340
35.910000	5739.985248
35.920000	5449.782475
35.930000	5184.022663
35.940000	4956.193297
35.950000	4743.817218
35.960000	4503.401385
35.970000	4226.562231
35.980000	3925.853346
35.990000	3645.914050
36.000000	3401.741527
36.010000	3189.062839
36.020000	3003.143911
36.030000	2847.415074
36.040000	2730.741107
36.050000	2609.468462
36.060000	2449.207976
36.070000	2225.391863
36.080000	1958.640792
36.090000	1663.806701
36.100000	1367.612259
36.110000	1079.345119
36.120000	815.105982
36.130000	592.055395
36.140000	434.453548
36.150000	350.220524
36.160000	327.244545
36.170000	344.859324
36.180000	389.551069
36.190000	448.661734
36.200000	500.659856
36.210000	532.980781
36.220000	515.210331
36.230000	430.158897
36.240000	262.587609
36.250000	72.363437
36.260000	-78.543839
36.270000	-154.353095
36.280000	-175.680639
36.290000	-166.263293
36.300000	-135.631490
36.310000	-83.333786
36.320000	-6.765446
36.330000	86.711354
36.340000	187.235439
36.350000	276.206223
36.360000	349.080691
36.370000	402.843070
36.380000	443.086063
36.390000	480.295187
36.400000	522.886268
36.410000	571.190967
36.420000	624.815696
36.430000	678.536708
36.440000	737.903279
36.450000	799.652147
36.460000	864.126671
36.470000	923.870727
36.480000	982.503701
36.490000	1042.541480
36.500000	1098.646343
36.510000	1138.311698
36.520000	1146.566669
36.530000	1123.573223
36.540000	1070.605079
36.550000	995.967704
36.560000	902.072882
36.570000	798.158445
36.580000	695.656148
36.590000	604.452967
36.600000	521.978470
36.610000	435.825654
36.620000	357.135892
36.630000	277.914776
36.640000	209.447159
36.650000	156.752815
36.660000	133.546997
36.670000	133.966998
36.680000	146.727084
36.690000	176.986720
36.700000	231.336698
36.710000	314.759512
36.720000	418.999331
36.730000	538.293752
36.740000	651.706774
36.750000	754.624526
36.760000	826.119661
36.770000	865.426134
36.780000	860.248213
36.790000	816.022311
36.800000	737.452482
36.810000	642.063284
36.820000	533.693931
36.830000	404.812976
36.840000	258.035039
36.850000	118.361119
36.860000	5.430224
36.870000	-93.111302
36.880000	-193.452652
36.890000	-304.833661
36.900000	-426.913069
36.910000	-561.500614
36.920000	-700.285871
36.930000	-831.432889
36.940000	-948.616971
36.950000	-1040.963981
36.960000	-1096.892251
36.970000	-1110.792407
36.980000	-1092.158077
36.990000	-1057.925131
37.000000	-1024.374080
37.010000	-1007.009147
37.020000	-1004.164456
37.030000	-1016.388878
37.040000	-1041.906172
37.050000	-1087.751957
37.060000	-1141.220895
37.070000	-1187.070036
37.080000	-1214.511223
37.090000	-1219.705299
37.100000	-1205.786857
37.110000	-1171.295472
37.120000	-1123.722647
37.130000	-1066.845710
37.140000	-1009.978601
37.150000	-957.689220
37.160000	-925.572492
37.170000	-904.440316
37.180000	-883.472220
37.190000	-870.554437
37.200000	-877.361984
37.210000	-917.320978
37.220000	-968.135889
37.230000	-1019.771416
37.240000	-1066.573348
37.250000	-1115.241932
37.260000	-1165.980393
37.270000	-1218.700355
37.280000	-1268.029570
37.290000	-1310.822805
37.300000	-1338.723601
37.310000	-1351.962588
37.320000	-1360.104925
37.330000	-1368.085875
37.340000	-1369.452415
37.350000	-1353.863810
37.360000	-1325.506338
37.370000	-1284.966256
37.380000	-1245.597582
37.390000	-1205.028947
37.400000	-1169.049182
37.410000	-1127.386635
37.420000	-1079.868788
37.430000	-1025.750838
37.440000	-965.367254
37.450000	-905.142132
37.460000	-843.187722
37.470000	-784.899386
37.480000	-726.663856
37.490000	-673.027240
37.500000	-636.176943
37.510000	-632.517080
37.520000	-668.347114
37.530000	-717.269715
37.540000	-752.536680
37.550000	-771.108917
37.560000	-784.121040
37.570000	-824.364543
37.580000	-863.896605
37.590000	-895.034902
37.600000	-896.327835
37.610000	-877.485391
37.620000	-853.803335
37.630000	-831.607887
37.640000	-825.332120
37.650000	-820.683542
37.660000	-815.259982
37.670000	-809.801942
37.680000	-811.574232
37.690000	-799.545441
37.700000	-772.312890
37.710000	-719.636169
37.720000	-660.838583
37.730000	-601.395697
37.740000	-546.070144
37.750000	-498.861943
37.760000	-454.987377
37.770000	-419.399043
37.780000	-387.924637
37.790000	-365.340117
37.800000	-369.946080
37.810000	-416.318969
37.820000	-504.309385
37.830000	-612.957268
37.840000	-711.697208
37.850000	-791.707146
37.860000	-856.505072
37.870000	-912.518781
37.880000	-963.694163
37.890000	-1008.036417
37.900000	-1034.247622
37.910000	-1034.955685
37.920000	-1015.895518
37.930000	-993.296464
37.940000	-970.902720
37.950000	-939.997518
37.960000	-904.673837
37.970000	-866.086794
37.980000	-824.840616
37.990000	-784.582483
38.000000	-742.722528
38.010000	-703.830971
38.020000	-659.636501
38.030000	-613.512967
38.040000	-570.290187
38.050000	-525.572857
38.060000	-482.034031
38.070000	-430.003769
38.080000	-381.576751
38.090000	-339.482226
38.100000	-314.549153
38.110000	-325.724583
38.120000	-377.557778
38.130000	-457.329439
38.140000	-528.912867
38.150000	-582.752185
38.160000	-626.059744
38.170000	-665.586882
38.180000	-698.260334
38.190000	-723.844213
38.200000	-742.210200
38.210000	-745.831005
38.220000	-726.909906
38.230000	-693.278760
38.240000	-667.401961
38.250000	-655.768916
38.260000	-654.285338
38.270000	-645.643947
38.280000	-627.297858
38.290000	-595.939593
38.300000	-552.411910
38.310000	-506.350280
38.320000	-459.930454
38.330000	-420.868584
38.340000	-380.831399
38.350000	-345.185076
38.360000	-310.469405
38.370000	-282.957011
38.380000	-256.502757
38.390000	-229.839198
38.400000	-197.956753
38.410000	-166.849931
38.420000	-135.824766
38.430000	-123.346405
38.440000	-151.135571
38.450000	-211.195836
38.460000	-279.838581
38.470000	-325.459559
38.480000	-362.103727
38.490000	-398.145188
38.500000	-436.792891
38.510000	-472.244991
38.520000	-499.256558
38.530000	-511.782953
38.540000	-506.167850
38.550000	-483.776480
38.560000	-464.572704
38.570000	-457.182048
38.580000	-458.054666
38.590000	-455.676986
38.600000	-447.339412
38.610000	-440.646214
38.620000	-436.719670
38.630000	-430.713047
38.640000	-420.889820
38.650000	-404.225038
38.660000	-380.517096
38.670000	-351.191543
38.680000	-316.926371
38.690000	-282.621030
38.700000	-251.115376
38.710000	-221.492920
38.720000	-191.754792
38.730000	-158.481620
38.740000	-121.524562
38.750000	-88.279740
38.760000	-58.729994
38.770000	-43.229694
38.780000	-65.429282
38.790000	-138.943412
38.800000	-251.850417
38.810000	-362.702004
38.820000	-449.785717
38.830000	-516.323025
38.840000	-572.200587
38.850000	-623.729471
38.860000	-671.395347
38.870000	-717.604389
38.880000	-760.040973
38.890000	-799.953564
38.900000	-831.799711
38.910000	-856.452748
38.920000	-869.343173
38.930000	-879.121864
38.940000	-896.693722
38.950000	-939.944987
38.960000	-1014.145048
38.970000	-1103.847234
38.980000	-1182.368788
38.990000	-1229.237059
39.000000	-1239.105166
39.010000	-1213.450621
39.020000	-1166.348362
39.030000	-1101.107381
39.040000	-1036.106259
39.050000	-971.855579
39.060000	-914.687856
39.070000	-862.722786
39.080000	-814.078196
39.090000	-768.403457
39.100000	-720.598589
39.110000	-675.254344
39.120000	-635.926901
39.130000	-623.965351
39.140000	-654.048631
39.150000	-721.100987
39.160000	-794.245527
39.170000	-845.725031
39.180000	-875.665985
39.190000	-897.867403
39.200000	-920.218112
39.210000	-943.137615
39.220000	-956.891152
39.230000	-958.241587
39.240000	-945.050227
39.250000	-927.195346
39.260000	-913.022299
39.270000	-906.287461
39.280000	-904.127564
39.290000	-896.177420
39.300000	-877.399646
39.310000	-844.223989
39.320000	-804.857045
39.330000	-765.752435
39.340000	-726.449191
39.350000	-685.432098
39.360000	-647.546624
39.370000	-616.931336
39.380000	-589.777441
39.390000	-566.263763
39.400000	-541.483548
39.410000	-524.123132
39.420000	-537.720399
39.430000	-614.830899
39.440000	-766.054251
39.450000	-960.916829
39.460000	-1155.509172
39.470000	-1313.849499
39.480000	-1426.863283
39.490000	-1500.315194
39.500000	-1543.720270
39.510000	-1558.919350
39.520000	-1552.416557
39.530000	-1541.379565
39.540000	-1541.937031
39.550000	-1557.298262
39.560000	-1571.900161
39.570000	-1581.074674
39.580000	-1576.347524
39.590000	-1557.702557
39.600000	-1522.282201
39.610000	-1481.531710
39.620000	-1450.054396
39.630000	-1424.139588
39.640000	-1402.662893
39.650000	-1372.543991
39.660000	-1342.494092
39.670000	-1308.743776
39.680000	-1277.515869
39.690000	-1241.402721
39.700000	-1201.725002
39.710000	-1159.892072
39.720000	-1118.768401
39.730000	-1079.540514
39.740000	-1037.292160
39.750000	-991.698774
39.760000	-943.315620
39.770000	-897.367213
39.780000	-849.476794
39.790000	-796.870864
39.800000	-740.144749
39.810000	-690.902328
39.820000	-653.958344
39.830000	-643.791325
39.840000	-666.580166
39.850000	-720.823614
39.860000	-780.632751
39.870000	-829.379102
39.880000	-859.207213
39.890000	-883.156440
39.900000	-906.257478
39.910000	-928.751758
39.920000	-948.131322
39.930000	-959.504983
39.940000	-958.838623
39.950000	-941.420763
39.960000	-915.746586
39.970000	-894.846687
39.980000	-884.131266
39.990000	-877.405006
40.000000	-866.675228
40.010000	-850.478754
40.020000	-830.057387
40.030000	-810.393476
40.040000	-792.592861
40.050000	-774.797273
40.060000	-760.640553
40.070000	-745.007421
40.080000	-729.202834
40.090000	-710.035410
40.100000	-695.292022
40.110000	-684.537466
40.120000	-669.522955
40.130000	-647.216941
40.140000	-623.942552
40.150000	-604.388106
40.160000	-587.843374
40.170000	-567.371424
40.180000	-546.936590
40.190000	-538.539127
40.200000	-568.230570
40.210000	-640.141982
40.220000	-736.626613
40.230000	-825.867641
40.240000	-895.571175
40.250000	-950.133880
40.260000	-1004.372260
40.270000	-1058.521133
40.280000	-1108.656141
40.290000	-1147.727170
40.300000	-1170.104433
40.310000	-1178.783877
40.320000	-1180.723716
40.330000	-1193.362598
40.340000	-1214.114341
40.350000	-1231.075176
40.360000	-1228.319802
40.370000	-1205.990857
40.380000	-1169.699003
40.390000	-1126.402037
40.400000	-1083.905398
40.410000	-1043.620249
40.420000	-1012.284073
40.430000	-987.637782
40.440000	-960.801634
40.450000	-934.176404
40.460000	-903.122994
40.470000	-874.235368
40.480000	-842.234251
40.490000	-809.136557
40.500000	-778.504944
40.510000	-744.834365
40.520000	-703.265263
40.530000	-655.704937
40.540000	-607.188001
40.550000	-563.397433
40.560000	-536.949571
40.570000	-547.261370
40.580000	-599.825296
40.590000	-665.515591
40.600000	-718.194222
40.610000	-749.971220
40.620000	-774.439729
40.630000	-803.238676
40.640000	-833.796345
40.650000	-856.302664
40.660000	-864.311551
40.670000	-855.861251
40.680000	-841.008307
40.690000	-825.556285
40.700000	-816.522774
40.710000	-818.391646
40.720000	-824.821031
40.730000	-827.367659
40.740000	-813.921869
40.750000	-789.202099
40.760000	-754.825950
40.770000	-722.876588
40.780000	-686.488833
40.790000	-653.735821
40.800000	-621.597829
40.810000	-591.082223
40.820000	-564.853674
40.830000	-535.877134
40.840000	-506.610259
40.850000	-479.813724
40.860000	-452.825638
40.870000	-426.566680
40.880000	-398.504230
40.890000	-371.807494
40.900000	-370.378125
40.910000	-408.158810
40.920000	-488.359891
40.930000	-579.886075
40.940000	-649.137771
40.950000	-692.163914
40.960000	-715.078586
40.970000	-731.263147
40.980000	-745.797506
40.990000	-748.788296
41.000000	-746.360259
41.010000	-725.727467
41.020000	-694.778546
41.030000	-658.791001
41.040000	-632.353385
41.050000	-615.277703
41.060000	-603.046189
41.070000	-588.553252
41.080000	-567.542202
41.090000	-540.637017
41.100000	-506.827959
41.110000	-476.211602
41.120000	-442.862775
41.130000	-406.260171
41.140000	-369.699961
41.150000	-328.745458
41.160000	-290.024896
41.170000	-244.979126
41.180000	-198.509629
41.190000	-153.997508
41.200000	-111.440019
41.210000	-69.132228
41.220000	-28.499414
41.230000	3.932577
41.240000	14.970353
41.250000	-15.473470
41.260000	-84.615038
41.270000	-178.298985
41.280000	-256.245435
41.290000	-316.679741
41.300000	-364.008349
41.310000	-410.864688
41.320000	-458.521041
41.330000	-497.801304
41.340000	-530.844557
41.350000	-552.831267
41.360000	-561.286349
41.370000	-560.658120
41.380000	-556.174191
41.390000	-558.275902
41.400000	-559.455372
41.410000	-563.700588
41.420000	-563.813849
41.430000	-557.913914
41.440000	-536.591703
41.450000	-511.290576
41.460000	-485.118734
41.470000	-458.765336
41.480000	-431.078119
41.490000	-403.350222
41.500000	-381.151989
41.510000	-355.664317
41.520000	-330.026760
41.530000	-300.393268
41.540000	-274.032085
41.550000	-241.509024
41.560000	-208.176684
41.570000	-171.701643
41.580000	-134.097175
41.590000	-90.639021
41.600000	-46.474017
41.610000	-13.690681
41.620000	-18.651253
41.630000	-67.447164
41.640000	-140.852092
41.650000	-204.253835
41.660000	-241.194547
41.670000	-266.905268
41.680000	-287.268356
41.690000	-310.987451
41.700000	-329.383392
41.710000	-343.517992
41.720000	-344.224568
41.730000	-324.808853
41.740000	-290.518034
41.750000	-256.545817
41.760000	-234.887454
41.770000	-216.977002
41.780000	-197.014452
41.790000	-169.825838
41.800000	-137.242573
41.810000	-102.426159
41.820000	-67.214171
41.830000	-35.445036
41.840000	5.112695
41.850000	52.084350
41.860000	104.365483
41.870000	157.862014
41.880000	208.876570
41.890000	256.906380
41.900000	296.967329
41.910000	326.550241
41.920000	341.313134
41.930000	346.815424
41.940000	351.929545
41.950000	368.016325
41.960000	388.760330
41.970000	413.496374
41.980000	430.157465
41.990000	428.914269
42.000000	382.438938
42.010000	296.355764
42.020000	199.050046
42.030000	126.419036
42.040000	81.506085
42.050000	43.017987
42.060000	-0.407390
42.070000	-48.413648
42.080000	-87.012175
42.090000	-111.264873
42.100000	-112.667880
42.110000	-98.887202
42.120000	-79.722115
42.130000	-71.252097
42.140000	-72.454005
42.150000	-76.324506
42.160000	-74.906525
42.170000	-63.795900
42.180000	-46.101549
42.190000	-22.648866
42.200000	2.306855
42.210000	29.792884
42.220000	63.002104
42.230000	95.824003
42.240000	132.340963
42.250000	166.109184
42.260000	203.331553
42.270000	241.320967
42.280000	284.627061
42.290000	327.122487
42.300000	373.572233
42.310000	419.853361
42.320000	462.473585
42.330000	501.549274
42.340000	511.259503
42.350000	480.575627
42.360000	406.357572
42.370000	328.344236
42.380000	272.041699
42.390000	235.997950
42.400000	202.975612
42.410000	162.965316
42.420000	119.240465
42.430000	81.913246
42.440000	57.792014
42.450000	52.487645
42.460000	66.292700
42.470000	85.989335
42.480000	101.433547
42.490000	107.136181
42.500000	108.905112
42.510000	113.920471
42.520000	123.996264
42.530000	143.346328
42.540000	167.699737
42.550000	194.078677
42.560000	222.381365
42.570000	252.114185
42.580000	283.703735
42.590000	313.778119
42.600000	343.344299
42.610000	371.410037
42.620000	401.972681
42.630000	431.328888
42.640000	461.592425
42.650000	495.558963
42.660000	531.175498
42.670000	565.430342
42.680000	581.030574
42.690000	558.273619
42.700000	492.572967
42.710000	406.170326
42.720000	329.451415
42.730000	268.314070
42.740000	216.277430
42.750000	158.416790
42.760000	105.155834
42.770000	58.813950
42.780000	24.024557
42.790000	4.526549
42.800000	1.203932
42.810000	19.905205
42.820000	37.289488
42.830000	46.984080
42.840000	47.041409
42.850000	42.069101
42.860000	34.442603
42.870000	34.164402
42.880000	40.470821
42.890000	55.257531
42.900000	71.131311
42.910000	89.700428
42.920000	114.790197
42.930000	136.097421
42.940000	162.829496
42.950000	190.785004
42.960000	222.883031
42.970000	256.452502
42.980000	287.261469
42.990000	320.141339
43.000000	352.951123
43.010000	380.820295
43.020000	405.657595
43.030000	432.172390
43.040000	461.018954
43.050000	486.172740
43.060000	481.993610
43.070000	435.542385
43.080000	353.356737
43.090000	269.322684
43.100000	209.367440
43.110000	163.340555
43.120000	121.048578
43.130000	76.708315
43.140000	42.116331
43.150000	18.385617
43.160000	10.199999
43.170000	14.715571
43.180000	31.965449
43.190000	59.713727
43.200000	81.032200
43.210000	94.429823
43.220000	100.113039
43.230000	110.857085
43.240000	122.825450
43.250000	133.966999
43.260000	147.229889
43.270000	171.104315
43.280000	203.952575
43.290000	242.918228
43.300000	286.693339
43.310000	333.077393
43.320000	389.141146
43.330000	445.540261
43.340000	508.982371
43.350000	572.983430
43.360000	644.544366
43.370000	719.747543
43.380000	785.432436
43.390000	834.212832
43.400000	867.029212
43.410000	900.741530
43.420000	930.252542
43.430000	957.309726
43.440000	972.466322
43.450000	971.915100
43.460000	929.975535
43.470000	844.608062
43.480000	744.258275
43.490000	661.001261
43.500000	612.525567
43.510000	576.308540
43.520000	547.198883
43.530000	518.303132
43.540000	498.608361
43.550000	493.313641
43.560000	500.357995
43.570000	519.355954
43.580000	531.752026
43.590000	549.175906
43.600000	588.188095
43.610000	665.358136
43.620000	768.574731
43.630000	871.531136
43.640000	952.671254
43.650000	1010.122111
43.660000	1059.513499
43.670000	1113.736946
43.680000	1167.002875
43.690000	1204.693022
43.700000	1233.249294
43.710000	1256.675306
43.720000	1281.870265
43.730000	1307.334810
43.740000	1334.533347
43.750000	1370.042664
43.760000	1408.865947
43.770000	1458.486425
43.780000	1517.542864
43.790000	1588.977587
43.800000	1666.898061
43.810000	1740.157149
43.820000	1805.979360
43.830000	1843.991754
43.840000	1831.758623
43.850000	1751.543138
43.860000	1631.033424
43.870000	1504.817805
43.880000	1400.994943
43.890000	1317.380707
43.900000	1254.669301
43.910000	1205.292701
43.920000	1173.414506
43.930000	1156.558583
43.940000	1161.891815
43.950000	1180.820280
43.960000	1201.064916
43.970000	1221.151037
43.980000	1235.265616
43.990000	1240.529488
44.000000	1225.482499
44.010000	1198.669409
44.020000	1175.090403
44.030000	1160.156375
44.040000	1156.397194
44.050000	1164.010479
44.060000	1177.060754
44.070000	1192.913994
44.080000	1214.446513
44.090000	1250.206867
44.100000	1291.492042
44.110000	1332.548359
44.120000	1377.605535
44.130000	1431.264765
44.140000	1482.717271
44.150000	1523.026883
44.160000	1545.208259
44.170000	1560.546390
44.180000	1560.017313
44.190000	1531.096758
44.200000	1458.191701
44.210000	1357.441322
44.220000	1263.791384
44.230000	1203.134585
44.240000	1171.683028
44.250000	1155.506717
44.260000	1137.940452
44.270000	1118.964419
44.280000	1099.573735
44.290000	1089.151443
44.300000	1094.907205
44.310000	1111.342920
44.320000	1127.264245
44.330000	1131.239478
44.340000	1130.712037
44.350000	1127.158396
44.360000	1127.546826
44.370000	1120.732635
44.380000	1115.140250
44.390000	1110.989035
44.400000	1119.802554
44.410000	1141.919008
44.420000	1164.800242
44.430000	1182.905398
44.440000	1199.191578
44.450000	1219.269150
44.460000	1247.616304
44.470000	1279.978504
44.480000	1312.411214
44.490000	1336.043395
44.500000	1345.250505
44.510000	1339.490765
44.520000	1307.762632
44.530000	1235.964223
44.540000	1140.726802
44.550000	1054.180904
44.560000	994.352567
44.570000	949.683002
44.580000	905.001419
44.590000	860.927805
44.600000	822.361012
44.610000	789.525074
44.620000	773.448563
44.630000	771.783523
44.640000	767.192498
44.650000	750.762292
44.660000	725.666435
44.670000	707.471524
44.680000	695.792599
44.690000	686.198626
44.700000	680.965773
44.710000	679.613009
44.720000	674.480347
44.730000	669.419722
44.740000	654.316861
44.750000	636.634594
44.760000	618.832429
44.770000	608.556083
44.780000	608.693540
44.790000	610.804636
44.800000	607.916423
44.810000	598.425239
44.820000	569.465233
44.830000	510.074149
44.840000	417.726509
44.850000	312.808160
44.860000	229.046145
44.870000	167.473632
44.880000	115.348740
44.890000	62.499826
44.900000	7.027254
44.910000	-36.074845
44.920000	-68.654889
44.930000	-81.935194
44.940000	-77.681319
44.950000	-75.159405
44.960000	-76.644007
44.970000	-87.709403
44.980000	-91.863274
44.990000	-88.955269
45.000000	-81.407721
45.010000	-70.516617
45.020000	-62.952634
45.030000	-54.701450
45.040000	-44.825959
45.050000	-32.540452
45.060000	-16.351553
45.070000	0.619866
45.080000	21.150585
45.090000	41.439859
45.100000	62.342792
45.110000	80.257767
45.120000	72.158009
45.130000	17.759109
45.140000	-80.622592
45.150000	-181.958242
45.160000	-262.776897
45.170000	-326.408477
45.180000	-389.293612
45.190000	-451.808114
45.200000	-511.128854
45.210000	-562.196040
45.220000	-598.621999
45.230000	-613.912338
45.240000	-606.791921
45.250000	-594.341935
45.260000	-587.608585
45.270000	-594.092210
45.280000	-597.357020
45.290000	-591.870370
45.300000	-578.788855
45.310000	-563.993618
45.320000	-549.876966
45.330000	-537.780249
45.340000	-524.953850
45.350000	-507.898568
45.360000	-487.042335
45.370000	-466.026925
45.380000	-446.460172
45.390000	-428.152341
45.400000	-404.195274
45.410000	-381.317981
45.420000	-357.576372
45.430000	-347.198237
45.440000	-371.982174
45.450000	-442.050709
45.460000	-539.983652
45.470000	-629.523136
45.480000	-698.389718
45.490000	-763.080360
45.500000	-827.433804
45.510000	-890.631269
45.520000	-949.143942
45.530000	-1000.859911
45.540000	-1044.196381
45.550000	-1058.377019
45.560000	-1048.327592
45.570000	-1021.910694
45.580000	-1000.170490
45.590000	-980.722479
45.600000	-961.356629
45.610000	-931.186827
45.620000	-898.939986
45.630000	-864.637566
45.640000	-833.548335
45.650000	-800.737799
45.660000	-767.852546
45.670000	-737.184521
45.680000	-710.166036
45.690000	-679.619488
45.700000	-648.185300
45.710000	-615.725878
45.720000	-581.548999
45.730000	-544.844804
45.740000	-507.265887
45.750000	-476.660735
45.760000	-455.982875
45.770000	-450.162528
45.780000	-478.754014
45.790000	-548.977980
45.800000	-634.781511
45.810000	-710.141469
45.820000	-769.546842
45.830000	-830.382874
45.840000	-896.958150
45.850000	-941.551729
45.860000	-963.793522
45.870000	-961.397780
45.880000	-950.361743
45.890000	-968.987898
45.900000	-977.398205
45.910000	-973.698803
45.920000	-935.728948
45.930000	-895.909713
45.940000	-852.984092
45.950000	-795.442834
45.960000	-746.351362
45.970000	-711.612771
45.980000	-690.718428
45.990000	-687.813011
46.000000	-700.752519
46.010000	-712.991431
46.020000	-713.820477
46.030000	-699.206120
46.040000	-667.914149
46.050000	-612.421650
46.060000	-546.417612
46.070000	-490.006410
46.080000	-441.546366
46.090000	-411.977484
46.100000	-418.377137
46.110000	-479.973025
46.120000	-584.473294
46.130000	-689.571478
46.140000	-769.968237
46.150000	-821.580332
46.160000	-878.252865
46.170000	-952.215374
46.180000	-1042.854483
46.190000	-1128.478153
46.200000	-1194.160343
46.210000	-1231.110131
46.220000	-1231.487845
46.230000	-1212.496594
46.240000	-1190.832993
46.250000	-1183.569786
46.260000	-1183.463703
46.270000	-1176.978018
46.280000	-1163.816408
46.290000	-1140.061897
46.300000	-1111.882358
46.310000	-1080.484311
46.320000	-1050.643547
46.330000	-1019.571318
46.340000	-987.431477
46.350000	-954.677673
46.360000	-918.228162
46.370000	-880.484128
46.380000	-838.361393
46.390000	-798.669264
46.400000	-754.809195
46.410000	-703.214010
46.420000	-646.625492
46.430000	-584.768178
46.440000	-524.478903
46.450000	-465.319814
46.460000	-414.370274
46.470000	-389.585161
46.480000	-406.605656
46.490000	-464.488512
46.500000	-533.110968
46.510000	-587.088133
46.520000	-621.020943
46.530000	-647.085640
46.540000	-674.605873
46.550000	-704.074853
46.560000	-729.522173
46.570000	-747.753978
46.580000	-750.439809
46.590000	-732.791427
46.600000	-703.075043
46.610000	-672.518565
46.620000	-651.388998
46.630000	-632.211467
46.640000	-616.742600
46.650000	-599.899670
46.660000	-580.453993
46.670000	-547.575159
46.680000	-505.887942
46.690000	-456.587780
46.700000	-405.681431
46.710000	-356.271856
46.720000	-306.139501
46.730000	-256.644730
46.740000	-206.936894
46.750000	-159.037316
46.760000	-109.397239
46.770000	-54.441172
46.780000	-2.233990
46.790000	44.826344
46.800000	87.594243
46.810000	133.434702
46.820000	180.386730
46.830000	216.338626
46.840000	227.164038
46.850000	189.541222
46.860000	119.038995
46.870000	40.761076
46.880000	-12.740952
46.890000	-47.466743
46.900000	-83.567989
46.910000	-123.988618
46.920000	-162.711496
46.930000	-190.174937
46.940000	-208.895451
46.950000	-211.006441
46.960000	-193.766948
46.970000	-161.864905
46.980000	-131.342612
46.990000	-110.708749
47.000000	-90.875773
47.010000	-70.245412
47.020000	-43.403792
47.030000	-14.480043
47.040000	20.418712
47.050000	60.601473
47.060000	101.225463
47.070000	142.024789
47.080000	184.366174
47.090000	227.438513
47.100000	268.498211
47.110000	304.849244
47.120000	341.983189
47.130000	380.243196
47.140000	421.469879
47.150000	460.950317
47.160000	500.639620
47.170000	542.656187
47.180000	585.464522
47.190000	630.034362
47.200000	672.943005
47.210000	713.419015
47.220000	741.395369
47.230000	746.469033
47.240000	703.139427
47.250000	620.614411
47.260000	526.266937
47.270000	456.785794
47.280000	411.626124
47.290000	370.236356
47.300000	323.016366
47.310000	269.379497
47.320000	229.464869
47.330000	207.480394
47.340000	210.924094
47.350000	238.893408
47.360000	282.028787
47.370000	329.304044
47.380000	366.460301
47.390000	398.102358
47.400000	429.897432
47.410000	464.896346
47.420000	507.340853
47.430000	552.335080
47.440000	601.472095
47.450000	649.424957
47.460000	692.611759
47.470000	732.532565
47.480000	767.413009
47.490000	802.998207
47.500000	835.859910
47.510000	869.152902
47.520000	902.635241
47.530000	932.301804
47.540000	963.106498
47.550000	994.440183
47.560000	1025.582305
47.570000	1054.580128
47.580000	1079.396249
47.590000	1102.738221
47.600000	1121.198588
47.610000	1134.911299
47.620000	1136.986955
47.630000	1107.386966
47.640000	1035.138974
47.650000	931.930326
47.660000	829.685398
47.670000	752.457584
47.680000	690.812047
47.690000	635.323753
47.700000	579.619306
47.710000	528.893932
47.720000	489.435136
47.730000	458.110473
47.740000	443.288117
47.750000	439.294003
47.760000	441.148551
47.770000	439.136724
47.780000	431.035076
47.790000	422.339477
47.800000	414.248606
47.810000	416.571328
47.820000	420.416197
47.830000	429.175643
47.840000	435.894060
47.850000	443.813292
47.860000	454.038007
47.870000	463.778826
47.880000	480.214536
47.890000	492.032062
47.900000	508.786825
47.910000	524.246994
47.920000	543.060664
47.930000	558.101196
47.940000	574.038452
47.950000	591.281847
47.960000	607.680625
47.970000	630.493018
47.980000	652.955553
47.990000	676.397605
48.000000	680.843070
48.010000	654.997054
48.020000	587.066813
48.030000	494.681476
48.040000	414.680717
48.050000	366.321567
48.060000	337.545800
48.070000	304.265699
48.080000	262.803909
48.090000	222.248412
48.100000	190.395210
48.110000	170.889682
48.120000	166.988614
48.130000	178.858849
48.140000	197.225683
48.150000	206.480094
48.160000	210.519013
48.170000	212.769277
48.180000	227.511255
48.190000	245.997521
48.200000	263.516765
48.210000	276.898716
48.220000	289.542237
48.230000	306.807084
48.240000	331.562523
48.250000	354.684028
48.260000	377.278957
48.270000	399.894004
48.280000	424.667525
48.290000	452.768937
48.300000	480.710774
48.310000	511.997060
48.320000	540.394446
48.330000	569.251847
48.340000	598.067729
48.350000	629.181125
48.360000	654.378553
48.370000	680.484730
48.380000	701.654092
48.390000	712.789727
48.400000	684.194553
48.410000	606.482814
48.420000	498.477939
48.430000	402.572552
48.440000	334.687002
48.450000	279.909125
48.460000	220.218843
48.470000	156.294829
48.480000	98.775606
48.490000	52.662408
48.500000	24.667550
48.510000	8.658311
48.520000	8.918161
48.530000	16.614703
48.540000	28.179532
48.550000	34.886354
48.560000	38.131251
48.570000	45.838267
48.580000	59.393802
48.590000	75.439056
48.600000	89.648728
48.610000	107.060377
48.620000	127.550749
48.630000	144.324429
48.640000	162.145359
48.650000	180.233879
48.660000	206.758287
48.670000	235.764733
48.680000	268.718230
48.690000	298.264450
48.700000	328.034544
48.710000	358.080309
48.720000	389.679975
48.730000	417.871218
48.740000	444.335615
48.750000	477.004353
48.760000	504.930898
48.770000	532.838450
48.780000	547.133558
48.790000	529.985014
48.800000	462.991845
48.810000	364.556272
48.820000	273.563081
48.830000	209.062822
48.840000	156.698739
48.850000	101.891345
48.860000	43.192788
48.870000	-6.919823
48.880000	-50.029982
48.890000	-83.731832
48.900000	-102.589824
48.910000	-105.902499
48.920000	-96.505299
48.930000	-92.795421
48.940000	-92.042519
48.950000	-95.713238
48.960000	-96.903710
48.970000	-88.979014
48.980000	-77.813404
48.990000	-63.576859
49.000000	-53.757859
49.010000	-45.828778
49.020000	-32.370721
49.030000	-16.124032
49.040000	9.025048
49.050000	32.853234
49.060000	54.430143
49.070000	77.827786
49.080000	98.795669
49.090000	124.483348
49.100000	147.102944
49.110000	171.489433
49.120000	199.383984
49.130000	227.129359
49.140000	257.330631
49.150000	287.403177
49.160000	312.920102
49.170000	330.327011
49.180000	320.781603
49.190000	266.901941
49.200000	175.355973
49.210000	73.179355
49.220000	-5.737894
49.230000	-65.334469
49.240000	-122.889349
49.250000	-185.173989
49.260000	-250.372047
49.270000	-305.337495
49.280000	-349.912461
49.290000	-380.513907
49.300000	-391.803972
49.310000	-388.407201
49.320000	-383.408503
49.330000	-382.971530
49.340000	-386.016780
49.350000	-383.537984
49.360000	-381.690851
49.370000	-375.431415
49.380000	-363.733948
49.390000	-347.354645
49.400000	-328.472770
49.410000	-310.974623
49.420000	-290.548043
49.430000	-270.307540
49.440000	-247.633678
49.450000	-222.340154
49.460000	-198.424052
49.470000	-178.395497
49.480000	-160.229014
49.490000	-139.805700
49.500000	-107.713608
49.510000	-72.626642
49.520000	-34.201395
49.530000	-1.167354
49.540000	31.653941
49.550000	63.914786
49.560000	92.806990
49.570000	119.645830
49.580000	123.536391
49.590000	84.349437
49.600000	-1.050636
49.610000	-100.546794
49.620000	-182.669666
49.630000	-237.532757
49.640000	-285.067941
49.650000	-334.520275
49.660000	-388.813318
49.670000	-440.510693
49.680000	-478.580396
49.690000	-505.570204
49.700000	-510.341896
49.710000	-504.056520
49.720000	-492.454276
49.730000	-484.918819
49.740000	-484.582331
49.750000	-484.118774
49.760000	-482.761648
49.770000	-472.331808
49.780000	-455.671534
49.790000	-435.912792
49.800000	-416.950856
49.810000	-397.179522
49.820000	-372.925536
49.830000	-342.820462
49.840000	-314.960936
49.850000	-287.134651
49.860000	-262.713406
49.870000	-238.465939
49.880000	-212.504970
49.890000	-184.837999
49.900000	-156.334633
49.910000	-127.244250
49.920000	-99.204165
49.930000	-69.006743
49.940000	-37.788671
49.950000	-11.485620
49.960000	15.287889
49.970000	22.595769
49.980000	-2.988014
49.990000	-77.366814
50.000000	-170.842665
50.010000	-254.702923
50.020000	-312.100883
50.030000	-353.485134
50.040000	-392.071322
50.050000	-425.596273
50.060000	-458.097326
50.070000	-474.359609
50.080000	-479.885451
50.090000	-472.139565
50.100000	-457.737547
50.110000	-444.628826
50.120000	-433.943354
50.130000	-430.166543
50.140000	-423.816837
50.150000	-413.098198
50.160000	-392.720340
50.170000	-374.115522
50.180000	-353.287993
50.190000	-334.194661
50.200000	-311.202728
50.210000	-286.669277
50.220000	-257.141813
50.230000	-225.200877
50.240000	-198.134347
50.250000	-171.073043
50.260000	-147.189694
50.270000	-117.285391
50.280000	-88.998882
50.290000	-61.181295
50.300000	-34.520906
50.310000	-2.431777
50.320000	32.557381
50.330000	63.932043
50.340000	80.915781
50.350000	71.918682
50.360000	20.886876
50.370000	-63.067366
50.380000	-147.453057
50.390000	-208.118325
50.400000	-246.572241
50.410000	-280.589492
50.420000	-317.705600
50.430000	-355.743041
50.440000	-391.211170
50.450000	-414.255018
50.460000	-421.109464
50.470000	-408.143447
50.480000	-390.435312
50.490000	-373.715784
50.500000	-361.464638
50.510000	-346.969866
50.520000	-325.208414
50.530000	-299.289498
50.540000	-270.657569
50.550000	-241.654950
50.560000	-209.135067
50.570000	-172.738205
50.580000	-136.334393
50.590000	-100.188497
50.600000	-63.240413
50.610000	-27.022970
50.620000	10.486214
50.630000	46.084364
50.640000	83.521370
50.650000	118.793109
50.660000	157.538997
50.670000	194.761898
50.680000	234.871658
50.690000	273.997079
50.700000	317.184554
50.710000	356.819832
50.720000	394.144052
50.730000	415.223118
50.740000	398.705321
50.750000	337.287061
50.760000	250.629315
50.770000	179.029606
50.780000	138.775875
50.790000	107.287157
50.800000	65.219676
50.810000	15.560977
50.820000	-25.344989
50.830000	-48.898372
50.840000	-62.666039
50.850000	-61.702085
50.860000	-48.386023
50.870000	-30.900635
50.880000	-16.816640
50.890000	-6.792596
50.900000	2.049981
50.910000	12.937173
50.920000	23.187738
50.930000	37.975795
50.940000	56.262292
50.950000	77.636592
50.960000	102.626457
50.970000	131.249604
50.980000	162.274056
50.990000	192.477266
51.000000	219.878431
51.010000	250.346435
51.020000	280.410348
51.030000	311.181294
51.040000	337.879099
51.050000	367.668552
51.060000	397.940504
51.070000	430.788127
51.080000	460.600052
51.090000	486.540023
51.100000	514.229772
51.110000	544.898851
51.120000	574.129536
51.130000	594.869217
51.140000	589.953520
51.150000	542.793037
51.160000	458.455406
51.170000	365.065144
51.180000	297.594262
51.190000	256.861477
51.200000	219.618246
51.210000	177.315945
51.220000	134.629505
51.230000	101.402092
51.240000	79.569723
51.250000	63.417760
51.260000	65.510538
51.270000	78.662768
51.280000	93.395160
51.290000	98.185462
51.300000	97.272891
51.310000	98.668190
51.320000	97.063573
51.330000	101.138720
51.340000	111.447841
51.350000	130.898137
51.360000	151.083314
51.370000	178.981938
51.380000	210.637398
51.390000	240.342761
51.400000	265.481649
51.410000	286.994880
51.420000	313.294458
51.430000	334.879014
51.440000	356.427272
51.450000	377.028696
51.460000	397.178016
51.470000	418.796201
51.480000	436.188249
51.490000	458.217264
51.500000	485.790031
51.510000	514.570487
51.520000	541.007017
51.530000	562.873554
51.540000	583.184418
51.550000	588.076100
51.560000	560.632412
51.570000	489.238658
51.580000	396.118600
51.590000	315.044655
51.600000	258.156890
51.610000	219.746274
51.620000	181.438164
51.630000	140.434904
51.640000	104.358741
51.650000	75.385713
51.660000	59.566886
51.670000	54.590265
51.680000	62.730793
51.690000	77.380034
51.700000	87.157663
51.710000	89.469789
51.720000	89.882582
51.730000	96.842876
51.740000	101.501867
51.750000	106.522568
51.760000	115.063950
51.770000	137.162366
51.780000	170.533190
51.790000	196.364213
51.800000	220.343611
51.810000	241.822322
51.820000	267.447516
51.830000	283.497706
51.840000	298.552332
51.850000	316.098536
51.860000	336.588013
51.870000	375.680105
51.880000	427.169044
51.890000	475.842105
51.900000	513.708173
51.910000	544.307133
51.920000	581.881144
51.930000	619.986210
51.940000	659.678665
51.950000	708.620460
51.960000	755.694712
51.970000	769.468753
51.980000	736.362704
51.990000	649.605053
52.000000	510.989920
52.010000	362.453690
52.020000	224.827635
52.030000	109.878946
52.040000	27.929273
52.050000	-5.413678
52.060000	20.952513
52.070000	74.440720
52.080000	127.589891
52.090000	174.286852
52.100000	184.761770
52.110000	160.484634
52.120000	124.592044
52.130000	100.281174
52.140000	95.311547
52.150000	113.665338
52.160000	155.952821
52.170000	210.947727
52.180000	262.845290
52.190000	303.514662
52.200000	336.365958
52.210000	362.671923
52.220000	391.503937
52.230000	425.406843
52.240000	461.221524
52.250000	501.084606
52.260000	536.838821
52.270000	574.061088
52.280000	608.690324
52.290000	645.655950
52.300000	679.439824
52.310000	708.187235
52.320000	735.463570
52.330000	757.958655
52.340000	786.785607
52.350000	812.933130
52.360000	837.727343
52.370000	852.471023
52.380000	833.886285
52.390000	768.960662
52.400000	666.361282
52.410000	566.460180
52.420000	493.714985
52.430000	442.799924
52.440000	396.958930
52.450000	347.081911
52.460000	296.491201
52.470000	250.623485
52.480000	215.946349
52.490000	192.400106
52.500000	186.672600
52.510000	189.719013
52.520000	192.985287
52.530000	187.956040
52.540000	182.594171
52.550000	179.762919
52.560000	174.431485
52.570000	173.184734
52.580000	175.164307
52.590000	183.198878
52.600000	191.120873
52.610000	199.813755
52.620000	213.333767
52.630000	227.653624
52.640000	239.462067
52.650000	247.746156
52.660000	257.519511
52.670000	272.413724
52.680000	291.141852
52.690000	308.314668
52.700000	322.352201
52.710000	333.798559
52.720000	346.481580
52.730000	363.189169
52.740000	380.503051
52.750000	400.503578
52.760000	414.068673
52.770000	422.086622
52.780000	421.865154
52.790000	404.559678
52.800000	353.546726
52.810000	267.982073
52.820000	184.570305
52.830000	122.260785
52.840000	86.461313
52.850000	54.031914
52.860000	21.643761
52.870000	-15.631454
52.880000	-51.573739
52.890000	-84.404719
52.900000	-107.877128
52.910000	-119.286343
52.920000	-125.639617
52.930000	-129.588894
52.940000	-146.537146
52.950000	-161.241085
52.960000	-175.582651
52.970000	-175.952128
52.980000	-170.790580
52.990000	-162.081085
53.000000	-153.773352
53.010000	-143.963862
53.020000	-129.523108
53.030000	-116.643048
53.040000	-101.015283
53.050000	-85.781072
53.060000	-66.258133
53.070000	-47.050549
53.080000	-24.584920
53.090000	-0.441026
53.100000	32.003524
53.110000	68.029600
53.120000	107.496347
53.130000	146.046667
53.140000	182.889869
53.150000	216.284910
53.160000	239.493000
53.170000	250.425474
53.180000	239.965923
53.190000	187.088633
53.200000	95.394667
53.210000	-10.970724
53.220000	-91.577932
53.230000	-144.248337
53.240000	-180.368110
53.250000	-220.999976
53.260000	-264.878203
53.270000	-316.549277
53.280000	-364.793814
53.290000	-413.923845
53.300000	-439.079030
53.310000	-447.169184
53.320000	-438.797550
53.330000	-437.929761
53.340000	-439.554663
53.350000	-446.497147
53.360000	-449.397367
53.370000	-453.223376
53.380000	-447.317075
53.390000	-327.813958
53.400000	-188.901525
53.410000	-50.321268
53.420000	-16.172624
53.430000	-5.107943
53.440000	13.293941
53.450000	30.876545
53.460000	72.060013
53.470000	110.598154
53.480000	137.415774
53.490000	138.515017
53.500000	132.068245
53.510000	129.955862
53.520000	153.286906
53.530000	192.519609
53.540000	235.037116
53.550000	256.590978
53.560000	252.045630
53.570000	214.529628
53.580000	163.999449
53.590000	88.585387
53.600000	-11.476058
53.610000	-163.564380
53.620000	-375.026654
53.630000	-649.816465
53.640000	-984.832409
53.650000	-1356.933821
53.660000	-1690.596684
53.670000	-1980.977778
53.680000	-2226.428691
53.690000	-2432.966711
53.700000	-2557.390768
53.710000	-2600.209514
53.720000	-2601.595963
53.730000	-2587.547904
53.740000	-2535.134953
53.750000	-2422.023091
53.760000	-2233.162740
53.770000	-2035.191707
53.780000	-1875.273037
53.790000	-1788.463323
53.800000	-1728.964417
53.810000	-1674.603210
53.820000	-1657.274564
53.830000	-1683.811397
53.840000	-1709.914936
53.850000	-1786.752636
53.860000	-1990.418475
53.870000	-2494.165108
53.880000	-3519.861114
53.890000	-4479.283698
53.900000	-4810.349683
53.910000	-4790.465625
53.920000	-4417.891332
53.930000	-3554.788751
53.940000	-2446.531141
53.950000	-1017.808132
53.960000	-637.309316
53.970000	-343.129277
53.980000	340.785188
53.990000	-237.270561
54.000000	-1505.026910
54.010000	-2636.955869
54.020000	-2878.665356
54.030000	-2952.478752
54.040000	-2787.277988
54.050000	-2476.858625
54.060000	-1901.339830
54.070000	-1184.197808
54.080000	-772.109573
54.090000	-484.165671
54.100000	-470.732204
54.110000	-731.973027
54.120000	-1262.102825
54.130000	-1691.065818
54.140000	-1941.284450
54.150000	-1908.191043
54.160000	-1687.754300
54.170000	-1484.587735
54.180000	-1258.203806
54.190000	-971.166246
54.200000	-789.744160
54.210000	-806.067828
54.220000	-977.709618
54.230000	-1243.431124
54.240000	-1520.778271
54.250000	-1737.213970
54.260000	-1912.594907
54.270000	-2002.462731
54.280000	-1985.608017
54.290000	-1843.183605
54.300000	-1677.753211
54.310000	-1512.484683
54.320000	-1381.058521
54.330000	-1255.413721
54.340000	-1167.993834
54.350000	-1217.655267
54.360000	-1382.727814
54.370000	-1675.786832
54.380000	-1974.029945
54.390000	-2240.974230
54.400000	-2366.922908
54.410000	-2326.544547
54.420000	-2157.594024
54.430000	-1919.300491
54.440000	-1673.732432
54.450000	-1436.387519
54.460000	-1242.048956
54.470000	-1111.560886
54.480000	-995.296019
54.490000	-897.004412
54.500000	-869.133171
54.510000	-978.944415
54.520000	-1207.187939
54.530000	-1440.747938
54.540000	-1640.901122
54.550000	-1714.187970
54.560000	-1679.709720
54.570000	-1564.769522
54.580000	-1452.122338
54.590000	-1330.544054
54.600000	-1208.706743
54.610000	-1111.145324
54.620000	-1056.056262
54.630000	-1022.420757
54.640000	-995.203427
54.650000	-956.134519
54.660000	-895.487261
54.670000	-763.851815
54.680000	-563.692079
54.690000	-328.431963
54.700000	-112.732350
54.710000	145.866478
54.720000	292.855734
54.730000	261.631331
54.740000	-44.726510
54.750000	-520.581747
54.760000	-1104.103119
54.770000	-1809.851509
54.780000	-1964.635594
54.790000	-1068.616944
54.800000	-1006.458708
54.810000	-888.195510
54.820000	-756.017398
54.830000	-652.596226
54.840000	-595.607904
54.850000	-524.548598
54.860000	-426.762119
54.870000	-399.233639
54.880000	-418.349198
54.890000	-429.931398
54.900000	-484.653484
54.910000	-567.543980
54.920000	-678.091831
54.930000	-787.505788
54.940000	-895.701807
54.950000	-987.518179
54.960000	-1085.172319
54.970000	-1136.082201
54.980000	-1144.889603
54.990000	-1134.785964
55.000000	-1102.956769
55.010000	-1042.900085
55.020000	-958.472039
55.030000	-879.838617
55.040000	-832.392170
55.050000	-809.439480
55.060000	-822.779358
55.070000	-837.661230
55.080000	-850.332890
55.090000	-853.620584
55.100000	-862.025412
55.110000	-869.268105
55.120000	-873.140137
55.130000	-879.013243
55.140000	-898.013230
55.150000	-937.155418
55.160000	-984.240969
55.170000	-1035.727874
55.180000	-1072.163926
55.190000	-1102.783778
55.200000	-1123.453890
55.210000	-1130.911524
55.220000	-1153.566015
55.230000	-1200.721011
55.240000	-1286.424426
55.250000	-1380.808837
55.260000	-1471.060991
55.270000	-1546.967467
55.280000	-1621.156296
55.290000	-1690.477763
55.300000	-1754.987729
55.310000	-1820.396560
55.320000	-1878.171982
