Time(s)	GREEN_denoised_wiener
0.000000	978.208996
0.010000	1464.697475
0.020000	1448.959968
0.030000	1421.731986
0.040000	1374.595823
0.050000	1340.391639
0.060000	1293.246910
0.070000	1252.683788
0.080000	1175.230779
0.090000	1104.050992
0.100000	1008.513710
0.110000	936.466778
0.120000	839.362870
0.130000	765.644555
0.140000	657.747750
0.150000	576.305111
0.160000	447.252081
0.170000	339.178144
0.180000	178.183646
0.190000	-488.506253
0.200000	-1217.943522
0.210000	-1897.284958
0.220000	-2046.585477
0.230000	-2106.450489
0.240000	-2186.512246
0.250000	-2241.051906
0.260000	-2330.261178
0.270000	-2384.496682
0.280000	-2439.501529
0.290000	-2458.278965
0.300000	-2498.875528
0.310000	-2529.021086
0.320000	-2580.969928
0.330000	-2612.436924
0.340000	-2657.153474
0.350000	-2679.544668
0.360000	-2706.058181
0.370000	-2737.467908
0.380000	-2775.520087
0.390000	-2795.541614
0.400000	-2791.591620
0.410000	-2775.557597
0.420000	-2757.553373
0.430000	-2727.080490
0.440000	-2695.139446
0.450000	-2668.826326
0.460000	-2649.277864
0.470000	-2628.450691
0.480000	-2603.335530
0.490000	-2520.844596
0.500000	-2444.288291
0.510000	-2375.647084
0.520000	-2373.976457
0.530000	-2376.361480
0.540000	-2376.067421
0.550000	-2366.325849
0.560000	-2361.467957
0.570000	-2371.531585
0.580000	-2386.401157
0.590000	-2395.325103
0.600000	-2390.266170
0.610000	-2389.115674
0.620000	-2384.656191
0.630000	-2377.188985
0.640000	-2365.305040
0.650000	-2356.551842
0.660000	-2354.208519
0.670000	-2349.482622
0.680000	-2338.728590
0.690000	-2314.673925
0.700000	-2283.891855
0.710000	-2260.826679
0.720000	-2248.631927
0.730000	-2244.238130
0.740000	-2240.304012
0.750000	-2236.614175
0.760000	-2237.936068
0.770000	-2237.907185
0.780000	-2241.213906
0.790000	-2252.483354
0.800000	-2269.758187
0.810000	-2291.345972
0.820000	-2314.920961
0.830000	-2332.815314
0.840000	-2350.743037
0.850000	-2366.219153
0.860000	-2385.547390
0.870000	-2398.202681
0.880000	-2412.697699
0.890000	-2456.198856
0.900000	-2499.656080
0.910000	-2536.553777
0.920000	-2535.844968
0.930000	-2528.711849
0.940000	-2518.256635
0.950000	-2510.512190
0.960000	-2514.645430
0.970000	-2512.874656
0.980000	-2517.754625
0.990000	-2519.480375
1.000000	-2528.892764
1.010000	-2539.010273
1.020000	-2548.353351
1.030000	-2556.183735
1.040000	-2558.781454
1.050000	-2560.021256
1.060000	-2549.480966
1.070000	-2524.859219
1.080000	-2500.204301
1.090000	-2505.052737
1.100000	-2523.115535
1.110000	-2544.578531
1.120000	-2548.979399
1.130000	-2552.186689
1.140000	-2552.110535
1.150000	-2551.458620
1.160000	-2555.566806
1.170000	-2559.019577
1.180000	-2562.692866
1.190000	-2565.561760
1.200000	-2569.814788
1.210000	-2550.015678
1.220000	-2478.919910
1.230000	-2325.113520
1.240000	-2120.521566
1.250000	-1911.908531
1.260000	-1766.168750
1.270000	-1699.555175
1.280000	-1700.062850
1.290000	-1742.490563
1.300000	-1782.229080
1.310000	-1797.481147
1.320000	-1785.106188
1.330000	-1769.540857
1.340000	-1764.614617
1.350000	-1771.894404
1.360000	-1786.098803
1.370000	-1807.257475
1.380000	-1828.893750
1.390000	-1853.641216
1.400000	-1875.995665
1.410000	-1898.710615
1.420000	-1924.427231
1.430000	-1954.439914
1.440000	-1982.836227
1.450000	-2004.167990
1.460000	-2027.616506
1.470000	-2055.542023
1.480000	-2087.052787
1.490000	-2113.560079
1.500000	-2135.512605
1.510000	-2149.566639
1.520000	-2167.345976
1.530000	-2182.857432
1.540000	-2200.540787
1.550000	-2214.118392
1.560000	-2223.084523
1.570000	-2230.722957
1.580000	-2239.960586
1.590000	-2250.318236
1.600000	-2257.158712
1.610000	-2255.245420
1.620000	-2244.370925
1.630000	-2230.189015
1.640000	-2209.225070
1.650000	-2190.166364
1.660000	-2160.020017
1.670000	-2140.572904
1.680000	-2136.434757
1.690000	-2138.943252
1.700000	-2147.872872
1.710000	-2164.985860
1.720000	-2198.662550
1.730000	-2224.939590
1.740000	-2236.163537
1.750000	-2240.937692
1.760000	-2231.953738
1.770000	-2198.258549
1.780000	-2152.140374
1.790000	-2120.618955
1.800000	-2121.634301
1.810000	-2144.900527
1.820000	-2177.452673
1.830000	-2210.190951
1.840000	-2240.620511
1.850000	-2272.162021
1.860000	-2308.118816
1.870000	-2349.122923
1.880000	-2386.922923
1.890000	-2414.751118
1.900000	-2429.065444
1.910000	-2435.734369
1.920000	-2443.879079
1.930000	-2458.033491
1.940000	-2472.325548
1.950000	-2485.673445
1.960000	-2499.105064
1.970000	-2516.982707
1.980000	-2533.516393
1.990000	-2551.641829
2.000000	-2573.918767
2.010000	-2600.953833
2.020000	-2629.301074
2.030000	-2661.606433
2.040000	-2699.671045
2.050000	-2738.229043
2.060000	-2766.681874
2.070000	-2771.498506
2.080000	-2760.405381
2.090000	-2746.436207
2.100000	-2747.461853
2.110000	-2763.310031
2.120000	-2787.820208
2.130000	-2815.837579
2.140000	-2848.178540
2.150000	-2883.007352
2.160000	-2917.516291
2.170000	-2948.824911
2.180000	-2984.530017
2.190000	-3024.266993
2.200000	-3060.502952
2.210000	-3085.352829
2.220000	-3109.838341
2.230000	-3135.722879
2.240000	-3167.155693
2.250000	-3200.379035
2.260000	-3239.802359
2.270000	-3281.651972
2.280000	-3322.421369
2.290000	-3365.247097
2.300000	-3409.332499
2.310000	-3447.794054
2.320000	-3482.234424
2.330000	-3512.302047
2.340000	-3545.122184
2.350000	-3572.064271
2.360000	-3599.347087
2.370000	-3622.759704
2.380000	-3648.561409
2.390000	-3737.564417
2.400000	-3845.445176
2.410000	-3974.119746
2.420000	-4070.801028
2.430000	-4175.551115
2.440000	-4295.352380
2.450000	-4418.549626
2.460000	-4543.214061
2.470000	-4662.149205
2.480000	-4762.006276
2.490000	-4852.424554
2.500000	-4926.698065
2.510000	-5044.491806
2.520000	-5153.356645
2.530000	-5066.463105
2.540000	-4790.484879
2.550000	-4455.041953
2.560000	-4264.753959
2.570000	-4141.443889
2.580000	-4013.973777
2.590000	-3876.287551
2.600000	-3653.933592
2.610000	-3357.624492
2.620000	-3021.882999
2.630000	-2786.171991
2.640000	-2642.347443
2.650000	-2559.241470
2.660000	-2479.991276
2.670000	-2393.685182
2.680000	-2262.139612
2.690000	-2127.259636
2.700000	-1981.728212
2.710000	-1880.913051
2.720000	-1794.653350
2.730000	-1746.951323
2.740000	-1668.222172
2.750000	-1600.862508
2.760000	-1516.493227
2.770000	-1485.940726
2.780000	-1427.905604
2.790000	-982.811697
2.800000	-510.181339
2.810000	-95.148569
2.820000	-81.718838
2.830000	-105.087282
2.840000	-94.276550
2.850000	-111.268925
2.860000	-104.063496
2.870000	-114.582046
2.880000	-95.142400
2.890000	-92.356767
2.900000	-74.205831
2.910000	-63.480402
2.920000	-32.994919
2.930000	-10.281792
2.940000	8.109073
2.950000	10.017382
2.960000	0.739906
2.970000	-9.522294
2.980000	-25.854779
2.990000	-107.391830
3.000000	-202.658291
3.010000	-297.206902
3.020000	-328.839031
3.030000	-363.546985
3.040000	-405.019448
3.050000	-455.384788
3.060000	-508.009010
3.070000	-555.050352
3.080000	-591.836220
3.090000	-620.227334
3.100000	-643.826213
3.110000	-667.898069
3.120000	-686.271833
3.130000	-705.087504
3.140000	-722.511616
3.150000	-738.094641
3.160000	-756.911642
3.170000	-780.234231
3.180000	-808.115714
3.190000	-834.161323
3.200000	-849.783457
3.210000	-851.235885
3.220000	-839.596428
3.230000	-831.482906
3.240000	-847.548055
3.250000	-889.804094
3.260000	-948.590770
3.270000	-1002.881657
3.280000	-1045.791025
3.290000	-1081.439252
3.300000	-1121.125226
3.310000	-1166.081183
3.320000	-1206.873198
3.330000	-1245.528734
3.340000	-1284.728173
3.350000	-1322.733753
3.360000	-1358.017711
3.370000	-1394.719368
3.380000	-1438.407242
3.390000	-1479.423591
3.400000	-1515.575388
3.410000	-1547.892455
3.420000	-1583.513770
3.430000	-1616.743848
3.440000	-1647.884052
3.450000	-1679.013191
3.460000	-1717.345801
3.470000	-1755.316920
3.480000	-1796.577609
3.490000	-1852.712624
3.500000	-1886.743805
3.510000	-1883.567083
3.520000	-1840.674170
3.530000	-1800.605730
3.540000	-1781.595771
3.550000	-1779.304570
3.560000	-1802.606710
3.570000	-1829.301942
3.580000	-1848.028796
3.590000	-1849.015875
3.600000	-1852.242258
3.610000	-1855.375654
3.620000	-1857.497512
3.630000	-1840.055680
3.640000	-1814.868953
3.650000	-1784.072628
3.660000	-1758.291300
3.670000	-1733.741652
3.680000	-1720.106326
3.690000	-1714.061349
3.700000	-1718.622521
3.710000	-1721.018790
3.720000	-1730.544428
3.730000	-1731.583581
3.740000	-1739.557999
3.750000	-1735.724926
3.760000	-1741.014885
3.770000	-1732.410530
3.780000	-1737.606627
3.790000	-1727.265657
3.800000	-1728.008815
3.810000	-1710.955669
3.820000	-1719.594322
3.830000	-1711.725440
3.840000	-1727.718925
3.850000	-1716.219458
3.860000	-1748.486997
3.870000	-1771.007982
3.880000	-1860.914936
3.890000	-1948.023413
3.900000	-2217.339108
3.910000	-2511.724922
3.920000	-2739.231908
3.930000	-2557.024038
3.940000	-1953.651995
3.950000	-760.735719
3.960000	2277.562295
3.970000	9888.700173
3.980000	10211.461832
3.990000	4898.830237
4.000000	556.650843
4.010000	-2652.597966
4.020000	-4018.802417
4.030000	-4632.884799
4.040000	-4401.666426
4.050000	-3493.831187
4.060000	-2235.879790
4.070000	-834.361131
4.080000	596.965259
4.090000	2229.329619
4.100000	3862.828573
4.110000	4731.926984
4.120000	4553.030236
4.130000	3464.974984
4.140000	1740.651793
4.150000	-423.083106
4.160000	-1553.286081
4.170000	-1340.629373
4.180000	786.464032
4.190000	3568.241908
4.200000	3726.961020
4.210000	3760.551023
4.220000	4214.844433
4.230000	4466.562523
4.240000	4186.337065
4.250000	3853.934397
4.260000	3497.062137
4.270000	3255.423932
4.280000	2932.342681
4.290000	2518.576930
4.300000	1916.866066
4.310000	1197.009280
4.320000	494.392670
4.330000	5.434899
4.340000	-256.756012
4.350000	-123.882505
4.360000	386.417904
4.370000	1330.840078
4.380000	2282.100910
4.390000	3005.599458
4.400000	3220.166123
4.410000	3031.266725
4.420000	2538.730990
4.430000	1983.171613
4.440000	1474.791093
4.450000	1090.507619
4.460000	646.660470
4.470000	-71.046449
4.480000	-983.467703
4.490000	-1535.427485
4.500000	-1097.524010
4.510000	302.720691
4.520000	2694.159001
4.530000	5657.890097
4.540000	7780.201622
4.550000	8888.820188
4.560000	9149.408840
4.570000	8655.402696
4.580000	7715.204818
4.590000	6692.025065
4.600000	5686.170219
4.610000	4593.980859
4.620000	3546.007948
4.630000	2756.731605
4.640000	2343.144377
4.650000	2350.854745
4.660000	2645.690792
4.670000	3276.720229
4.680000	4095.936939
4.690000	4936.109181
4.700000	5545.194996
4.710000	5758.651852
4.720000	5709.853215
4.730000	5529.437411
4.740000	5337.401057
4.750000	5123.118139
4.760000	4810.023442
4.770000	4394.590138
4.780000	4022.982614
4.790000	3818.927780
4.800000	3846.707378
4.810000	4034.822922
4.820000	4389.577805
4.830000	4850.133813
4.840000	5341.678166
4.850000	5801.748406
4.860000	6171.058467
4.870000	6414.034075
4.880000	6497.385691
4.890000	6446.756916
4.900000	6035.630264
4.910000	5130.345976
4.920000	3792.976508
4.930000	2826.873310
4.940000	2506.671113
4.950000	2630.997812
4.960000	2816.434322
4.970000	2868.258588
4.980000	3017.318792
4.990000	3271.527165
5.000000	3774.196290
5.010000	4432.101558
5.020000	5017.326984
5.030000	5364.471754
5.040000	5488.244066
5.050000	5493.381834
5.060000	5483.785664
5.070000	5463.311456
5.080000	5426.597073
5.090000	5321.742491
5.100000	5148.179439
5.110000	4958.951449
5.120000	4795.360903
5.130000	4679.740291
5.140000	4574.677533
5.150000	4478.594056
5.160000	4374.585790
5.170000	4249.425493
5.180000	4128.902609
5.190000	4039.895117
5.200000	3981.445277
5.210000	3938.294845
5.220000	3886.600802
5.230000	3821.048929
5.240000	3721.352340
5.250000	3597.523683
5.260000	3451.720042
5.270000	3312.709534
5.280000	3184.658426
5.290000	3082.563608
5.300000	2994.829115
5.310000	2909.722835
5.320000	2839.705275
5.330000	2784.486209
5.340000	2748.901474
5.350000	2716.497178
5.360000	2712.852616
5.370000	2730.055730
5.380000	2767.463346
5.390000	2788.822809
5.400000	2794.146703
5.410000	2779.217964
5.420000	2750.833326
5.430000	2711.240276
5.440000	2654.804573
5.450000	2583.255690
5.460000	2505.100564
5.470000	2424.899630
5.480000	2344.027057
5.490000	2267.860357
5.500000	2212.956570
5.510000	2175.069435
5.520000	2148.855051
5.530000	2115.212527
5.540000	2080.461618
5.550000	2054.002130
5.560000	2036.014019
5.570000	2012.724328
5.580000	1964.855300
5.590000	1892.804301
5.600000	1787.306835
5.610000	1666.930551
5.620000	1547.052474
5.630000	1458.067269
5.640000	1397.008717
5.650000	1349.140226
5.660000	1305.281779
5.670000	1263.868639
5.680000	1222.185864
5.690000	1182.912349
5.700000	1141.035597
5.710000	1101.951035
5.720000	1053.469702
5.730000	1000.669417
5.740000	958.228709
5.750000	929.655241
5.760000	911.265672
5.770000	915.983962
5.780000	952.253852
5.790000	1027.606598
5.800000	1109.427750
5.810000	1183.575505
5.820000	1250.938011
5.830000	1295.793415
5.840000	1332.491689
5.850000	1356.920964
5.860000	1387.734424
5.870000	1409.581160
5.880000	1415.291838
5.890000	1407.225894
5.900000	1405.188351
5.910000	1419.802734
5.920000	1449.341063
5.930000	1485.317259
5.940000	1511.427999
5.950000	1532.511652
5.960000	1545.447638
5.970000	1559.026075
5.980000	1565.709159
5.990000	1569.859312
6.000000	1569.572322
6.010000	1563.646045
6.020000	1556.067344
6.030000	1550.047618
6.040000	1547.174226
6.050000	1549.733442
6.060000	1555.216269
6.070000	1567.718392
6.080000	1573.823849
6.090000	1579.369160
6.100000	1584.360982
6.110000	1589.967969
6.120000	1593.164052
6.130000	1592.848790
6.140000	1596.266018
6.150000	1602.983750
6.160000	1611.639887
6.170000	1627.744602
6.180000	1658.959228
6.190000	1674.003934
6.200000	1670.963851
6.210000	1642.184649
6.220000	1629.707957
6.230000	1618.477359
6.240000	1614.444401
6.250000	1612.005447
6.260000	1610.794813
6.270000	1604.449101
6.280000	1580.726899
6.290000	1558.241085
6.300000	1524.502908
6.310000	1499.717963
6.320000	1468.776091
6.330000	1443.194544
6.340000	1411.578634
6.350000	1382.985297
6.360000	1356.611132
6.370000	1339.386692
6.380000	1324.861964
6.390000	1316.068222
6.400000	1303.999498
6.410000	1296.046879
6.420000	1281.672199
6.430000	1272.001761
6.440000	1254.863266
6.450000	1244.610818
6.460000	1224.215074
6.470000	1234.959253
6.480000	1261.322356
6.490000	1196.634427
6.500000	1096.785462
6.510000	981.785980
6.520000	960.399501
6.530000	946.307792
6.540000	919.768021
6.550000	896.163262
6.560000	872.990147
6.570000	855.942856
6.580000	828.050500
6.590000	796.020161
6.600000	757.985512
6.610000	730.712370
6.620000	697.725136
6.630000	668.370257
6.640000	634.978289
6.650000	603.959250
6.660000	573.099023
6.670000	544.115807
6.680000	517.772722
6.690000	492.486996
6.700000	473.685567
6.710000	456.381624
6.720000	437.487815
6.730000	412.822910
6.740000	393.213083
6.750000	393.154880
6.760000	425.479849
6.770000	486.653435
6.780000	553.904110
6.790000	611.045868
6.800000	644.209313
6.810000	651.678379
6.820000	626.706179
6.830000	595.605952
6.840000	560.339196
6.850000	529.754245
6.860000	487.102480
6.870000	439.500754
6.880000	394.398105
6.890000	356.102155
6.900000	332.900268
6.910000	307.828559
6.920000	288.329238
6.930000	260.688714
6.940000	240.028007
6.950000	216.335853
6.960000	190.277521
6.970000	150.135811
6.980000	99.421094
6.990000	42.789891
7.000000	-18.595220
7.010000	-86.047717
7.020000	-145.388466
7.030000	-191.397345
7.040000	-225.354908
7.050000	-255.255349
7.060000	-287.809023
7.070000	-311.890157
7.080000	-339.821257
7.090000	-362.293860
7.100000	-384.703435
7.110000	-400.161300
7.120000	-408.770210
7.130000	-414.539446
7.140000	-413.984289
7.150000	-414.115548
7.160000	-428.720683
7.170000	-445.792409
7.180000	-467.335069
7.190000	-497.315399
7.200000	-533.775150
7.210000	-564.988089
7.220000	-588.083973
7.230000	-616.217096
7.240000	-648.534511
7.250000	-678.277950
7.260000	-698.166221
7.270000	-720.910861
7.280000	-740.264206
7.290000	-759.422588
7.300000	-782.218004
7.310000	-799.754612
7.320000	-821.411767
7.330000	-838.895711
7.340000	-853.490624
7.350000	-863.889647
7.360000	-882.468177
7.370000	-906.036440
7.380000	-930.974641
7.390000	-947.029584
7.400000	-965.405750
7.410000	-979.173098
7.420000	-985.716685
7.430000	-988.535836
7.440000	-987.554681
7.450000	-988.118119
7.460000	-998.941026
7.470000	-1026.233715
7.480000	-1052.470127
7.490000	-1062.899302
7.500000	-1032.848761
7.510000	-976.215344
7.520000	-883.709298
7.530000	-804.906379
7.540000	-741.318859
7.550000	-697.822066
7.560000	-656.415383
7.570000	-635.722509
7.580000	-622.309056
7.590000	-610.530578
7.600000	-567.682327
7.610000	-532.088676
7.620000	-502.837126
7.630000	-480.207026
7.640000	-432.461981
7.650000	-372.674109
7.660000	-307.963825
7.670000	-264.086714
7.680000	-211.876829
7.690000	-102.006949
7.700000	15.707195
7.710000	109.891804
7.720000	142.373217
7.730000	162.798107
7.740000	205.094750
7.750000	226.925961
7.760000	265.464685
7.770000	277.261402
7.780000	317.867891
7.790000	589.092236
7.800000	869.868994
7.810000	1111.822385
7.820000	1114.208941
7.830000	1096.128650
7.840000	1092.464886
7.850000	1061.645860
7.860000	1049.380453
7.870000	1039.077481
7.880000	1059.170827
7.890000	1070.072362
7.900000	1089.534382
7.910000	1093.032416
7.920000	1111.797956
7.930000	1117.240631
7.940000	1127.935785
7.950000	1119.407552
7.960000	1113.610317
7.970000	1101.229993
7.980000	1093.080419
7.990000	1079.736009
8.000000	1071.676558
8.010000	1066.944761
8.020000	1065.346626
8.030000	1063.211900
8.040000	1059.423817
8.050000	1061.234304
8.060000	1067.876762
8.070000	1079.656251
8.080000	1088.702668
8.090000	1090.481584
8.100000	1087.942156
8.110000	1068.656508
8.120000	1019.570538
8.130000	945.269274
8.140000	865.294839
8.150000	823.335301
8.160000	829.312104
8.170000	866.713191
8.180000	854.201204
8.190000	773.312399
8.200000	643.909613
8.210000	528.073674
8.220000	442.204066
8.230000	412.238053
8.240000	443.818411
8.250000	617.983867
8.260000	1017.142926
8.270000	1991.169418
8.280000	3543.143277
8.290000	5732.356257
8.300000	6775.764927
8.310000	6894.710626
8.320000	6164.953191
8.330000	5005.759469
8.340000	3955.497576
8.350000	3357.299601
8.360000	3189.064828
8.370000	3100.964069
8.380000	2942.535895
8.390000	2738.464240
8.400000	2648.731623
8.410000	2616.052433
8.420000	2468.629296
8.430000	2034.321156
8.440000	1384.876634
8.450000	792.485190
8.460000	452.589604
8.470000	353.421487
8.480000	486.651693
8.490000	959.346017
8.500000	1359.624699
8.510000	1378.220230
8.520000	875.396124
8.530000	288.343405
8.540000	-236.969670
8.550000	-798.876847
8.560000	-1456.568804
8.570000	-2103.317320
8.580000	-2576.692620
8.590000	-2698.393605
8.600000	-2336.959544
8.610000	-1520.925492
8.620000	-748.200158
8.630000	-511.462548
8.640000	-889.658959
8.650000	-1506.104374
8.660000	-2057.009156
8.670000	-2484.113400
8.680000	-2848.047035
8.690000	-3219.178610
8.700000	-3567.172704
8.710000	-4007.677416
8.720000	-4701.456504
8.730000	-5580.583879
8.740000	-6371.880523
8.750000	-6874.394176
8.760000	-7215.580125
8.770000	-7448.374810
8.780000	-7399.702023
8.790000	-7119.679524
8.800000	-6766.499775
8.810000	-6582.930127
8.820000	-6477.761702
8.830000	-6061.076261
8.840000	-5073.190162
8.850000	-3454.429171
8.860000	-1636.052621
8.870000	-652.779271
8.880000	-349.461062
8.890000	-557.390826
8.900000	-801.063710
8.910000	-1052.956928
8.920000	-1370.290875
8.930000	-1728.357397
8.940000	-2112.272031
8.950000	-2437.628206
8.960000	-2723.934150
8.970000	-3069.177705
8.980000	-3601.409552
8.990000	-4269.633707
9.000000	-4977.492835
9.010000	-5725.422205
9.020000	-6464.508044
9.030000	-6995.532803
9.040000	-7266.329475
9.050000	-7457.352028
9.060000	-7733.511938
9.070000	-7943.373392
9.080000	-7876.269975
9.090000	-7485.584115
9.100000	-6788.609483
9.110000	-5860.693989
9.120000	-4722.204740
9.130000	-3778.601989
9.140000	-3153.767369
9.150000	-2953.869036
9.160000	-2910.709731
9.170000	-2940.049526
9.180000	-2989.481263
9.190000	-3047.417400
9.200000	-3083.276075
9.210000	-3145.745271
9.220000	-3167.494652
9.230000	-3105.214991
9.240000	-2907.099198
9.250000	-2825.596434
9.260000	-3031.889998
9.270000	-3445.362456
9.280000	-3648.832597
9.290000	-2975.519136
9.300000	-2132.625139
9.310000	-1371.499939
9.320000	-1200.867354
9.330000	-1082.347503
9.340000	-936.111651
9.350000	-853.073245
9.360000	-745.608047
9.370000	-686.314754
9.380000	-605.455774
9.390000	-555.634446
9.400000	-489.103268
9.410000	-454.293575
9.420000	-415.260842
9.430000	-405.886190
9.440000	-396.986787
9.450000	-432.420874
9.460000	-483.922633
9.470000	-554.114925
9.480000	-599.138542
9.490000	-636.050548
9.500000	-651.010375
9.510000	-643.095629
9.520000	-605.272585
9.530000	-577.343023
9.540000	-557.494019
9.550000	-557.033151
9.560000	-548.348424
9.570000	-542.235133
9.580000	-517.855476
9.590000	-493.617598
9.600000	-481.417156
9.610000	-486.721408
9.620000	-493.659045
9.630000	-489.906928
9.640000	-498.402890
9.650000	-516.426894
9.660000	-548.905794
9.670000	-579.626655
9.680000	-604.847272
9.690000	-639.281223
9.700000	-674.128075
9.710000	-708.360837
9.720000	-720.088386
9.730000	-719.933011
9.740000	-726.473584
9.750000	-739.523115
9.760000	-745.892308
9.770000	-750.565466
9.780000	-760.384891
9.790000	-774.989875
9.800000	-780.909722
9.810000	-778.520313
9.820000	-777.862168
9.830000	-787.781608
9.840000	-804.179590
9.850000	-819.767732
9.860000	-854.304606
9.870000	-915.787907
9.880000	-998.457898
9.890000	-1047.405522
9.900000	-1032.411131
9.910000	-968.880270
9.920000	-906.857673
9.930000	-874.024778
9.940000	-863.272851
9.950000	-866.898175
9.960000	-875.413314
9.970000	-891.200679
9.980000	-897.898450
9.990000	-903.967160
10.000000	-913.433515
10.010000	-925.114407
10.020000	-934.019492
10.030000	-921.618790
10.040000	-903.760499
10.050000	-882.144532
10.060000	-880.622171
10.070000	-887.298184
10.080000	-903.913645
10.090000	-977.300954
10.100000	-1053.987814
10.110000	-1121.139772
10.120000	-1120.661673
10.130000	-1101.997520
10.140000	-1085.645822
10.150000	-1064.836382
10.160000	-1059.091071
10.170000	-1051.296378
10.180000	-1035.956181
10.190000	-999.789136
10.200000	-927.536186
10.210000	-811.355436
10.220000	-669.239826
10.230000	-535.685908
10.240000	-430.956040
10.250000	-337.630711
10.260000	-255.770914
10.270000	-190.639934
10.280000	-135.602720
10.290000	-79.017832
10.300000	-17.171538
10.310000	34.169383
10.320000	67.902581
10.330000	102.379504
10.340000	143.562858
10.350000	203.560543
10.360000	260.083221
10.370000	306.740331
10.380000	345.916622
10.390000	378.873152
10.400000	414.059734
10.410000	441.245145
10.420000	460.522195
10.430000	477.924958
10.440000	488.580038
10.450000	502.270870
10.460000	514.892747
10.470000	531.268143
10.480000	546.472687
10.490000	558.568109
10.500000	576.042911
10.510000	599.475146
10.520000	628.907610
10.530000	657.994390
10.540000	684.079337
10.550000	706.483094
10.560000	728.559971
10.570000	747.920980
10.580000	768.022072
10.590000	786.642472
10.600000	806.798201
10.610000	837.681014
10.620000	886.870427
10.630000	955.669943
10.640000	1026.525579
10.650000	1073.604607
10.660000	1099.561194
10.670000	1101.159058
10.680000	1092.948697
10.690000	1074.308601
10.700000	1052.996366
10.710000	1032.082807
10.720000	1011.005300
10.730000	997.518137
10.740000	986.952088
10.750000	992.307664
10.760000	997.123975
10.770000	1006.796915
10.780000	1004.207387
10.790000	996.660279
10.800000	990.595779
10.810000	984.810322
10.820000	980.966697
10.830000	968.568595
10.840000	956.365735
10.850000	940.601407
10.860000	925.429010
10.870000	904.581725
10.880000	887.511860
10.890000	874.179311
10.900000	872.593758
10.910000	875.378501
10.920000	882.673754
10.930000	883.524920
10.940000	886.786100
10.950000	882.932374
10.960000	881.261892
10.970000	865.247537
10.980000	858.493435
10.990000	933.676560
11.000000	1009.949267
11.010000	1066.583532
11.020000	1042.941841
11.030000	1021.530209
11.040000	1018.398626
11.050000	1007.341076
11.060000	1006.624649
11.070000	993.018556
11.080000	974.918286
11.090000	957.334311
11.100000	948.869511
11.110000	944.594092
11.120000	930.443645
11.130000	910.886237
11.140000	892.338049
11.150000	876.146164
11.160000	860.873291
11.170000	843.383351
11.180000	832.757449
11.190000	827.239564
11.200000	830.973360
11.210000	831.365441
11.220000	833.219435
11.230000	831.446606
11.240000	828.134415
11.250000	818.491472
11.260000	813.408454
11.270000	815.162054
11.280000	839.368557
11.290000	886.774599
11.300000	954.635246
11.310000	1014.633118
11.320000	1050.250584
11.330000	1058.846011
11.340000	1040.857325
11.350000	1008.073034
11.360000	962.754190
11.370000	915.973884
11.380000	854.567432
11.390000	757.168472
11.400000	629.437817
11.410000	504.086909
11.420000	411.284073
11.430000	333.523894
11.440000	241.748048
11.450000	123.990567
11.460000	4.293622
11.470000	-110.273387
11.480000	-204.489135
11.490000	-282.274013
11.500000	-340.937877
11.510000	-398.014370
11.520000	-461.377649
11.530000	-526.738920
11.540000	-588.163870
11.550000	-642.488748
11.560000	-697.664984
11.570000	-751.227691
11.580000	-802.856403
11.590000	-840.619176
11.600000	-843.707889
11.610000	-820.776034
11.620000	-784.254208
11.630000	-763.330041
11.640000	-751.386638
11.650000	-762.625666
11.660000	-765.745177
11.670000	-764.034031
11.680000	-705.636633
11.690000	-542.470438
11.700000	-390.329165
11.710000	-286.709400
11.720000	-297.784687
11.730000	-320.501082
11.740000	-344.846558
11.750000	-384.040657
11.760000	-418.168124
11.770000	-452.667181
11.780000	-483.146617
11.790000	-521.355235
11.800000	-562.764207
11.810000	-605.400717
11.820000	-640.714071
11.830000	-673.834042
11.840000	-698.649921
11.850000	-719.980834
11.860000	-739.928339
11.870000	-762.148506
11.880000	-775.516011
11.890000	-781.701077
11.900000	-777.774037
11.910000	-774.306947
11.920000	-769.681351
11.930000	-770.618377
11.940000	-774.244847
11.950000	-777.277757
11.960000	-779.164789
11.970000	-797.001084
11.980000	-832.056603
11.990000	-875.712443
12.000000	-878.183728
12.010000	-850.606012
12.020000	-775.914793
12.030000	-710.382233
12.040000	-661.192090
12.050000	-664.920064
12.060000	-689.628578
12.070000	-725.866840
12.080000	-743.354853
12.090000	-773.329378
12.100000	-798.962384
12.110000	-847.927211
12.120000	-890.759177
12.130000	-953.356419
12.140000	-995.052244
12.150000	-1028.945507
12.160000	-1023.233966
12.170000	-1045.485935
12.180000	-1058.138442
12.190000	-1328.876005
12.200000	-1528.748550
12.210000	-1755.114370
12.220000	-1695.577039
12.230000	-1718.566198
12.240000	-1670.314510
12.250000	-1723.925403
12.260000	-1690.734314
12.270000	-1787.406845
12.280000	-1762.878097
12.290000	-1413.655971
12.300000	3715.159007
12.310000	4125.677143
12.320000	3794.712190
12.330000	2872.825163
12.340000	1922.081964
12.350000	1093.504628
12.360000	774.762402
12.370000	746.176936
12.380000	950.550339
12.390000	1261.988725
12.400000	1702.405988
12.410000	2167.114788
12.420000	2445.299046
12.430000	2511.746418
12.440000	2287.373483
12.450000	1779.277627
12.460000	1092.379663
12.470000	941.814737
12.480000	1590.473785
12.490000	1830.957950
12.500000	215.596608
12.510000	-481.031510
12.520000	-723.786366
12.530000	-917.471186
12.540000	-1187.130908
12.550000	-1337.700632
12.560000	-1472.965099
12.570000	-1390.089948
12.580000	-1184.954933
12.590000	-793.040421
12.600000	-380.914336
12.610000	14.363449
12.620000	183.652451
12.630000	203.216878
12.640000	93.732417
12.650000	30.494358
12.660000	-43.826978
12.670000	-98.653641
12.680000	-173.579179
12.690000	-237.607652
12.700000	-388.350984
12.710000	-745.956412
12.720000	-1375.972164
12.730000	-2047.824329
12.740000	-2478.113870
12.750000	-2524.411507
12.760000	-2065.646100
12.770000	-1159.822160
12.780000	-79.766408
12.790000	721.608100
12.800000	1112.999074
12.810000	1329.714675
12.820000	1598.076191
12.830000	1976.028697
12.840000	2272.807023
12.850000	2435.391433
12.860000	2389.483353
12.870000	2246.936267
12.880000	1961.396168
12.890000	1604.810553
12.900000	1332.208533
12.910000	1253.565945
12.920000	1368.389147
12.930000	1488.143333
12.940000	1551.591318
12.950000	1436.224478
12.960000	1110.047578
12.970000	548.331166
12.980000	29.007468
12.990000	54.058991
13.000000	444.436034
13.010000	935.557830
13.020000	1098.753257
13.030000	1132.451800
13.040000	1144.494495
13.050000	1111.324430
13.060000	1088.124944
13.070000	1055.331422
13.080000	1051.588309
13.090000	1019.414140
13.100000	1006.680810
13.110000	1011.366287
13.120000	1009.720114
13.130000	902.785034
13.140000	766.579837
13.150000	653.812922
13.160000	627.808542
13.170000	628.508412
13.180000	661.223254
13.190000	801.402990
13.200000	940.472282
13.210000	1040.832237
13.220000	1021.943063
13.230000	963.374225
13.240000	894.281655
13.250000	817.516857
13.260000	759.691675
13.270000	705.216350
13.280000	655.153469
13.290000	581.508669
13.300000	506.091274
13.310000	438.105506
13.320000	402.411134
13.330000	361.536780
13.340000	311.829422
13.350000	252.648446
13.360000	198.628352
13.370000	141.368768
13.380000	88.810657
13.390000	58.787988
13.400000	58.635750
13.410000	83.177701
13.420000	108.748148
13.430000	106.892245
13.440000	82.623685
13.450000	29.914239
13.460000	-30.422716
13.470000	-114.828521
13.480000	-203.699319
13.490000	-295.617205
13.500000	-389.305722
13.510000	-461.341240
13.520000	-512.976180
13.530000	-539.378275
13.540000	-577.090085
13.550000	-631.325832
13.560000	-691.490559
13.570000	-739.248871
13.580000	-769.256872
13.590000	-795.889637
13.600000	-824.328239
13.610000	-853.510295
13.620000	-879.054259
13.630000	-905.151662
13.640000	-930.094624
13.650000	-947.778212
13.660000	-956.477655
13.670000	-957.744432
13.680000	-958.873829
13.690000	-965.704041
13.700000	-969.895137
13.710000	-975.695645
13.720000	-962.846560
13.730000	-960.821270
13.740000	-961.692679
13.750000	-972.986745
13.760000	-984.487458
13.770000	-993.503586
13.780000	-1005.635679
13.790000	-982.898011
13.800000	-923.213112
13.810000	-827.631568
13.820000	-738.567974
13.830000	-684.991954
13.840000	-667.842873
13.850000	-675.982791
13.860000	-686.081164
13.870000	-698.034223
13.880000	-705.966989
13.890000	-716.784051
13.900000	-738.184868
13.910000	-770.175858
13.920000	-798.025275
13.930000	-801.883177
13.940000	-793.615584
13.950000	-787.259133
13.960000	-792.857483
13.970000	-807.595537
13.980000	-817.731672
13.990000	-819.956092
14.000000	-814.945502
14.010000	-810.999464
14.020000	-800.778109
14.030000	-784.725793
14.040000	-760.598080
14.050000	-739.817575
14.060000	-704.665759
14.070000	-674.672568
14.080000	-635.634846
14.090000	-612.295070
14.100000	-575.783704
14.110000	-545.042384
14.120000	-497.478451
14.130000	-460.587034
14.140000	-407.683955
14.150000	-363.264946
14.160000	-303.081394
14.170000	-261.763510
14.180000	-204.279559
14.190000	57.834162
14.200000	331.148419
14.210000	571.851362
14.220000	595.532374
14.230000	592.907900
14.240000	603.510327
14.250000	575.723537
14.260000	536.714312
14.270000	468.090561
14.280000	427.804700
14.290000	398.928831
14.300000	406.353716
14.310000	409.932429
14.320000	427.071617
14.330000	429.822450
14.340000	442.611214
14.350000	444.265251
14.360000	460.290548
14.370000	472.934275
14.380000	503.756398
14.390000	633.110155
14.400000	776.448208
14.410000	915.146130
14.420000	970.654621
14.430000	1029.982833
14.440000	1109.346082
14.450000	1166.672408
14.460000	1210.523042
14.470000	1222.300614
14.480000	1218.476331
14.490000	1194.551349
14.500000	1167.836417
14.510000	1135.426887
14.520000	1102.231714
14.530000	1058.609628
14.540000	1027.396788
14.550000	1005.735777
14.560000	998.263152
14.570000	988.150400
14.580000	982.208589
14.590000	978.221084
14.600000	982.525080
14.610000	992.949323
14.620000	1010.531333
14.630000	1020.648852
14.640000	1016.907833
14.650000	993.363937
14.660000	960.677592
14.670000	916.390637
14.680000	871.832855
14.690000	823.724829
14.700000	774.685244
14.710000	726.404032
14.720000	682.557282
14.730000	647.432403
14.740000	615.416240
14.750000	578.802422
14.760000	536.306848
14.770000	488.859142
14.780000	438.882118
14.790000	394.278077
14.800000	355.784810
14.810000	345.770118
14.820000	360.295542
14.830000	393.604050
14.840000	419.095838
14.850000	430.507234
14.860000	423.247378
14.870000	396.768089
14.880000	352.083023
14.890000	296.726579
14.900000	244.950085
14.910000	197.661297
14.920000	150.816329
14.930000	101.946359
14.940000	60.394268
14.950000	36.245950
14.960000	18.927853
14.970000	1.233747
14.980000	-28.538720
14.990000	-62.378890
15.000000	-99.346054
15.010000	-136.306948
15.020000	-177.495164
15.030000	-226.220777
15.040000	-278.278706
15.050000	-333.467437
15.060000	-390.715122
15.070000	-444.356841
15.080000	-495.492233
15.090000	-535.541865
15.100000	-576.648550
15.110000	-620.019228
15.120000	-658.103269
15.130000	-687.831429
15.140000	-715.907433
15.150000	-754.982638
15.160000	-795.974640
15.170000	-829.789946
15.180000	-872.099380
15.190000	-926.888058
15.200000	-979.495855
15.210000	-1012.969522
15.220000	-1005.869693
15.230000	-962.110333
15.240000	-884.229485
15.250000	-813.681112
15.260000	-766.843495
15.270000	-745.534995
15.280000	-743.759135
15.290000	-756.380999
15.300000	-783.010885
15.310000	-808.843804
15.320000	-840.979170
15.330000	-870.920121
15.340000	-919.350588
15.350000	-952.503165
15.360000	-985.846811
15.370000	-987.612661
15.380000	-997.863132
15.390000	-1119.216722
15.400000	-1258.999084
15.410000	-1394.335105
15.420000	-1420.232028
15.430000	-1438.343505
15.440000	-1458.200971
15.450000	-1468.617249
15.460000	-1473.867853
15.470000	-1475.204703
15.480000	-1482.212841
15.490000	-1501.438890
15.500000	-1509.798038
15.510000	-1518.756075
15.520000	-1509.287425
15.530000	-1512.532137
15.540000	-1499.599504
15.550000	-1479.399397
15.560000	-1407.084439
15.570000	-1291.400811
15.580000	-1125.847562
15.590000	-844.559009
15.600000	-601.868406
15.610000	-410.313770
15.620000	-366.773324
15.630000	-335.414879
15.640000	-314.699000
15.650000	-308.181634
15.660000	-285.516282
15.670000	-270.748905
15.680000	-251.551181
15.690000	-181.539894
15.700000	-83.760418
15.710000	12.669063
15.720000	54.313789
15.730000	77.809244
15.740000	113.053605
15.750000	137.155487
15.760000	171.265713
15.770000	199.418052
15.780000	231.233301
15.790000	272.020917
15.800000	347.275407
15.810000	444.873139
15.820000	533.952326
15.830000	584.079748
15.840000	606.430328
15.850000	599.939803
15.860000	582.313866
15.870000	541.405431
15.880000	500.649614
15.890000	444.786170
15.900000	399.118403
15.910000	347.073762
15.920000	313.723672
15.930000	284.274195
15.940000	266.079003
15.950000	237.417565
15.960000	213.224693
15.970000	169.477175
15.980000	137.880244
15.990000	86.719617
16.000000	54.084755
16.010000	1.442401
16.020000	-23.115132
16.030000	-62.393241
16.040000	-77.064654
16.050000	-127.477650
16.060000	-147.641958
16.070000	-203.900082
16.080000	-221.138415
16.090000	-272.370140
16.100000	-273.510621
16.110000	-321.644799
16.120000	-313.305442
16.130000	-365.832475
16.140000	-354.408149
16.150000	-427.075676
16.160000	-409.932466
16.170000	-486.272232
16.180000	-429.636752
16.190000	-470.361884
16.200000	-345.290521
16.210000	-382.379728
16.220000	-267.819365
16.230000	-364.894750
16.240000	-276.898062
16.250000	-441.672238
16.260000	-366.056403
16.270000	-621.008866
16.280000	-642.400002
16.290000	-535.710431
16.300000	9632.091469
16.310000	8063.968773
16.320000	4436.863354
16.330000	2740.517727
16.340000	2046.375832
16.350000	1936.535880
16.360000	2065.382048
16.370000	1758.064479
16.380000	1865.945847
16.390000	2213.805972
16.400000	2799.350490
16.410000	2801.330764
16.420000	2549.281847
16.430000	2104.150559
16.440000	1810.357838
16.450000	1486.559017
16.460000	1093.189277
16.470000	500.084654
16.480000	354.187750
16.490000	853.743857
16.500000	2032.767720
16.510000	3238.215187
16.520000	4137.593907
16.530000	4503.340442
16.540000	4366.496012
16.550000	3853.092122
16.560000	3130.209586
16.570000	2251.898583
16.580000	1432.729081
16.590000	897.431119
16.600000	714.183212
16.610000	658.190034
16.620000	532.411058
16.630000	295.072645
16.640000	100.541282
16.650000	-127.982911
16.660000	-382.733059
16.670000	-711.829050
16.680000	-1170.330462
16.690000	-1717.716920
16.700000	-2269.779028
16.710000	-2785.361099
16.720000	-3211.165862
16.730000	-3561.496105
16.740000	-3733.202121
16.750000	-3626.278605
16.760000	-3159.595900
16.770000	-2390.747926
16.780000	-1428.101713
16.790000	-355.121522
16.800000	546.207807
16.810000	988.851530
16.820000	958.627190
16.830000	783.123669
16.840000	675.091476
16.850000	579.687749
16.860000	493.055958
16.870000	352.450159
16.880000	154.209374
16.890000	225.481052
16.900000	724.257995
16.910000	1542.808484
16.920000	2225.711264
16.930000	2634.031337
16.940000	2860.159274
16.950000	2937.785559
16.960000	2837.125395
16.970000	2572.018557
16.980000	2252.380844
16.990000	1971.564650
17.000000	1875.806587
17.010000	1909.247158
17.020000	2019.600062
17.030000	2080.416976
17.040000	2125.524484
17.050000	2123.096940
17.060000	2058.853941
17.070000	1942.198499
17.080000	1819.641550
17.090000	1723.951555
17.100000	1662.381316
17.110000	1593.258789
17.120000	1405.953211
17.130000	1073.483599
17.140000	722.634881
17.150000	533.207746
17.160000	501.499207
17.170000	528.021744
17.180000	521.739274
17.190000	512.185684
17.200000	494.904361
17.210000	498.458279
17.220000	507.633425
17.230000	528.138801
17.240000	547.328781
17.250000	567.209178
17.260000	571.656862
17.270000	569.363126
17.280000	548.944788
17.290000	529.615653
17.300000	487.795943
17.310000	442.331690
17.320000	377.899786
17.330000	325.855349
17.340000	256.514941
17.350000	208.912916
17.360000	143.258307
17.370000	77.138992
17.380000	-21.123188
17.390000	-349.080528
17.400000	-661.612659
17.410000	-938.575569
17.420000	-990.628818
17.430000	-1037.185137
17.440000	-1096.752150
17.450000	-1122.608302
17.460000	-1152.433824
17.470000	-1169.208185
17.480000	-1204.576546
17.490000	-1231.975998
17.500000	-1268.500722
17.510000	-1286.282267
17.520000	-1300.873171
17.530000	-1308.197360
17.540000	-1334.659116
17.550000	-1377.362129
17.560000	-1422.412038
17.570000	-1449.506837
17.580000	-1435.488333
17.590000	-1395.087165
17.600000	-1379.329535
17.610000	-1391.869589
17.620000	-1420.793830
17.630000	-1414.542607
17.640000	-1407.493939
17.650000	-1405.136344
17.660000	-1412.526537
17.670000	-1407.656354
17.680000	-1385.272689
17.690000	-1353.547689
17.700000	-1325.366479
17.710000	-1307.089363
17.720000	-1287.747824
17.730000	-1255.631030
17.740000	-1216.178514
17.750000	-1174.173335
17.760000	-1133.275419
17.770000	-1091.703513
17.780000	-1044.700478
17.790000	-980.551078
17.800000	-914.202095
17.810000	-842.352007
17.820000	-783.433709
17.830000	-735.768145
17.840000	-693.323956
17.850000	-663.558720
17.860000	-615.111772
17.870000	-568.161830
17.880000	-480.064808
17.890000	-372.947390
17.900000	-247.964911
17.910000	-147.851929
17.920000	-63.059635
17.930000	-2.144524
17.940000	43.220244
17.950000	59.497620
17.960000	87.310227
17.970000	121.675753
17.980000	171.432642
17.990000	373.867709
18.000000	578.759650
18.010000	775.771347
18.020000	800.657973
18.030000	815.231108
18.040000	829.800648
18.050000	846.328280
18.060000	883.984131
18.070000	938.354082
18.080000	1011.846285
18.090000	980.024618
18.100000	917.581663
18.110000	830.499246
18.120000	818.901590
18.130000	801.467998
18.140000	778.103579
18.150000	746.422581
18.160000	711.985998
18.170000	674.352425
18.180000	636.536128
18.190000	601.941361
18.200000	563.047403
18.210000	522.883550
18.220000	483.212598
18.230000	449.158823
18.240000	421.690012
18.250000	397.746449
18.260000	376.496735
18.270000	354.316032
18.280000	327.960574
18.290000	308.915239
18.300000	287.354821
18.310000	262.528071
18.320000	221.704632
18.330000	175.526658
18.340000	115.322716
18.350000	59.587602
18.360000	11.553046
18.370000	-16.338899
18.380000	-41.979590
18.390000	-71.914133
18.400000	-104.503221
18.410000	-144.186450
18.420000	-185.680776
18.430000	-233.165626
18.440000	-275.831611
18.450000	-330.234651
18.460000	-388.262952
18.470000	-457.361567
18.480000	-519.640107
18.490000	-572.546242
18.500000	-628.073073
18.510000	-685.044167
18.520000	-750.545043
18.530000	-804.149727
18.540000	-850.101515
18.550000	-898.287745
18.560000	-969.037160
18.570000	-1050.688596
18.580000	-1136.002505
18.590000	-1205.406651
18.600000	-1243.998602
18.610000	-1234.803783
18.620000	-1185.413774
18.630000	-1132.632911
18.640000	-1100.144822
18.650000	-1098.110289
18.660000	-1128.204761
18.670000	-1177.232483
18.680000	-1240.306638
18.690000	-1292.318370
18.700000	-1354.555290
18.710000	-1457.114564
18.720000	-1612.107414
18.730000	-1739.343534
18.740000	-1814.165094
18.750000	-1824.961438
18.760000	-1852.830558
18.770000	-1849.243174
18.780000	-1856.431869
18.790000	-2045.565626
18.800000	-2274.860223
18.810000	-2493.156912
18.820000	-2529.646522
18.830000	-2561.055943
18.840000	-2604.012930
18.850000	-2625.170821
18.860000	-2640.868833
18.870000	-2642.904563
18.880000	-2642.129898
18.890000	-2590.830152
18.900000	-2481.520686
18.910000	-2306.440717
18.920000	-2121.438410
18.930000	-1955.997578
18.940000	-1821.324436
18.950000	-1698.489957
18.960000	-1594.299201
18.970000	-1499.623055
18.980000	-1430.026020
18.990000	-1357.988458
19.000000	-1296.213683
19.010000	-1242.663459
19.020000	-1202.771669
19.030000	-1167.982876
19.040000	-1109.289348
19.050000	-1037.092755
19.060000	-972.518383
19.070000	-923.180437
19.080000	-890.077160
19.090000	-848.545211
19.100000	-814.093503
19.110000	-788.886883
19.120000	-784.147918
19.130000	-787.844183
19.140000	-786.210040
19.150000	-769.825518
19.160000	-737.640207
19.170000	-702.523094
19.180000	-666.050317
19.190000	-632.572194
19.200000	-592.097883
19.210000	-541.984590
19.220000	-475.476866
19.230000	-403.788648
19.240000	-342.208941
19.250000	-288.218615
19.260000	-237.610788
19.270000	-187.659977
19.280000	-145.379624
19.290000	-103.067409
19.300000	-47.138371
19.310000	45.211500
19.320000	170.358405
19.330000	307.438254
19.340000	422.481471
19.350000	504.056284
19.360000	549.291174
19.370000	571.716236
19.380000	583.427559
19.390000	601.721502
19.400000	612.475754
19.410000	610.416243
19.420000	603.225107
19.430000	609.473527
19.440000	631.262248
19.450000	653.817878
19.460000	665.976434
19.470000	662.178465
19.480000	639.365374
19.490000	601.894345
19.500000	569.465079
19.510000	553.924313
19.520000	550.187630
19.530000	544.266196
19.540000	524.252624
19.550000	498.333677
19.560000	465.295886
19.570000	440.785227
19.580000	427.642080
19.590000	442.613413
19.600000	474.918108
19.610000	514.449222
19.620000	533.819440
19.630000	542.058146
19.640000	498.591281
19.650000	431.863702
19.660000	333.937244
19.670000	269.208963
19.680000	203.019146
19.690000	85.186573
19.700000	-42.972360
19.710000	-147.179555
19.720000	-186.603300
19.730000	-200.088317
19.740000	-231.237468
19.750000	-239.087998
19.760000	-279.794585
19.770000	-299.107010
19.780000	-355.650646
19.790000	-368.063480
19.800000	-403.904024
19.810000	-399.982150
19.820000	-441.218525
19.830000	-437.741412
19.840000	-485.363370
19.850000	-487.625939
19.860000	-560.411114
19.870000	-561.788391
19.880000	-640.242193
19.890000	-622.719732
19.900000	-696.715216
19.910000	-682.627479
19.920000	-807.288848
19.930000	-835.917990
19.940000	-1040.571478
19.950000	-873.607035
19.960000	-311.275882
19.970000	1052.984247
19.980000	5198.593263
19.990000	9049.993554
20.000000	4043.616145
20.010000	4287.871568
20.020000	4527.300947
20.030000	4527.689257
20.040000	4088.623930
20.050000	3719.810646
20.060000	3159.849168
20.070000	2784.368662
20.080000	2564.316697
20.090000	3299.891504
20.100000	3887.241931
20.110000	4300.729802
20.120000	3819.277874
20.130000	3394.516469
20.140000	2970.901698
20.150000	2600.619836
20.160000	2191.817348
20.170000	1772.071951
20.180000	1342.012966
20.190000	880.819050
20.200000	129.909363
20.210000	-804.745550
20.220000	-1452.839974
20.230000	-1432.867226
20.240000	-869.626539
20.250000	-86.180165
20.260000	680.844152
20.270000	1436.523861
20.280000	1988.124554
20.290000	2420.677049
20.300000	2921.037454
20.310000	3496.690296
20.320000	4071.072100
20.330000	4413.967303
20.340000	4556.175923
20.350000	4567.035579
20.360000	4412.347245
20.370000	4164.080413
20.380000	3734.431090
20.390000	3089.624695
20.400000	2133.694848
20.410000	1030.232250
20.420000	-74.071126
20.430000	-921.505639
20.440000	-1693.694509
20.450000	-2531.783486
20.460000	-3337.645556
20.470000	-3568.491917
20.480000	-3043.242296
20.490000	-1968.918869
20.500000	-763.738651
20.510000	574.823260
20.520000	1843.546426
20.530000	3054.168699
20.540000	4040.355036
20.550000	4915.628447
20.560000	5424.495456
20.570000	5699.164716
20.580000	5687.808370
20.590000	5231.647956
20.600000	1528.884286
20.610000	985.888378
20.620000	818.088607
20.630000	742.050557
20.640000	495.589495
20.650000	236.373842
20.660000	-286.691564
20.670000	-890.436575
20.680000	-1571.460018
20.690000	-2181.509992
20.700000	-2760.740644
20.710000	-3317.491243
20.720000	-3835.950656
20.730000	-4276.403038
20.740000	-4604.171171
20.750000	-4788.656474
20.760000	-4877.604384
20.770000	-4895.844877
20.780000	-4793.831579
20.790000	-3999.109574
20.800000	-2675.027481
20.810000	-1964.238627
20.820000	-1994.361427
20.830000	-2101.114464
20.840000	-2190.775368
20.850000	-2278.623060
20.860000	-2300.304159
20.870000	-2313.132897
20.880000	-2313.332390
20.890000	-2544.322388
20.900000	-2782.746090
20.910000	-3054.865096
20.920000	-3133.464654
20.930000	-3218.248171
20.940000	-3301.280789
20.950000	-3367.947475
20.960000	-3409.113244
20.970000	-3423.001595
20.980000	-3411.289772
20.990000	-3373.049774
21.000000	-3309.807529
21.010000	-3245.159647
21.020000	-3180.264631
21.030000	-3103.568789
21.040000	-2993.361210
21.050000	-2851.376203
21.060000	-2675.781690
21.070000	-2519.333711
21.080000	-2392.084828
21.090000	-2296.937960
21.100000	-2198.615894
21.110000	-2118.363312
21.120000	-2062.772299
21.130000	-2029.094967
21.140000	-2014.927965
21.150000	-2017.490246
21.160000	-2024.722477
21.170000	-2016.861684
21.180000	-1978.191730
21.190000	-1936.683034
21.200000	-1902.274331
21.210000	-1883.496327
21.220000	-1874.312325
21.230000	-1870.643315
21.240000	-1880.043492
21.250000	-1888.391548
21.260000	-1896.810185
21.270000	-1902.789662
21.280000	-1901.563392
21.290000	-1903.220803
21.300000	-1912.293054
21.310000	-1935.649574
21.320000	-1960.626417
21.330000	-1975.069893
21.340000	-1968.286721
21.350000	-1957.890326
21.360000	-1943.552876
21.370000	-1943.081779
21.380000	-1943.722367
21.390000	-1789.533291
21.400000	-1625.370732
21.410000	-1465.946096
21.420000	-1471.737556
21.430000	-1486.807283
21.440000	-1484.777003
21.450000	-1449.345586
21.460000	-1397.556789
21.470000	-1343.189651
21.480000	-1318.701905
21.490000	-1479.016727
21.500000	-1609.143622
21.510000	-1683.676380
21.520000	-1563.250144
21.530000	-1472.980827
21.540000	-1426.084297
21.550000	-1390.803952
21.560000	-1383.358306
21.570000	-1377.484369
21.580000	-1383.706532
21.590000	-1369.351851
21.600000	-1373.556887
21.610000	-1396.081929
21.620000	-1433.368044
21.630000	-1446.015984
21.640000	-1436.261793
21.650000	-1420.623316
21.660000	-1436.512784
21.670000	-1468.384175
21.680000	-1515.769956
21.690000	-1557.719320
21.700000	-1604.408935
21.710000	-1650.640976
21.720000	-1710.729324
21.730000	-1775.792481
21.740000	-1865.754782
21.750000	-1942.743579
21.760000	-2028.568204
21.770000	-2085.821772
21.780000	-2160.900550
21.790000	-2366.369459
21.800000	-2575.194902
21.810000	-2756.466880
21.820000	-2743.066496
21.830000	-2655.972546
21.840000	-2537.671732
21.850000	-2447.138301
21.860000	-2413.475292
21.870000	-2395.055705
21.880000	-2403.703773
21.890000	-2417.490699
21.900000	-2438.273378
21.910000	-2433.773220
21.920000	-2437.965040
21.930000	-2470.288026
21.940000	-2528.200646
21.950000	-2563.279891
21.960000	-2558.123271
21.970000	-2531.304445
21.980000	-2522.035170
21.990000	-2533.828904
22.000000	-2554.500585
22.010000	-2581.642181
22.020000	-2607.211137
22.030000	-2634.412260
22.040000	-2668.518563
22.050000	-2716.443306
22.060000	-2756.001112
22.070000	-2774.086234
22.080000	-2798.514885
22.090000	-2845.280718
22.100000	-2903.871733
22.110000	-2950.686959
22.120000	-2970.832017
22.130000	-2977.414761
22.140000	-2980.359985
22.150000	-2999.076798
22.160000	-3020.037415
22.170000	-3040.339667
22.180000	-3046.589380
22.190000	-2979.712106
22.200000	-2854.243553
22.210000	-2673.953322
22.220000	-2504.631378
22.230000	-2353.595525
22.240000	-2247.632521
22.250000	-2177.697404
22.260000	-2120.484149
22.270000	-2047.004881
22.280000	-1980.364928
22.290000	-1936.844540
22.300000	-1887.336817
22.310000	-1829.638693
22.320000	-1737.120370
22.330000	-1660.187991
22.340000	-1592.289171
22.350000	-1552.012815
22.360000	-1522.231120
22.370000	-1507.098770
22.380000	-1487.643648
22.390000	-1380.874402
22.400000	-1264.360749
22.410000	-1153.006223
22.420000	-1128.788431
22.430000	-1109.879206
22.440000	-1091.617160
22.450000	-1097.349582
22.460000	-1117.874979
22.470000	-1158.375967
22.480000	-1196.906130
22.490000	-1231.302534
22.500000	-1255.436894
22.510000	-1247.026556
22.520000	-1211.216126
22.530000	-1152.586804
22.540000	-1117.278572
22.550000	-1111.203591
22.560000	-1141.509388
22.570000	-1192.587460
22.580000	-1275.307111
22.590000	-1359.350318
22.600000	-1433.981986
22.610000	-1487.598733
22.620000	-1557.276408
22.630000	-1623.174565
22.640000	-1690.454459
22.650000	-1726.125110
22.660000	-1786.020507
22.670000	-1841.318362
22.680000	-1918.210722
22.690000	-2218.464742
22.700000	-2548.116083
22.710000	-2859.479416
22.720000	-2939.364528
22.730000	-2978.732891
22.740000	-3032.031221
22.750000	-3061.524121
22.760000	-3118.397474
22.770000	-3155.498292
22.780000	-3225.154350
22.790000	-3288.336604
22.800000	-3374.879738
22.810000	-3451.110822
22.820000	-3510.454159
22.830000	-3505.545204
22.840000	-3450.968486
22.850000	-3382.137429
22.860000	-3363.326907
22.870000	-3359.886940
22.880000	-3392.931623
22.890000	-3630.463819
22.900000	-3917.069414
22.910000	-4184.365179
22.920000	-4247.302944
22.930000	-4278.328626
22.940000	-4328.614266
22.950000	-4386.193520
22.960000	-4455.041522
22.970000	-4496.677886
22.980000	-4539.051211
22.990000	-4558.083210
23.000000	-4578.589556
23.010000	-4581.760229
23.020000	-4602.998776
23.030000	-4620.332059
23.040000	-4638.530916
23.050000	-4641.225660
23.060000	-4648.540130
23.070000	-4643.725141
23.080000	-4646.018957
23.090000	-4639.495733
23.100000	-4635.938474
23.110000	-4633.924837
23.120000	-4645.586833
23.130000	-4655.967961
23.140000	-4642.566332
23.150000	-4574.336229
23.160000	-4460.000388
23.170000	-4309.382874
23.180000	-4163.859783
23.190000	-4036.687601
23.200000	-3946.733176
23.210000	-3874.883181
23.220000	-3815.969929
23.230000	-3756.711396
23.240000	-3695.891249
23.250000	-3617.814421
23.260000	-3541.218178
23.270000	-3487.231490
23.280000	-3447.100251
23.290000	-3395.570185
23.300000	-3301.262152
23.310000	-3213.423325
23.320000	-3129.571298
23.330000	-3081.656669
23.340000	-3029.965531
23.350000	-2981.630200
23.360000	-2924.247209
23.370000	-2862.588233
23.380000	-2791.769240
23.390000	-2720.847623
23.400000	-2675.262172
23.410000	-2654.290558
23.420000	-2641.964767
23.430000	-2619.640470
23.440000	-2594.649142
23.450000	-2564.870947
23.460000	-2519.211465
23.470000	-2461.374057
23.480000	-2387.982375
23.490000	-2319.834288
23.500000	-2228.504826
23.510000	-2134.979627
23.520000	-2016.118127
23.530000	-1884.096646
23.540000	-1719.849588
23.550000	-1549.203543
23.560000	-1387.080273
23.570000	-1270.228817
23.580000	-1198.397001
23.590000	-1261.017322
23.600000	-1424.221206
23.610000	-1109.150990
23.620000	-47.339098
23.630000	2379.097401
23.640000	5165.547222
23.650000	7897.592016
23.660000	9518.267013
23.670000	10407.702054
23.680000	10431.963908
23.690000	9891.695056
23.700000	9014.989489
23.710000	7906.213365
23.720000	6655.511609
23.730000	5398.395614
23.740000	4618.532994
23.750000	4498.297013
23.760000	4693.993119
23.770000	4725.377243
23.780000	4412.502127
23.790000	3890.216368
23.800000	3303.937945
23.810000	2619.797653
23.820000	2040.929408
23.830000	1291.972839
23.840000	397.656620
23.850000	-157.340424
23.860000	186.173472
23.870000	1523.604588
23.880000	3487.548321
23.890000	5797.443587
23.900000	7319.664504
23.910000	8192.131594
23.920000	8551.491235
23.930000	8567.294065
23.940000	8317.010017
23.950000	7662.813331
23.960000	6778.669727
23.970000	5735.336761
23.980000	5034.135995
23.990000	4774.048755
24.000000	4884.098688
24.010000	4608.178450
24.020000	3969.838440
24.030000	3025.035666
24.040000	2387.083678
24.050000	1555.477822
24.060000	526.358550
24.070000	-1077.758579
24.080000	-2086.557549
24.090000	-1909.763123
24.100000	5478.061801
24.110000	5462.253412
24.120000	5302.038454
24.130000	4854.108349
24.140000	4444.060974
24.150000	3516.214316
24.160000	2723.410309
24.170000	1672.791659
24.180000	1017.979944
24.190000	1061.112710
24.200000	3932.780278
24.210000	4753.072015
24.220000	4902.737548
24.230000	4503.872520
24.240000	4082.530484
24.250000	3495.197827
24.260000	3082.352335
24.270000	2481.293820
24.280000	2024.454500
24.290000	1463.835739
24.300000	1118.489933
24.310000	774.625666
24.320000	519.733369
24.330000	-167.206215
24.340000	-866.721561
24.350000	-1305.719303
24.360000	-884.222188
24.370000	9.111067
24.380000	1301.205116
24.390000	2926.907429
24.400000	6991.254093
24.410000	7558.337444
24.420000	7626.683276
24.430000	7360.778669
24.440000	7240.433909
24.450000	7117.238242
24.460000	7207.599147
24.470000	7209.020636
24.480000	7156.106997
24.490000	6919.772181
24.500000	6712.306490
24.510000	6493.252140
24.520000	6395.740566
24.530000	6280.409975
24.540000	6230.213330
24.550000	6188.614523
24.560000	6207.080938
24.570000	6220.264766
24.580000	6239.594248
24.590000	6235.572358
24.600000	6261.439440
24.610000	6300.460576
24.620000	6373.161262
24.630000	6434.945656
24.640000	6500.489662
24.650000	6562.482154
24.660000	6614.600565
24.670000	6641.107187
24.680000	6662.927794
24.690000	6675.111300
24.700000	6662.010283
24.710000	6595.867901
24.720000	6492.666386
24.730000	6356.045108
24.740000	6198.803139
24.750000	6018.303023
24.760000	5837.467439
24.770000	5682.026860
24.780000	5533.469263
24.790000	5399.281939
24.800000	5247.155708
24.810000	5086.780353
24.820000	4896.551538
24.830000	4744.654707
24.840000	4611.168662
24.850000	4514.097106
24.860000	4366.963267
24.870000	4245.449868
24.880000	4082.832229
24.890000	3544.198670
24.900000	2965.008839
24.910000	2441.757994
24.920000	2338.721525
24.930000	2288.776129
24.940000	2236.090557
24.950000	2227.879003
24.960000	2196.613168
24.970000	2150.993637
24.980000	1991.641638
24.990000	1816.787361
25.000000	1670.324166
25.010000	1618.111659
25.020000	1625.534574
25.030000	1656.569519
25.040000	1681.901078
25.050000	1688.209219
25.060000	1686.806703
25.070000	1667.929373
25.080000	1629.873013
25.090000	1599.199235
25.100000	1594.723636
25.110000	1623.241844
25.120000	1603.137351
25.130000	1527.629403
25.140000	1416.764298
25.150000	1361.350998
25.160000	1335.878234
25.170000	1286.133682
25.180000	1157.130064
25.190000	1012.047709
25.200000	910.512341
25.210000	864.303948
25.220000	810.162213
25.230000	687.708539
25.240000	514.165725
25.250000	363.743542
25.260000	282.566046
25.270000	255.751656
25.280000	225.656301
25.290000	154.287845
25.300000	52.020207
25.310000	-15.215854
25.320000	-0.193024
25.330000	86.261941
25.340000	207.330009
25.350000	314.849611
25.360000	383.389877
25.370000	433.036743
25.380000	474.565324
25.390000	499.645923
25.400000	486.511753
25.410000	429.106172
25.420000	369.732289
25.430000	315.945626
25.440000	275.762086
25.450000	235.199343
25.460000	199.318890
25.470000	175.601091
25.480000	191.739280
25.490000	133.047829
