Time(s)	RED_denoised_wiener
0.000000	119.892195
0.010000	184.877667
0.020000	193.702927
0.030000	206.778144
0.040000	223.178528
0.050000	242.937623
0.060000	257.887609
0.070000	270.381639
0.080000	287.197451
0.090000	307.392692
0.100000	332.435114
0.110000	343.936706
0.120000	354.678844
0.130000	361.690871
0.140000	373.206383
0.150000	388.673561
0.160000	403.976407
0.170000	423.598427
0.180000	430.271523
0.190000	411.454053
0.200000	363.174230
0.210000	298.607099
0.220000	234.670478
0.230000	181.992397
0.240000	143.060159
0.250000	121.964155
0.260000	103.645566
0.270000	86.220013
0.280000	66.474833
0.290000	61.445251
0.300000	61.143240
0.310000	54.580697
0.320000	41.754364
0.330000	23.296694
0.340000	5.626444
0.350000	-14.435683
0.360000	-32.235717
0.370000	-42.923686
0.380000	-50.879802
0.390000	-52.480020
0.400000	-48.961294
0.410000	-41.794795
0.420000	-29.459441
0.430000	-19.559915
0.440000	-10.023362
0.450000	-7.441595
0.460000	-11.661927
0.470000	-33.112578
0.480000	-60.334359
0.490000	-90.234262
0.500000	-108.738093
0.510000	-123.176605
0.520000	-140.569914
0.530000	-159.859437
0.540000	-180.833811
0.550000	-188.264510
0.560000	-183.239746
0.570000	-179.468537
0.580000	-205.785247
0.590000	-267.038440
0.600000	-340.019171
0.610000	-402.376583
0.620000	-461.099958
0.630000	-517.799955
0.640000	-565.591136
0.650000	-596.989129
0.660000	-620.226646
0.670000	-636.594113
0.680000	-640.277898
0.690000	-631.985970
0.700000	-629.144397
0.710000	-642.796657
0.720000	-658.711533
0.730000	-670.399020
0.740000	-676.396576
0.750000	-688.475511
0.760000	-698.799225
0.770000	-709.350774
0.780000	-722.307878
0.790000	-741.335924
0.800000	-753.543854
0.810000	-755.787631
0.820000	-762.267572
0.830000	-770.634301
0.840000	-781.774237
0.850000	-788.232426
0.860000	-796.761255
0.870000	-807.587586
0.880000	-811.831843
0.890000	-809.743353
0.900000	-789.645488
0.910000	-759.729777
0.920000	-732.915141
0.930000	-726.170613
0.940000	-741.253229
0.950000	-756.658029
0.960000	-768.416871
0.970000	-784.957124
0.980000	-823.382218
0.990000	-880.979907
1.000000	-952.786391
1.010000	-1036.789367
1.020000	-1131.303588
1.030000	-1221.007045
1.040000	-1300.961854
1.050000	-1372.354293
1.060000	-1431.051787
1.070000	-1475.488385
1.080000	-1500.244441
1.090000	-1522.798845
1.100000	-1555.202488
1.110000	-1596.186504
1.120000	-1639.594366
1.130000	-1678.352365
1.140000	-1718.803938
1.150000	-1761.951174
1.160000	-1806.120546
1.170000	-1851.001535
1.180000	-1890.870172
1.190000	-1917.827208
1.200000	-1938.440877
1.210000	-1955.757927
1.220000	-1965.773631
1.230000	-1970.820824
1.240000	-1973.889635
1.250000	-1989.028869
1.260000	-2006.388089
1.270000	-2010.670013
1.280000	-2000.038199
1.290000	-1982.786948
1.300000	-1979.503305
1.310000	-1992.969466
1.320000	-2012.378815
1.330000	-2029.941227
1.340000	-2046.391915
1.350000	-2058.349059
1.360000	-2064.190419
1.370000	-2072.231267
1.380000	-2100.796664
1.390000	-2154.522614
1.400000	-2216.791077
1.410000	-2285.299617
1.420000	-2356.895940
1.430000	-2424.177496
1.440000	-2471.757843
1.450000	-2494.528980
1.460000	-2511.798569
1.470000	-2531.293459
1.480000	-2554.600259
1.490000	-2569.798344
1.500000	-2578.549752
1.510000	-2585.755602
1.520000	-2602.960597
1.530000	-2627.449744
1.540000	-2654.809089
1.550000	-2678.245912
1.560000	-2691.767901
1.570000	-2697.171141
1.580000	-2698.841026
1.590000	-2701.871698
1.600000	-2711.353684
1.610000	-2717.303208
1.620000	-2718.662678
1.630000	-2713.169341
1.640000	-2701.416881
1.650000	-2692.829837
1.660000	-2691.927113
1.670000	-2704.596308
1.680000	-2716.149075
1.690000	-2722.158550
1.700000	-2716.466532
1.710000	-2707.861407
1.720000	-2698.865635
1.730000	-2689.321702
1.740000	-2676.688919
1.750000	-2664.227900
1.760000	-2648.589914
1.770000	-2640.267189
1.780000	-2641.228432
1.790000	-2671.783630
1.800000	-2739.925726
1.810000	-2828.990766
1.820000	-2920.375236
1.830000	-2986.596835
1.840000	-3026.653220
1.850000	-3048.983655
1.860000	-3059.010125
1.870000	-3061.120547
1.880000	-3054.772084
1.890000	-3042.683994
1.900000	-3030.291411
1.910000	-3021.993466
1.920000	-3026.236332
1.930000	-3036.007212
1.940000	-3051.947916
1.950000	-3067.746383
1.960000	-3092.779313
1.970000	-3116.840673
1.980000	-3131.356257
1.990000	-3131.351389
2.000000	-3122.033163
2.010000	-3113.613284
2.020000	-3106.084854
2.030000	-3097.605052
2.040000	-3093.890934
2.050000	-3104.004994
2.060000	-3121.050840
2.070000	-3136.129079
2.080000	-3137.263910
2.090000	-3132.368016
2.100000	-3120.511514
2.110000	-3100.998327
2.120000	-3079.833479
2.130000	-3065.356206
2.140000	-3068.883296
2.150000	-3082.713358
2.160000	-3098.314150
2.170000	-3108.790117
2.180000	-3113.141416
2.190000	-3125.286490
2.200000	-3157.340773
2.210000	-3218.149306
2.220000	-3292.514551
2.230000	-3364.716151
2.240000	-3412.039572
2.250000	-3434.380520
2.260000	-3445.302504
2.270000	-3460.081558
2.280000	-3477.550479
2.290000	-3483.441704
2.300000	-3480.872821
2.310000	-3472.826271
2.320000	-3475.253729
2.330000	-3489.190947
2.340000	-3512.979758
2.350000	-3535.212786
2.360000	-3549.067050
2.370000	-3557.608502
2.380000	-3571.854252
2.390000	-3588.975594
2.400000	-3605.981725
2.410000	-3609.653263
2.420000	-3610.511007
2.430000	-3613.650547
2.440000	-3617.688228
2.450000	-3622.982885
2.460000	-3619.498344
2.470000	-3620.705719
2.480000	-3620.578638
2.490000	-3625.784923
2.500000	-3632.282106
2.510000	-3639.858303
2.520000	-3645.626255
2.530000	-3646.911314
2.540000	-3650.974402
2.550000	-3660.258775
2.560000	-3672.615234
2.570000	-3677.887135
2.580000	-3683.605110
2.590000	-3692.801152
2.600000	-3712.568344
2.610000	-3751.010986
2.620000	-3817.826472
2.630000	-3954.930620
2.640000	-4104.763457
2.650000	-4198.769535
2.660000	-4203.075901
2.670000	-4169.454574
2.680000	-4148.994692
2.690000	-3996.539471
2.700000	-3765.728973
2.710000	-3588.439317
2.720000	-3529.877439
2.730000	-3483.461838
2.740000	-3297.159423
2.750000	-3070.430621
2.760000	-2879.964857
2.770000	-2731.454183
2.780000	-2537.427959
2.790000	-2159.247839
2.800000	-1554.768643
2.810000	-656.517815
2.820000	508.508813
2.830000	1771.019143
2.840000	3093.542195
2.850000	4470.011924
2.860000	5797.998443
2.870000	6994.795503
2.880000	7964.371367
2.890000	8496.311701
2.900000	8498.261723
2.910000	7965.994487
2.920000	7013.243079
2.930000	6242.281609
2.940000	5570.487682
2.950000	4889.965776
2.960000	4085.578716
2.970000	3420.737923
2.980000	2975.521242
2.990000	2762.969459
3.000000	2670.215059
3.010000	2664.571152
3.020000	2721.082448
3.030000	2810.315264
3.040000	2884.723845
3.050000	2962.733343
3.060000	3046.816533
3.070000	3164.718253
3.080000	3293.603347
3.090000	3446.971618
3.100000	3576.725229
3.110000	3686.206087
3.120000	3752.951606
3.130000	3819.128962
3.140000	3839.450849
3.150000	3859.483252
3.160000	3850.931229
3.170000	3883.626489
3.180000	3889.888767
3.190000	3915.270959
3.200000	3895.737568
3.210000	3926.881452
3.220000	3922.282695
3.230000	3959.808030
3.240000	3930.514858
3.250000	3963.256425
3.260000	3947.292868
3.270000	4024.604700
3.280000	4055.504851
3.290000	4284.216816
3.300000	4582.571882
3.310000	5168.021832
3.320000	6591.650455
3.330000	8376.615335
3.340000	11302.653844
3.350000	14648.268393
3.360000	17954.703632
3.370000	19380.460967
3.380000	20056.277889
3.390000	19646.698445
3.400000	9927.988359
3.410000	9377.126669
3.420000	8903.235953
3.430000	8704.170702
3.440000	8293.337486
3.450000	8106.980431
3.460000	7758.076276
3.470000	7593.037004
3.480000	7291.884453
3.490000	7137.984269
3.500000	6871.768825
3.510000	6720.837439
3.520000	6473.682103
3.530000	6323.370459
3.540000	6110.195441
3.550000	5984.323844
3.560000	5807.820344
3.570000	5695.207028
3.580000	5549.099811
3.590000	5471.875589
3.600000	5371.415237
3.610000	5307.865921
3.620000	5204.257654
3.630000	5131.165091
3.640000	5029.982163
3.650000	4938.632887
3.660000	4815.057061
3.670000	4711.596575
3.680000	4610.175000
3.690000	4546.611221
3.700000	4481.656139
3.710000	4427.670082
3.720000	4355.258118
3.730000	4284.433200
3.740000	4213.368336
3.750000	4157.478208
3.760000	4102.631553
3.770000	4039.436638
3.780000	3938.740464
3.790000	3809.733222
3.800000	3650.384243
3.810000	3488.343166
3.820000	3323.516463
3.830000	3188.607272
3.840000	3077.772984
3.850000	2996.799552
3.860000	2919.169731
3.870000	2848.302363
3.880000	2777.098574
3.890000	2714.743540
3.900000	2643.178870
3.910000	2564.131293
3.920000	2473.802163
3.930000	2390.470444
3.940000	2309.920339
3.950000	2232.711937
3.960000	2154.246110
3.970000	2078.197112
3.980000	1997.428997
3.990000	1904.901858
4.000000	1809.540861
4.010000	1726.173752
4.020000	1666.527606
4.030000	1621.938824
4.040000	1589.411543
4.050000	1562.241098
4.060000	1536.516294
4.070000	1503.408752
4.080000	1459.848146
4.090000	1408.469084
4.100000	1350.719462
4.110000	1305.452319
4.120000	1283.776971
4.130000	1286.279800
4.140000	1296.326011
4.150000	1292.632351
4.160000	1278.479350
4.170000	1258.190254
4.180000	1241.849986
4.190000	1226.579663
4.200000	1199.726520
4.210000	1156.522429
4.220000	1088.122509
4.230000	999.031456
4.240000	899.395858
4.250000	803.078149
4.260000	723.527790
4.270000	662.952600
4.280000	615.160865
4.290000	570.340227
4.300000	524.665742
4.310000	484.944647
4.320000	456.018373
4.330000	426.021894
4.340000	388.236073
4.350000	334.611978
4.360000	284.377398
4.370000	237.998120
4.380000	193.358101
4.390000	141.878525
4.400000	81.534361
4.410000	30.323690
4.420000	-6.148109
4.430000	-18.379596
4.440000	-24.399807
4.450000	-27.202993
4.460000	-32.822382
4.470000	-37.830730
4.480000	-43.756686
4.490000	-49.951730
4.500000	-53.518514
4.510000	-57.256536
4.520000	-60.774196
4.530000	-66.740157
4.540000	-79.539459
4.550000	-91.697195
4.560000	-100.157306
4.570000	-98.152276
4.580000	-99.006362
4.590000	-97.734215
4.600000	-95.717843
4.610000	-83.799931
4.620000	-73.332830
4.630000	-84.070350
4.640000	-123.764268
4.650000	-191.835086
4.660000	-274.343996
4.670000	-366.143401
4.680000	-458.099993
4.690000	-540.973084
4.700000	-600.030348
4.710000	-641.049649
4.720000	-654.109237
4.730000	-659.735933
4.740000	-656.321183
4.750000	-652.311448
4.760000	-651.048481
4.770000	-654.413409
4.780000	-667.984137
4.790000	-680.334615
4.800000	-685.468394
4.810000	-688.487730
4.820000	-692.817200
4.830000	-697.833277
4.840000	-698.023853
4.850000	-687.717379
4.860000	-669.125531
4.870000	-644.810193
4.880000	-618.773287
4.890000	-599.124112
4.900000	-590.956951
4.910000	-591.294411
4.920000	-587.995017
4.930000	-572.020492
4.940000	-545.278088
4.950000	-510.297571
4.960000	-470.112840
4.970000	-431.803730
4.980000	-403.502788
4.990000	-379.491817
5.000000	-353.111116
5.010000	-324.420321
5.020000	-302.634209
5.030000	-284.204378
5.040000	-258.696652
5.050000	-236.939417
5.060000	-236.003140
5.070000	-267.219910
5.080000	-321.148099
5.090000	-382.046274
5.100000	-439.872866
5.110000	-481.094842
5.120000	-503.862488
5.130000	-505.040283
5.140000	-492.784496
5.150000	-475.889812
5.160000	-454.586276
5.170000	-431.316339
5.180000	-413.974907
5.190000	-408.978300
5.200000	-416.252826
5.210000	-422.512030
5.220000	-429.480977
5.230000	-434.610632
5.240000	-442.974281
5.250000	-458.618235
5.260000	-477.023481
5.270000	-492.870657
5.280000	-493.634168
5.290000	-484.086127
5.300000	-466.822005
5.310000	-451.237656
5.320000	-441.580663
5.330000	-442.977473
5.340000	-445.217317
5.350000	-443.987852
5.360000	-439.120617
5.370000	-433.596380
5.380000	-428.275159
5.390000	-418.113324
5.400000	-414.734335
5.410000	-416.520314
5.420000	-416.439277
5.430000	-408.859339
5.440000	-390.078593
5.450000	-368.829135
5.460000	-354.650960
5.470000	-361.409184
5.480000	-403.824926
5.490000	-465.838144
5.500000	-533.940221
5.510000	-586.179100
5.520000	-617.036704
5.530000	-637.502306
5.540000	-651.050314
5.550000	-670.456345
5.560000	-681.930428
5.570000	-677.032057
5.580000	-659.117431
5.590000	-635.226543
5.600000	-620.268870
5.610000	-611.315686
5.620000	-607.704341
5.630000	-605.006448
5.640000	-597.749722
5.650000	-588.332417
5.660000	-575.733445
5.670000	-567.965069
5.680000	-565.646201
5.690000	-561.860494
5.700000	-547.503879
5.710000	-521.396071
5.720000	-497.355260
5.730000	-480.862042
5.740000	-463.121507
5.750000	-440.964983
5.760000	-418.195863
5.770000	-392.674667
5.780000	-366.572558
5.790000	-329.641507
5.800000	-298.648816
5.810000	-271.516043
5.820000	-251.700497
5.830000	-236.668435
5.840000	-211.346134
5.850000	-189.195019
5.860000	-166.240454
5.870000	-162.752183
5.880000	-177.039198
5.890000	-207.608716
5.900000	-248.458463
5.910000	-283.738521
5.920000	-320.240980
5.930000	-342.776427
5.940000	-353.039087
5.950000	-348.439192
5.960000	-340.513357
5.970000	-339.402892
5.980000	-334.903915
5.990000	-328.036986
6.000000	-319.935077
6.010000	-316.993223
6.020000	-325.607993
6.030000	-343.902543
6.040000	-365.912878
6.050000	-388.797687
6.060000	-400.838011
6.070000	-405.713805
6.080000	-398.719506
6.090000	-397.337635
6.100000	-399.193941
6.110000	-404.282821
6.120000	-405.297207
6.130000	-402.230978
6.140000	-404.743973
6.150000	-400.770445
6.160000	-396.893632
6.170000	-381.579179
6.180000	-367.763553
6.190000	-360.687178
6.200000	-355.593769
6.210000	-348.118017
6.220000	-330.069256
6.230000	-311.588994
6.240000	-297.854905
6.250000	-291.042860
6.260000	-282.268646
6.270000	-265.162772
6.280000	-242.366943
6.290000	-232.654126
6.300000	-236.074949
6.310000	-251.804870
6.320000	-275.769818
6.330000	-312.977002
6.340000	-362.445343
6.350000	-410.445210
6.360000	-442.784675
6.370000	-457.278791
6.380000	-465.829072
6.390000	-472.090076
6.400000	-477.869395
6.410000	-477.549271
6.420000	-478.614647
6.430000	-485.670131
6.440000	-503.363558
6.450000	-521.420842
6.460000	-537.806556
6.470000	-547.167855
6.480000	-553.614911
6.490000	-557.912328
6.500000	-556.752676
6.510000	-557.694514
6.520000	-560.210038
6.530000	-568.164507
6.540000	-574.981728
6.550000	-576.317565
6.560000	-574.449128
6.570000	-576.495366
6.580000	-582.576001
6.590000	-591.348428
6.600000	-596.034463
6.610000	-598.572522
6.620000	-613.876225
6.630000	-640.098810
6.640000	-660.358815
6.650000	-662.654514
6.660000	-644.216663
6.670000	-620.945279
6.680000	-598.731351
6.690000	-584.924922
6.700000	-590.942617
6.710000	-611.544761
6.720000	-658.553886
6.730000	-724.130933
6.740000	-796.174305
6.750000	-856.722385
6.760000	-905.197694
6.770000	-941.002848
6.780000	-962.240415
6.790000	-965.302012
6.800000	-962.016094
6.810000	-965.963703
6.820000	-971.430304
6.830000	-975.324601
6.840000	-974.202682
6.850000	-979.084824
6.860000	-991.308521
6.870000	-1005.186259
6.880000	-1015.443109
6.890000	-1016.982906
6.900000	-1014.633441
6.910000	-1011.470320
6.920000	-1008.514127
6.930000	-1012.001804
6.940000	-1014.052854
6.950000	-1012.579749
6.960000	-997.935095
6.970000	-973.224051
6.980000	-949.537650
6.990000	-931.883734
7.000000	-923.835388
7.010000	-916.876366
7.020000	-906.176427
7.030000	-890.579285
7.040000	-866.544794
7.050000	-843.351626
7.060000	-829.612548
7.070000	-823.463404
7.080000	-816.363835
7.090000	-796.936244
7.100000	-778.218014
7.110000	-780.130803
7.120000	-808.402991
7.130000	-863.012981
7.140000	-926.911573
7.150000	-985.271924
7.160000	-1031.814576
7.170000	-1054.553082
7.180000	-1064.151283
7.190000	-1057.501506
7.200000	-1043.225555
7.210000	-1025.142340
7.220000	-1001.991724
7.230000	-983.185237
7.240000	-968.103327
7.250000	-960.279418
7.260000	-956.235770
7.270000	-959.767219
7.280000	-977.082028
7.290000	-1004.267944
7.300000	-1030.951458
7.310000	-1043.467402
7.320000	-1037.888924
7.330000	-1015.054751
7.340000	-981.216229
7.350000	-937.670294
7.360000	-892.938672
7.370000	-852.319095
7.380000	-816.691239
7.390000	-780.659728
7.400000	-742.830664
7.410000	-717.419230
7.420000	-690.602537
7.430000	-667.607298
7.440000	-637.706954
7.450000	-609.558409
7.460000	-584.501186
7.470000	-559.875218
7.480000	-542.030281
7.490000	-527.542062
7.500000	-533.325545
7.510000	-563.885213
7.520000	-614.639667
7.530000	-672.248203
7.540000	-730.350270
7.550000	-779.981425
7.560000	-812.104795
7.570000	-827.452332
7.580000	-838.602774
7.590000	-848.608045
7.600000	-851.787793
7.610000	-844.814624
7.620000	-837.720615
7.630000	-836.053366
7.640000	-842.690614
7.650000	-852.648383
7.660000	-859.033257
7.670000	-860.971169
7.680000	-859.425526
7.690000	-856.675486
7.700000	-852.522237
7.710000	-843.080920
7.720000	-829.677824
7.730000	-811.525093
7.740000	-797.571342
7.750000	-790.329418
7.760000	-783.150827
7.770000	-773.188608
7.780000	-763.123209
7.790000	-754.422135
7.800000	-741.119456
7.810000	-724.051904
7.820000	-709.508174
7.830000	-697.709103
7.840000	-692.952113
7.850000	-696.401648
7.860000	-705.095254
7.870000	-709.453136
7.880000	-707.636687
7.890000	-715.597089
7.900000	-734.848642
7.910000	-768.789622
7.920000	-808.068879
7.930000	-852.049277
7.940000	-887.297041
7.950000	-910.713603
7.960000	-918.232035
7.970000	-919.458177
7.980000	-919.196399
7.990000	-916.897125
8.000000	-911.869305
8.010000	-903.043813
8.020000	-898.609591
8.030000	-896.203303
8.040000	-895.396805
8.050000	-892.729233
8.060000	-892.580141
8.070000	-887.931593
8.080000	-880.829244
8.090000	-867.157704
8.100000	-854.818487
8.110000	-840.727233
8.120000	-824.856168
8.130000	-804.997263
8.140000	-784.615694
8.150000	-760.287736
8.160000	-733.093383
8.170000	-705.621239
8.180000	-679.607372
8.190000	-654.653938
8.200000	-626.147920
8.210000	-596.075973
8.220000	-562.381642
8.230000	-534.901353
8.240000	-508.945877
8.250000	-486.782640
8.260000	-457.176215
8.270000	-429.088978
8.280000	-408.099886
8.290000	-410.460300
8.300000	-432.671360
8.310000	-469.862946
8.320000	-505.244891
8.330000	-530.991378
8.340000	-543.196719
8.350000	-540.828262
8.360000	-534.213335
8.370000	-525.342191
8.380000	-518.602835
8.390000	-502.177590
8.400000	-483.410624
8.410000	-462.358310
8.420000	-454.626130
8.430000	-451.169341
8.440000	-446.214972
8.450000	-437.353624
8.460000	-424.172975
8.470000	-412.251029
8.480000	-393.122064
8.490000	-373.552916
8.500000	-347.732236
8.510000	-324.590573
8.520000	-299.667221
8.530000	-273.336078
8.540000	-244.960309
8.550000	-214.777839
8.560000	-190.634452
8.570000	-161.527629
8.580000	-134.383937
8.590000	-104.604831
8.600000	-85.875674
8.610000	-66.637698
8.620000	-45.419751
8.630000	-18.020665
8.640000	11.990936
8.650000	42.911296
8.660000	80.732937
8.670000	112.100662
8.680000	141.167271
8.690000	154.218903
8.700000	157.635108
8.710000	147.621215
8.720000	128.771701
8.730000	112.020351
8.740000	100.533403
8.750000	100.073424
8.760000	109.255978
8.770000	118.752207
8.780000	127.983811
8.790000	140.423703
8.800000	161.699507
8.810000	181.032441
8.820000	193.747963
8.830000	198.299455
8.840000	203.809097
8.850000	212.197084
8.860000	222.178844
8.870000	237.760345
8.880000	252.170443
8.890000	269.003878
8.900000	287.134559
8.910000	308.909446
8.920000	330.735199
8.930000	354.483206
8.940000	376.306992
8.950000	400.065325
8.960000	421.844971
8.970000	440.309054
8.980000	459.719861
8.990000	474.848576
9.000000	495.290989
9.010000	513.329725
9.020000	534.554832
9.030000	557.782083
9.040000	577.129236
9.050000	596.919580
9.060000	617.683972
9.070000	641.719648
9.080000	656.188491
9.090000	649.514833
9.100000	626.730566
9.110000	595.643205
9.120000	563.597217
9.130000	532.750126
9.140000	507.797243
9.150000	494.520041
9.160000	486.290133
9.170000	484.305334
9.180000	481.755173
9.190000	490.803814
9.200000	497.810668
9.210000	503.336217
9.220000	503.181594
9.230000	500.551038
9.240000	499.216410
9.250000	495.073465
9.260000	496.949553
9.270000	502.561756
9.280000	508.676699
9.290000	515.055114
9.300000	521.066506
9.310000	526.547045
9.320000	529.782901
9.330000	535.387417
9.340000	546.158921
9.350000	554.196557
9.360000	559.555152
9.370000	566.348742
9.380000	576.945351
9.390000	586.145770
9.400000	594.015831
9.410000	605.288293
9.420000	616.730629
9.430000	625.765660
9.440000	636.797826
9.450000	653.240368
9.460000	671.846965
9.470000	678.351878
9.480000	671.933594
9.490000	647.117997
9.500000	606.376254
9.510000	560.574868
9.520000	521.823501
9.530000	493.341970
9.540000	473.592467
9.550000	455.094338
9.560000	441.393440
9.570000	430.500020
9.580000	424.206779
9.590000	423.238203
9.600000	421.670748
9.610000	411.974314
9.620000	395.829137
9.630000	377.720700
9.640000	365.666575
9.650000	357.441743
9.660000	351.174545
9.670000	350.180030
9.680000	352.337352
9.690000	352.914345
9.700000	351.181114
9.710000	350.663739
9.720000	351.017728
9.730000	351.415379
9.740000	347.515019
9.750000	350.212619
9.760000	350.628493
9.770000	357.060952
9.780000	355.350945
9.790000	358.655046
9.800000	361.025070
9.810000	367.951442
9.820000	382.028863
9.830000	392.548989
9.840000	411.432564
9.850000	424.412429
9.860000	439.568857
9.870000	436.869929
9.880000	411.083795
9.890000	357.333118
9.900000	291.326707
9.910000	227.798442
9.920000	173.218448
9.930000	129.255483
9.940000	96.111107
9.950000	77.393536
9.960000	61.968302
9.970000	44.552731
9.980000	33.534821
9.990000	25.685165
10.000000	16.770435
10.010000	3.492060
10.020000	-17.990173
10.030000	-34.983668
10.040000	-55.468887
10.050000	-73.749785
10.060000	-89.623938
10.070000	-99.166889
10.080000	-98.774371
10.090000	-91.597009
10.100000	-82.925103
10.110000	-74.678919
10.120000	-66.731217
10.130000	-58.420325
10.140000	-51.204072
10.150000	-44.483626
10.160000	-35.999868
10.170000	-23.875432
10.180000	-8.796784
10.190000	4.393981
10.200000	20.438633
10.210000	31.635272
10.220000	44.719804
10.230000	59.864679
10.240000	76.672264
10.250000	97.106805
10.260000	113.939082
10.270000	122.696153
10.280000	109.519817
10.290000	69.315976
10.300000	13.819886
10.310000	-46.728490
10.320000	-102.541428
10.330000	-154.462257
10.340000	-188.187870
10.350000	-208.575335
10.360000	-221.162827
10.370000	-231.682214
10.380000	-239.446712
10.390000	-235.426021
10.400000	-232.450436
10.410000	-232.132100
10.420000	-239.122207
10.430000	-248.805709
10.440000	-254.447751
10.450000	-258.163165
10.460000	-259.425524
10.470000	-261.189609
10.480000	-256.702669
10.490000	-251.575985
10.500000	-251.305408
10.510000	-261.956439
10.520000	-279.205394
10.530000	-286.295125
10.540000	-283.811994
10.550000	-266.276057
10.560000	-249.803411
10.570000	-238.549567
10.580000	-235.115912
10.590000	-233.792190
10.600000	-224.742279
10.610000	-214.404630
10.620000	-207.355231
10.630000	-199.986210
10.640000	-186.620701
10.650000	-164.567439
10.660000	-142.909873
10.670000	-127.798552
10.680000	-116.833411
10.690000	-118.049420
10.700000	-139.748685
10.710000	-180.598069
10.720000	-230.296816
10.730000	-279.807580
10.740000	-322.174628
10.750000	-351.677687
10.760000	-364.715365
10.770000	-367.231014
10.780000	-363.909548
10.790000	-348.410859
10.800000	-319.775201
10.810000	-287.275392
10.820000	-260.297639
10.830000	-244.118332
10.840000	-235.787062
10.850000	-237.631900
10.860000	-245.581588
10.870000	-251.790997
10.880000	-256.721368
10.890000	-252.583084
10.900000	-239.204264
10.910000	-215.361016
10.920000	-192.711150
10.930000	-182.125266
10.940000	-175.821824
10.950000	-167.548603
10.960000	-154.931236
10.970000	-142.645927
10.980000	-132.019269
10.990000	-118.046881
11.000000	-98.769883
11.010000	-77.783837
11.020000	-59.175788
11.030000	-44.500976
11.040000	-29.218616
11.050000	-10.208877
11.060000	12.409608
11.070000	29.739196
11.080000	45.753410
11.090000	49.994663
11.100000	45.147143
11.110000	27.580097
11.120000	1.242477
11.130000	-28.482945
11.140000	-61.328513
11.150000	-84.162792
11.160000	-94.580962
11.170000	-92.835127
11.180000	-87.173759
11.190000	-83.151644
11.200000	-79.064725
11.210000	-69.108195
11.220000	-61.645761
11.230000	-58.698340
11.240000	-68.227319
11.250000	-74.540915
11.260000	-72.488414
11.270000	-66.727537
11.280000	-61.398385
11.290000	-62.235358
11.300000	-54.568990
11.310000	-43.781449
11.320000	-30.041659
11.330000	-20.329149
11.340000	-7.123930
11.350000	10.789891
11.360000	25.118550
11.370000	39.960650
11.380000	51.356726
11.390000	72.195660
11.400000	88.873593
11.410000	108.840095
11.420000	128.043952
11.430000	150.525311
11.440000	171.876476
11.450000	187.228104
11.460000	203.426834
11.470000	222.937993
11.480000	242.647804
11.490000	247.634859
11.500000	234.586871
11.510000	209.376636
11.520000	183.561369
11.530000	154.766764
11.540000	130.583316
11.550000	114.499171
11.560000	111.964329
11.570000	113.878753
11.580000	125.405114
11.590000	146.932619
11.600000	179.869552
11.610000	207.290442
11.620000	222.717122
11.630000	227.691522
11.640000	227.262342
11.650000	229.789836
11.660000	234.470652
11.670000	243.919248
11.680000	255.352632
11.690000	275.764121
11.700000	295.544401
11.710000	311.983447
11.720000	323.762272
11.730000	335.909261
11.740000	354.338404
11.750000	373.492838
11.760000	385.932066
11.770000	394.126439
11.780000	400.214385
11.790000	412.466547
11.800000	415.788955
11.810000	410.873194
11.820000	405.740261
11.830000	414.987927
11.840000	437.003817
11.850000	466.115028
11.860000	498.629746
11.870000	521.907891
11.880000	526.621851
11.890000	506.733605
11.900000	482.376386
11.910000	455.867664
11.920000	438.847195
11.930000	427.650415
11.940000	433.382686
11.950000	444.394835
11.960000	449.944881
11.970000	451.530464
11.980000	454.207820
11.990000	463.692246
12.000000	468.782008
12.010000	472.250158
12.020000	474.708037
12.030000	481.512245
12.040000	492.978054
12.050000	511.805403
12.060000	531.580915
12.070000	555.817050
12.080000	577.847058
12.090000	602.217410
12.100000	627.454590
12.110000	650.972641
12.120000	674.097456
12.130000	690.732071
12.140000	708.469167
12.150000	727.495725
12.160000	746.193802
12.170000	766.293100
12.180000	787.938584
12.190000	810.446001
12.200000	832.372382
12.210000	849.615992
12.220000	871.868413
12.230000	891.429177
12.240000	909.747147
12.250000	913.225217
12.260000	903.023859
12.270000	879.041832
12.280000	845.001702
12.290000	810.565303
12.300000	778.651479
12.310000	755.789049
12.320000	740.636567
12.330000	733.708048
12.340000	728.960360
12.350000	730.678681
12.360000	734.282951
12.370000	738.347670
12.380000	733.941157
12.390000	728.417487
12.400000	718.258797
12.410000	715.218401
12.420000	711.879459
12.430000	711.069643
12.440000	709.839624
12.450000	709.955714
12.460000	717.165770
12.470000	722.155293
12.480000	731.222838
12.490000	732.994195
12.500000	737.359323
12.510000	741.819898
12.520000	753.542992
12.530000	767.967164
12.540000	779.076240
12.550000	789.157271
12.560000	801.632433
12.570000	817.694201
12.580000	834.196103
12.590000	851.593528
12.600000	866.100397
12.610000	878.858428
12.620000	882.332660
12.630000	870.144725
12.640000	838.590238
12.650000	787.458333
12.660000	733.578738
12.670000	687.104120
12.680000	650.897465
12.690000	625.760887
12.700000	605.212544
12.710000	587.112318
12.720000	571.215281
12.730000	557.479802
12.740000	538.880701
12.750000	507.860722
12.760000	469.595689
12.770000	430.592922
12.780000	399.330068
12.790000	376.985407
12.800000	369.758257
12.810000	361.663329
12.820000	346.559532
12.830000	322.364792
12.840000	299.406960
12.850000	287.743922
12.860000	287.237798
12.870000	300.140699
12.880000	314.373357
12.890000	330.248594
12.900000	348.854459
12.910000	371.366472
12.920000	392.995247
12.930000	407.823645
12.940000	416.830356
12.950000	417.613234
12.960000	415.360999
12.970000	415.410898
12.980000	420.558640
12.990000	429.537691
13.000000	431.068708
13.010000	414.672915
13.020000	370.920858
13.030000	307.193142
13.040000	234.454647
13.050000	177.756815
13.060000	137.592032
13.070000	119.003659
13.080000	100.660606
13.090000	81.308898
13.100000	65.748680
13.110000	55.607917
13.120000	57.519279
13.130000	59.858524
13.140000	59.648313
13.150000	45.420113
13.160000	19.816693
13.170000	-2.317912
13.180000	-17.379305
13.190000	-28.742330
13.200000	-44.589447
13.210000	-77.179265
13.220000	-118.746295
13.230000	-163.958301
13.240000	-188.185940
13.250000	-191.140369
13.260000	-179.314103
13.270000	-168.351175
13.280000	-165.422976
13.290000	-161.187651
13.300000	-147.874228
13.310000	-127.389144
13.320000	-105.006876
13.330000	-82.252858
13.340000	-68.834886
13.350000	-69.776966
13.360000	-80.309626
13.370000	-83.608631
13.380000	-73.153701
13.390000	-62.837764
13.400000	-58.985427
13.410000	-79.774927
13.420000	-122.435454
13.430000	-187.062835
13.440000	-265.205243
13.450000	-331.982560
13.460000	-377.694025
13.470000	-390.240027
13.480000	-377.582599
13.490000	-344.834718
13.500000	-297.484275
13.510000	-254.813055
13.520000	-234.728287
13.530000	-237.422532
13.540000	-260.979984
13.550000	-284.326544
13.560000	-297.275752
13.570000	-297.600260
13.580000	-302.305864
13.590000	-328.890520
13.600000	-371.286781
13.610000	-406.483442
13.620000	-419.305421
13.630000	-410.804129
13.640000	-391.032310
13.650000	-370.142276
13.660000	-345.742256
13.670000	-318.840928
13.680000	-286.125151
13.690000	-250.575335
13.700000	-230.569120
13.710000	-238.980390
13.720000	-267.975624
13.730000	-287.343704
13.740000	-277.096903
13.750000	-253.493572
13.760000	-242.933343
13.770000	-256.956907
13.780000	-286.735083
13.790000	-321.770541
13.800000	-355.569665
13.810000	-399.990055
13.820000	-458.737630
13.830000	-525.872473
13.840000	-580.554358
13.850000	-602.111997
13.860000	-610.840529
13.870000	-624.368068
13.880000	-651.125589
13.890000	-667.560718
13.900000	-665.143267
13.910000	-666.196400
13.920000	-683.159015
13.930000	-708.469289
13.940000	-717.152666
13.950000	-714.517997
13.960000	-702.162342
13.970000	-685.269682
13.980000	-672.875958
13.990000	-671.708620
14.000000	-678.923772
14.010000	-673.458224
14.020000	-652.382316
14.030000	-612.902675
14.040000	-570.585970
14.050000	-544.050396
14.060000	-542.124493
14.070000	-547.822504
14.080000	-539.345279
14.090000	-511.001194
14.100000	-479.657220
14.110000	-454.855814
14.120000	-440.984565
14.130000	-426.362710
14.140000	-397.336408
14.150000	-355.942791
14.160000	-310.736411
14.170000	-284.258382
14.180000	-282.120510
14.190000	-312.277833
14.200000	-365.822547
14.210000	-432.658433
14.220000	-483.837377
14.230000	-508.453312
14.240000	-504.240817
14.250000	-488.333168
14.260000	-479.346840
14.270000	-479.199143
14.280000	-480.459315
14.290000	-470.081963
14.300000	-459.003391
14.310000	-459.668124
14.320000	-466.196465
14.330000	-466.603636
14.340000	-458.114410
14.350000	-459.965970
14.360000	-480.368550
14.370000	-507.306012
14.380000	-519.965234
14.390000	-509.044487
14.400000	-484.648807
14.410000	-459.490478
14.420000	-433.330597
14.430000	-412.655491
14.440000	-401.706867
14.450000	-406.526183
14.460000	-420.081385
14.470000	-422.729814
14.480000	-417.218389
14.490000	-414.323235
14.500000	-421.714678
14.510000	-430.906839
14.520000	-425.891602
14.530000	-407.571589
14.540000	-385.794528
14.550000	-375.284563
14.560000	-382.710221
14.570000	-400.326233
14.580000	-423.669940
14.590000	-449.071813
14.600000	-484.697280
14.610000	-511.444333
14.620000	-527.473913
14.630000	-536.534121
14.640000	-553.984400
14.650000	-576.942474
14.660000	-586.820451
14.670000	-579.760013
14.680000	-560.047631
14.690000	-532.614773
14.700000	-507.323822
14.710000	-481.136250
14.720000	-465.675781
14.730000	-456.649517
14.740000	-449.061322
14.750000	-438.199082
14.760000	-412.463465
14.770000	-388.862737
14.780000	-371.866683
14.790000	-363.889583
14.800000	-355.606486
14.810000	-343.969153
14.820000	-336.076294
14.830000	-333.067810
14.840000	-322.878602
14.850000	-305.902767
14.860000	-283.719556
14.870000	-264.123495
14.880000	-246.238703
14.890000	-226.371795
14.900000	-214.497337
14.910000	-227.340554
14.920000	-255.720035
14.930000	-276.305634
14.940000	-266.312711
14.950000	-232.052405
14.960000	-194.982057
14.970000	-169.481433
14.980000	-168.014462
14.990000	-189.240824
15.000000	-222.723449
15.010000	-255.695336
15.020000	-277.807218
15.030000	-285.870943
15.040000	-286.953863
15.050000	-284.404327
15.060000	-288.487444
15.070000	-293.929583
15.080000	-297.394172
15.090000	-308.190673
15.100000	-330.654946
15.110000	-363.804802
15.120000	-405.948019
15.130000	-450.439508
15.140000	-497.961996
15.150000	-547.102500
15.160000	-601.691008
15.170000	-651.092987
15.180000	-681.444961
15.190000	-688.142631
15.200000	-677.596136
15.210000	-660.905366
15.220000	-650.116692
15.230000	-657.702619
15.240000	-671.268858
15.250000	-681.207324
15.260000	-683.803564
15.270000	-687.779088
15.280000	-705.380733
15.290000	-739.357419
15.300000	-789.649379
15.310000	-847.945477
15.320000	-903.610559
15.330000	-947.235676
15.340000	-971.943983
15.350000	-978.244628
15.360000	-973.327397
15.370000	-958.936764
15.380000	-962.479259
15.390000	-989.266001
15.400000	-1036.974424
15.410000	-1081.232088
15.420000	-1111.203984
15.430000	-1140.629346
15.440000	-1172.099726
15.450000	-1215.743886
15.460000	-1251.274952
15.470000	-1268.916753
15.480000	-1252.127480
15.490000	-1213.197782
15.500000	-1158.993826
15.510000	-1092.830845
15.520000	-1001.175412
15.530000	-871.828813
15.540000	-693.721054
15.550000	-478.583403
15.560000	-254.003950
15.570000	-51.040929
15.580000	117.069002
15.590000	252.517793
15.600000	361.794598
15.610000	452.387068
15.620000	522.135145
15.630000	573.577665
15.640000	604.103593
15.650000	627.121269
15.660000	643.346478
15.670000	660.326555
15.680000	677.209498
15.690000	704.539958
15.700000	741.685576
15.710000	788.064195
15.720000	828.766600
15.730000	859.595744
15.740000	885.183353
15.750000	904.757518
15.760000	911.896569
15.770000	897.891899
15.780000	867.960488
15.790000	829.344528
15.800000	787.331951
15.810000	751.455278
15.820000	723.662594
15.830000	704.876765
15.840000	688.285748
15.850000	661.931408
15.860000	620.240591
15.870000	577.688793
15.880000	539.818764
15.890000	515.436520
15.900000	493.657748
15.910000	465.170300
15.920000	427.163163
15.930000	370.201299
15.940000	313.730145
15.950000	262.173449
15.960000	234.319151
15.970000	218.377680
15.980000	215.259261
15.990000	224.561352
16.000000	248.857414
16.010000	285.046128
16.020000	318.072911
16.030000	354.908391
16.040000	394.917996
16.050000	443.771926
16.060000	493.710295
16.070000	529.933703
16.080000	547.514090
16.090000	543.752790
16.100000	531.344817
16.110000	503.837402
16.120000	466.860307
16.130000	426.240925
16.140000	392.707745
16.150000	376.962980
16.160000	370.822029
16.170000	366.337852
16.180000	352.914647
16.190000	333.736288
16.200000	322.689148
16.210000	322.088869
16.220000	334.450221
16.230000	357.079937
16.240000	378.840992
16.250000	397.749126
16.260000	400.186219
16.270000	390.788285
16.280000	371.844921
16.290000	359.184636
16.300000	359.799442
16.310000	368.534461
16.320000	384.419037
16.330000	406.203844
16.340000	434.698017
16.350000	461.501736
16.360000	480.637521
16.370000	490.131228
16.380000	489.902895
16.390000	490.778067
16.400000	497.138021
16.410000	510.404282
16.420000	531.693198
16.430000	540.291479
16.440000	523.591621
16.450000	476.520392
16.460000	416.873919
16.470000	361.066609
16.480000	316.452461
16.490000	284.250468
16.500000	270.365059
16.510000	274.739165
16.520000	287.572131
16.530000	293.533932
16.540000	285.456230
16.550000	279.714659
16.560000	278.288767
16.570000	272.520830
16.580000	254.778793
16.590000	235.030022
16.600000	216.906109
16.610000	194.835303
16.620000	172.714138
16.630000	161.648430
16.640000	169.167058
16.650000	187.073084
16.660000	205.269480
16.670000	234.877402
16.680000	265.634557
16.690000	302.377909
16.700000	328.595712
16.710000	344.579276
16.720000	352.215954
16.730000	353.101202
16.740000	365.536763
16.750000	381.204684
16.760000	401.873261
16.770000	409.575263
16.780000	398.564608
16.790000	370.955357
16.800000	338.938200
16.810000	316.327785
16.820000	298.248300
16.830000	284.367170
16.840000	271.204199
16.850000	260.408385
16.860000	255.151987
16.870000	258.436797
16.880000	260.385359
16.890000	250.450952
16.900000	227.966737
16.910000	206.825922
16.920000	191.843960
16.930000	181.169979
16.940000	182.401146
16.950000	191.135039
16.960000	212.304547
16.970000	229.695873
16.980000	247.250439
16.990000	257.880158
17.000000	272.900565
17.010000	292.019522
17.020000	311.528206
17.030000	326.809897
17.040000	344.506879
17.050000	356.880815
17.060000	373.854030
17.070000	386.553345
17.080000	405.574483
17.090000	422.159140
17.100000	430.957307
17.110000	424.077551
17.120000	392.991230
17.130000	354.050395
17.140000	312.647728
17.150000	279.690973
17.160000	250.246543
17.170000	228.676146
17.180000	215.487074
17.190000	204.294596
17.200000	198.072082
17.210000	198.561670
17.220000	203.631687
17.230000	211.147203
17.240000	205.138325
17.250000	201.137518
17.260000	189.226545
17.270000	183.177612
17.280000	176.243007
17.290000	177.913463
17.300000	177.856068
17.310000	173.989578
17.320000	163.785386
17.330000	157.417954
17.340000	150.324816
17.350000	149.194369
17.360000	152.826267
17.370000	160.956925
17.380000	175.985144
17.390000	184.659824
17.400000	190.840890
17.410000	187.983896
17.420000	192.409060
17.430000	205.583338
17.440000	224.280379
17.450000	243.493804
17.460000	243.426859
17.470000	211.406153
17.480000	159.623820
17.490000	103.308898
17.500000	59.140017
17.510000	21.799679
17.520000	-7.678027
17.530000	-18.367527
17.540000	-17.564743
17.550000	-7.873942
17.560000	-6.176236
17.570000	-10.347191
17.580000	-15.800139
17.590000	-19.844958
17.600000	-26.461806
17.610000	-41.367075
17.620000	-55.770011
17.630000	-71.939419
17.640000	-80.399280
17.650000	-84.233050
17.660000	-83.373488
17.670000	-80.220517
17.680000	-76.366003
17.690000	-68.214397
17.700000	-55.722402
17.710000	-39.564508
17.720000	-24.444258
17.730000	-9.921682
17.740000	6.484838
17.750000	22.352890
17.760000	44.083251
17.770000	67.242656
17.780000	96.685327
17.790000	117.054934
17.800000	130.981358
17.810000	137.501767
17.820000	135.588167
17.830000	112.226502
17.840000	59.185466
17.850000	-5.666526
17.860000	-62.568288
17.870000	-97.598650
17.880000	-113.724952
17.890000	-120.572389
17.900000	-129.242470
17.910000	-147.560729
17.920000	-172.754612
17.930000	-187.198810
17.940000	-190.337638
17.950000	-181.527447
17.960000	-174.651492
17.970000	-173.519475
17.980000	-187.003771
17.990000	-208.493624
18.000000	-226.032808
18.010000	-223.481179
18.020000	-209.822537
18.030000	-201.848657
18.040000	-204.939521
18.050000	-213.544831
18.060000	-213.391383
18.070000	-205.642354
18.080000	-191.201600
18.090000	-180.458446
18.100000	-179.358908
18.110000	-181.266051
18.120000	-179.542399
18.130000	-167.098710
18.140000	-149.787840
18.150000	-129.948226
18.160000	-112.065794
18.170000	-97.148243
18.180000	-94.393069
18.190000	-109.699465
18.200000	-135.710969
18.210000	-160.264621
18.220000	-179.412003
18.230000	-190.193164
18.240000	-190.476082
18.250000	-180.154810
18.260000	-174.276081
18.270000	-171.766579
18.280000	-167.091655
18.290000	-155.408169
18.300000	-141.962956
18.310000	-137.760348
18.320000	-139.155556
18.330000	-145.148078
18.340000	-143.679496
18.350000	-143.287512
18.360000	-140.532428
18.370000	-152.511996
18.380000	-168.002969
18.390000	-184.121531
18.400000	-190.147552
18.410000	-186.457191
18.420000	-180.340187
18.430000	-166.453965
18.440000	-143.907604
18.450000	-115.824400
18.460000	-84.836385
18.470000	-60.911105
18.480000	-43.098044
18.490000	-23.675487
18.500000	-4.749713
18.510000	18.215284
18.520000	28.510436
18.530000	24.450747
18.540000	-0.606346
18.550000	-38.971148
18.560000	-81.081450
18.570000	-124.442660
18.580000	-158.230622
18.590000	-185.315473
18.600000	-196.710991
18.610000	-201.936278
18.620000	-199.190841
18.630000	-193.606765
18.640000	-186.691445
18.650000	-179.974757
18.660000	-180.905816
18.670000	-191.024094
18.680000	-207.138167
18.690000	-221.759330
18.700000	-233.418148
18.710000	-240.525396
18.720000	-242.732754
18.730000	-235.979205
18.740000	-223.097625
18.750000	-207.800148
18.760000	-194.161598
18.770000	-179.968643
18.780000	-164.929054
18.790000	-147.164372
18.800000	-129.741732
18.810000	-109.374334
18.820000	-92.947413
18.830000	-82.268795
18.840000	-70.828738
18.850000	-52.863838
18.860000	-31.767121
18.870000	-13.497883
18.880000	-0.394220
18.890000	4.500765
18.900000	-14.755497
18.910000	-50.467788
18.920000	-103.505797
18.930000	-158.089486
18.940000	-212.994993
18.950000	-253.372719
18.960000	-274.544458
18.970000	-286.394987
18.980000	-297.455948
18.990000	-310.767950
19.000000	-316.029939
19.010000	-317.212623
19.020000	-313.623662
19.030000	-322.405516
19.040000	-337.853898
19.050000	-357.640300
19.060000	-371.093862
19.070000	-374.593776
19.080000	-371.051114
19.090000	-361.909251
19.100000	-350.045013
19.110000	-335.248970
19.120000	-322.753253
19.130000	-310.601682
19.140000	-301.507057
19.150000	-291.635823
19.160000	-276.625487
19.170000	-264.737381
19.180000	-250.071093
19.190000	-236.231112
19.200000	-219.863650
19.210000	-200.766220
19.220000	-182.365553
19.230000	-158.641415
19.240000	-132.257329
19.250000	-102.874372
19.260000	-80.209385
19.270000	-60.770364
19.280000	-62.252264
19.290000	-83.981854
19.300000	-132.012884
19.310000	-189.162103
19.320000	-241.147369
19.330000	-287.412597
19.340000	-315.949592
19.350000	-341.101304
19.360000	-356.728039
19.370000	-376.209412
19.380000	-389.140256
19.390000	-398.720621
19.400000	-399.561250
19.410000	-399.968447
19.420000	-405.674138
19.430000	-415.563060
19.440000	-426.814560
19.450000	-429.503668
19.460000	-428.694947
19.470000	-424.462648
19.480000	-423.625886
19.490000	-421.087539
19.500000	-413.593803
19.510000	-399.749390
19.520000	-382.605727
19.530000	-362.769588
19.540000	-342.988525
19.550000	-327.826365
19.560000	-311.374077
19.570000	-298.611161
19.580000	-280.753195
19.590000	-263.801190
19.600000	-247.145366
19.610000	-230.021925
19.620000	-215.913579
19.630000	-194.569232
19.640000	-172.759418
19.650000	-149.459249
19.660000	-126.978446
19.670000	-104.370931
19.680000	-97.607789
19.690000	-112.618792
19.700000	-148.916505
19.710000	-191.523763
19.720000	-234.279582
19.730000	-273.799743
19.740000	-302.995772
19.750000	-326.136775
19.760000	-345.068397
19.770000	-362.840104
19.780000	-375.818888
19.790000	-389.263970
19.800000	-407.262167
19.810000	-431.711055
19.820000	-458.384411
19.830000	-485.527264
19.840000	-502.511171
19.850000	-510.404366
19.860000	-508.996394
19.870000	-498.979129
19.880000	-484.519549
19.890000	-464.233566
19.900000	-443.756769
19.910000	-423.501637
19.920000	-405.024970
19.930000	-386.788901
19.940000	-370.329158
19.950000	-353.760833
19.960000	-335.996114
19.970000	-313.753831
19.980000	-292.714617
19.990000	-272.757670
20.000000	-251.119141
20.010000	-224.787279
20.020000	-200.911194
20.030000	-175.813274
20.040000	-149.405729
20.050000	-118.523270
20.060000	-89.284713
20.070000	-64.583186
20.080000	-45.517378
20.090000	-44.365578
20.100000	-59.068929
20.110000	-87.505891
20.120000	-119.289032
20.130000	-146.677888
20.140000	-168.551555
20.150000	-178.526161
20.160000	-179.864463
20.170000	-182.416239
20.180000	-186.842335
20.190000	-188.983101
20.200000	-180.498570
20.210000	-177.306251
20.220000	-197.182725
20.230000	-232.248233
20.240000	-263.525514
20.250000	-303.966839
20.260000	-372.573659
20.270000	-466.313479
20.280000	-571.614551
20.290000	-687.048306
20.300000	-796.302535
20.310000	-862.079934
20.320000	-867.066305
20.330000	-830.566163
20.340000	-772.518965
20.350000	-701.708679
20.360000	-634.345388
20.370000	-584.197629
20.380000	-548.479249
20.390000	-512.339443
20.400000	-467.316418
20.410000	-431.238982
20.420000	-399.443746
20.430000	-361.140043
20.440000	-296.230275
20.450000	-207.455006
20.460000	-107.394748
20.470000	-6.113714
20.480000	82.412975
20.490000	144.210777
20.500000	179.576689
20.510000	198.879987
20.520000	207.377009
20.530000	210.199765
20.540000	203.804667
20.550000	191.188930
20.560000	167.863443
20.570000	134.176650
20.580000	104.278981
20.590000	90.144164
20.600000	95.992582
20.610000	114.399302
20.620000	130.672750
20.630000	149.694975
20.640000	162.969864
20.650000	174.010905
20.660000	178.232251
20.670000	180.674373
20.680000	190.159702
20.690000	203.626788
20.700000	222.755338
20.710000	238.204338
20.720000	249.698185
20.730000	261.115849
20.740000	275.628542
20.750000	292.339210
20.760000	305.869850
20.770000	316.902707
20.780000	329.778259
20.790000	344.110504
20.800000	360.680718
20.810000	374.292953
20.820000	388.598767
20.830000	404.793500
20.840000	420.498730
20.850000	435.291361
20.860000	433.014302
20.870000	412.489398
20.880000	377.201925
20.890000	339.036618
20.900000	308.044161
20.910000	281.207798
20.920000	263.234325
20.930000	253.023273
20.940000	251.423616
20.950000	254.486202
20.960000	254.931249
20.970000	254.635292
20.980000	254.096296
20.990000	250.770749
21.000000	242.925141
21.010000	231.241262
21.020000	223.435242
21.030000	222.360536
21.040000	224.924642
21.050000	234.493355
21.060000	246.387930
21.070000	259.632501
21.080000	271.509430
21.090000	283.446200
21.100000	295.289928
21.110000	310.266018
21.120000	323.712435
21.130000	335.762844
21.140000	348.805133
21.150000	361.246230
21.160000	378.247368
21.170000	396.704724
21.180000	416.696305
21.190000	431.141671
21.200000	432.475507
21.210000	417.589270
21.220000	388.935203
21.230000	351.375516
21.240000	313.737958
21.250000	286.832846
21.260000	266.832949
21.270000	256.641231
21.280000	249.233375
21.290000	244.802269
21.300000	248.647451
21.310000	254.932470
21.320000	261.070325
21.330000	256.039502
21.340000	248.547503
21.350000	242.801074
21.360000	235.671554
21.370000	229.244103
21.380000	227.467976
21.390000	233.017662
21.400000	238.571085
21.410000	242.808627
21.420000	248.352716
21.430000	259.605616
21.440000	270.774253
21.450000	278.076140
21.460000	279.869785
21.470000	283.238844
21.480000	289.618118
21.490000	299.400432
21.500000	313.703617
21.510000	326.210201
21.520000	329.120406
21.530000	310.343636
21.540000	279.265052
21.550000	237.792158
21.560000	195.432949
21.570000	156.562373
21.580000	128.277530
21.590000	110.314992
21.600000	98.113003
21.610000	93.421055
21.620000	92.937456
21.630000	98.878537
21.640000	102.735457
21.650000	104.696320
21.660000	100.858713
21.670000	92.865899
21.680000	81.984237
21.690000	72.714404
21.700000	66.103726
21.710000	64.904446
21.720000	65.208514
21.730000	66.774890
21.740000	75.333435
21.750000	87.290195
21.760000	102.805875
21.770000	113.118269
21.780000	127.331398
21.790000	142.249974
21.800000	154.527317
21.810000	164.729974
21.820000	175.733858
21.830000	187.205501
21.840000	183.569609
21.850000	158.711482
21.860000	118.442647
21.870000	70.895094
21.880000	24.989168
21.890000	-14.594898
21.900000	-41.120563
21.910000	-53.762967
21.920000	-64.928418
21.930000	-72.553018
21.940000	-72.726200
21.950000	-64.345723
21.960000	-59.555244
21.970000	-60.773204
21.980000	-65.030919
21.990000	-73.540201
22.000000	-89.172458
22.010000	-116.305914
22.020000	-146.272681
22.030000	-165.719879
22.040000	-169.723777
22.050000	-157.807048
22.060000	-140.198540
22.070000	-110.509436
22.080000	-70.021831
22.090000	-27.559932
22.100000	12.172204
22.110000	46.735205
22.120000	82.396300
22.130000	114.005199
22.140000	144.649307
22.150000	166.919384
22.160000	179.592393
22.170000	165.128576
22.180000	130.275407
22.190000	82.345941
22.200000	34.982488
22.210000	-3.444428
22.220000	-37.338709
22.230000	-76.910541
22.240000	-129.645489
22.250000	-165.600189
22.260000	-162.633306
22.270000	-116.999909
22.280000	-67.731424
22.290000	-35.675766
22.300000	-28.118306
22.310000	-37.971428
22.320000	-58.164448
22.330000	-81.927061
22.340000	-97.856947
22.350000	-101.226705
22.360000	-97.569904
22.370000	-86.168051
22.380000	-67.277676
22.390000	-36.087544
22.400000	-1.348025
22.410000	32.011532
22.420000	62.599488
22.430000	85.776572
22.440000	110.592889
22.450000	134.183914
22.460000	169.304285
22.470000	203.864852
22.480000	241.400494
22.490000	271.181915
22.500000	297.881039
22.510000	308.793352
22.520000	300.395630
22.530000	284.455676
22.540000	267.905890
22.550000	259.799501
22.560000	246.696769
22.570000	234.539008
22.580000	228.828946
22.590000	240.636360
22.600000	257.572631
22.610000	275.097922
22.620000	285.316465
22.630000	297.282115
22.640000	307.034006
22.650000	310.141179
22.660000	307.107971
22.670000	303.690907
22.680000	305.524543
22.690000	307.220001
22.700000	310.971617
22.710000	311.404677
22.720000	317.467763
22.730000	324.227651
22.740000	328.645563
22.750000	330.066979
22.760000	336.523712
22.770000	347.225253
22.780000	361.746057
22.790000	371.370632
22.800000	384.358244
22.810000	405.182175
22.820000	430.291628
22.830000	462.354037
22.840000	486.854397
22.850000	505.580587
22.860000	508.394315
22.870000	492.838133
22.880000	465.301757
22.890000	434.779377
22.900000	407.879176
22.910000	390.060644
22.920000	382.788780
22.930000	382.003202
22.940000	377.691812
22.950000	367.977850
22.960000	365.644823
22.970000	369.256457
22.980000	373.597100
22.990000	373.879181
23.000000	368.902130
23.010000	364.196584
23.020000	361.539664
23.030000	360.517403
23.040000	362.859136
23.050000	363.829799
23.060000	373.562055
23.070000	384.101741
23.080000	397.969574
23.090000	412.033928
23.100000	424.055251
23.110000	433.981096
23.120000	435.800133
23.130000	449.007154
23.140000	478.513724
23.150000	524.027605
23.160000	578.885087
23.170000	632.378807
23.180000	672.929160
23.190000	679.712970
23.200000	657.050547
23.210000	613.734241
23.220000	569.543503
23.230000	524.709775
23.240000	485.393921
23.250000	459.029871
23.260000	452.249753
23.270000	461.663268
23.280000	452.359720
23.290000	396.657103
23.300000	269.483978
23.310000	143.593279
23.320000	96.962781
23.330000	145.031079
23.340000	215.206392
23.350000	239.487943
23.360000	231.346755
23.370000	214.646195
23.380000	204.469040
23.390000	201.771545
23.400000	207.931571
23.410000	222.564332
23.420000	242.057370
23.430000	267.375009
23.440000	288.157238
23.450000	301.210391
23.460000	292.899966
23.470000	259.410793
23.480000	193.972475
23.490000	132.399232
23.500000	116.733005
23.510000	155.967659
23.520000	223.065168
23.530000	265.804020
23.540000	270.841053
23.550000	239.684615
23.560000	200.025462
23.570000	163.524295
23.580000	127.172526
23.590000	94.050140
23.600000	70.664943
23.610000	63.578567
23.620000	63.115025
23.630000	65.792764
23.640000	70.573735
23.650000	71.996557
23.660000	72.054492
23.670000	62.506974
23.680000	51.581704
23.690000	36.655302
23.700000	23.800341
23.710000	15.126779
23.720000	10.011995
23.730000	7.597957
23.740000	4.884603
23.750000	7.760208
23.760000	14.068269
23.770000	16.909076
23.780000	12.593554
23.790000	5.746737
23.800000	1.452547
23.810000	2.242993
23.820000	-0.052426
23.830000	1.445839
23.840000	-2.937793
23.850000	-2.296552
23.860000	-16.576509
23.870000	-44.649848
23.880000	-83.545794
23.890000	-119.977282
23.900000	-149.542129
23.910000	-179.339127
23.920000	-203.505863
23.930000	-227.735884
23.940000	-247.778964
23.950000	-267.826006
23.960000	-274.006142
23.970000	-274.647621
23.980000	-271.887001
23.990000	-278.502650
24.000000	-290.392512
24.010000	-307.038700
24.020000	-316.538090
24.030000	-322.622520
24.040000	-326.682220
24.050000	-330.880269
24.060000	-331.482110
24.070000	-328.487048
24.080000	-323.291427
24.090000	-323.115558
24.100000	-319.062355
24.110000	-311.442045
24.120000	-302.845708
24.130000	-296.108835
24.140000	-291.628801
24.150000	-283.097110
24.160000	-277.789238
24.170000	-272.062229
24.180000	-277.999831
24.190000	-298.342106
24.200000	-340.229723
24.210000	-386.562741
24.220000	-430.495238
24.230000	-465.458381
24.240000	-494.461420
24.250000	-520.695664
24.260000	-538.410965
24.270000	-551.968748
24.280000	-556.677111
24.290000	-558.947230
24.300000	-560.271415
24.310000	-562.936323
24.320000	-573.218531
24.330000	-582.225695
24.340000	-588.862422
24.350000	-589.516930
24.360000	-591.211037
24.370000	-590.789136
24.380000	-589.246715
24.390000	-580.049723
24.400000	-569.326294
24.410000	-556.634782
24.420000	-543.754544
24.430000	-534.233989
24.440000	-520.829158
24.450000	-508.877135
24.460000	-494.220451
24.470000	-485.899324
24.480000	-475.239255
24.490000	-462.956838
24.500000	-451.271746
24.510000	-440.017383
24.520000	-425.972122
24.530000	-409.430547
24.540000	-403.717934
24.550000	-420.181274
24.560000	-453.761694
24.570000	-494.929404
24.580000	-532.477205
24.590000	-561.370852
24.600000	-580.546651
24.610000	-587.818912
24.620000	-589.983788
24.630000	-586.924331
24.640000	-579.433091
24.650000	-570.378435
24.660000	-564.229755
24.670000	-566.845963
24.680000	-572.002811
24.690000	-576.330881
24.700000	-578.791784
24.710000	-579.160844
24.720000	-578.259733
24.730000	-571.652422
24.740000	-564.095605
24.750000	-553.133481
24.760000	-541.956217
24.770000	-527.941081
24.780000	-508.492683
24.790000	-489.447552
24.800000	-468.348679
24.810000	-450.985576
24.820000	-430.177880
24.830000	-411.567566
24.840000	-393.997073
24.850000	-375.489223
24.860000	-356.163856
24.870000	-335.751551
24.880000	-317.682450
24.890000	-294.659306
24.900000	-273.581497
24.910000	-249.208413
24.920000	-237.212580
24.930000	-236.385652
24.940000	-251.200326
24.950000	-265.179639
24.960000	-270.887085
24.970000	-266.329318
24.980000	-246.238817
24.990000	-214.845604
25.000000	-174.592717
25.010000	-141.071633
25.020000	-109.230099
25.030000	-80.990215
25.040000	-51.522216
25.050000	-27.613869
25.060000	-11.474804
25.070000	-5.243586
25.080000	-7.089297
25.090000	-15.546998
25.100000	-24.697459
25.110000	-32.199353
25.120000	-23.611384
25.130000	-1.236576
25.140000	27.455073
25.150000	51.377631
25.160000	63.527557
25.170000	72.696821
25.180000	77.901576
25.190000	87.704067
25.200000	102.247762
25.210000	123.043810
25.220000	141.896144
25.230000	154.055328
25.240000	166.906945
25.250000	181.378312
25.260000	203.260424
25.270000	219.646038
25.280000	223.626589
25.290000	206.572024
25.300000	174.362370
25.310000	133.830498
25.320000	90.758577
25.330000	53.091663
25.340000	23.470404
25.350000	11.034303
25.360000	6.461923
25.370000	10.334643
25.380000	16.432030
25.390000	23.980651
25.400000	34.071403
25.410000	38.264730
25.420000	32.721093
25.430000	21.902731
25.440000	14.714207
25.450000	20.205790
25.460000	27.985349
25.470000	40.876678
25.480000	54.234275
25.490000	69.228608
25.500000	81.800674
25.510000	92.926303
25.520000	108.713206
25.530000	126.264739
25.540000	140.953221
25.550000	152.614438
25.560000	165.872156
25.570000	180.282752
25.580000	196.459959
25.590000	207.262491
25.600000	219.084423
25.610000	233.227825
25.620000	256.724295
25.630000	280.816220
25.640000	292.017697
25.650000	278.743106
25.660000	252.708457
25.670000	228.678473
25.680000	218.725344
25.690000	215.226685
25.700000	205.060810
25.710000	192.823987
25.720000	178.049542
25.730000	166.773062
25.740000	151.668895
25.750000	140.430782
25.760000	133.268492
25.770000	126.077521
25.780000	115.537849
25.790000	108.085398
25.800000	101.116790
25.810000	95.102863
25.820000	88.691937
25.830000	85.802748
25.840000	91.605197
25.850000	102.479902
25.860000	120.535664
25.870000	135.123554
25.880000	147.166181
25.890000	159.106379
25.900000	171.794049
25.910000	187.762280
25.920000	204.409661
25.930000	226.440151
25.940000	251.340747
25.950000	274.781719
25.960000	298.289994
25.970000	314.099892
25.980000	326.942410
25.990000	337.408924
26.000000	348.269755
26.010000	355.367920
26.020000	348.917339
26.030000	327.017649
26.040000	299.599867
26.050000	282.018092
26.060000	275.913920
26.070000	279.678829
26.080000	282.538717
26.090000	290.387963
26.100000	298.470239
26.110000	306.779480
26.120000	318.078727
26.130000	332.165570
26.140000	342.004519
26.150000	346.905176
26.160000	347.269418
26.170000	345.653488
26.180000	349.550676
26.190000	354.371424
26.200000	364.526139
26.210000	369.718457
26.220000	376.216593
26.230000	383.048435
26.240000	390.245967
26.250000	392.366200
26.260000	400.323086
26.270000	407.304758
26.280000	418.770042
26.290000	423.867975
26.300000	428.599389
26.310000	436.761228
26.320000	444.075960
26.330000	455.348803
26.340000	458.174611
26.350000	465.341563
26.360000	476.907588
26.370000	483.978992
26.380000	474.634802
26.390000	444.974293
26.400000	409.749047
26.410000	375.282198
26.420000	339.509292
26.430000	307.612328
26.440000	286.275931
26.450000	275.593229
26.460000	268.023756
26.470000	261.257255
26.480000	258.789559
26.490000	263.922716
26.500000	264.849097
26.510000	256.274569
26.520000	242.269456
26.530000	228.632868
26.540000	215.007866
26.550000	200.992596
26.560000	190.091819
26.570000	188.360733
26.580000	188.473679
26.590000	189.414113
26.600000	188.853104
26.610000	188.145365
26.620000	188.232400
26.630000	187.203039
26.640000	187.290585
26.650000	186.583417
26.660000	189.366458
26.670000	194.616461
26.680000	201.108936
26.690000	208.986997
26.700000	218.518734
26.710000	228.687556
26.720000	229.570862
26.730000	216.068054
26.740000	184.292925
26.750000	144.152940
26.760000	103.676228
26.770000	67.561650
26.780000	38.720823
26.790000	15.624261
26.800000	0.441575
26.810000	-14.674746
26.820000	-26.140482
26.830000	-34.318906
26.840000	-34.041761
26.850000	-39.350343
26.860000	-49.570574
26.870000	-66.389652
26.880000	-84.080512
26.890000	-98.434721
26.900000	-112.612379
26.910000	-118.116231
26.920000	-121.855118
26.930000	-120.438109
26.940000	-120.460708
26.950000	-116.061293
26.960000	-110.092516
26.970000	-101.342359
26.980000	-93.406672
26.990000	-89.959544
27.000000	-86.701592
27.010000	-86.265192
27.020000	-79.299784
27.030000	-67.270156
27.040000	-51.901729
27.050000	-40.293005
27.060000	-44.186313
27.070000	-62.951848
27.080000	-97.478467
27.090000	-136.246768
27.100000	-180.810107
27.110000	-220.846072
27.120000	-255.839105
27.130000	-278.764676
27.140000	-296.577093
27.150000	-309.000769
27.160000	-314.649459
27.170000	-315.249587
27.180000	-316.403393
27.190000	-322.833656
27.200000	-329.468164
27.210000	-337.773496
27.220000	-349.204119
27.230000	-363.379583
27.240000	-368.914534
27.250000	-367.693533
27.260000	-362.298343
27.270000	-357.017043
27.280000	-351.006322
27.290000	-345.685084
27.300000	-335.700741
27.310000	-325.719065
27.320000	-308.701484
27.330000	-298.482226
27.340000	-284.975092
27.350000	-268.947136
27.360000	-249.917252
27.370000	-226.414680
27.380000	-206.557806
27.390000	-183.847503
27.400000	-175.268322
27.410000	-184.917090
27.420000	-214.310610
27.430000	-245.939979
27.440000	-275.728712
27.450000	-300.303748
27.460000	-321.500094
27.470000	-333.318333
27.480000	-333.621107
27.490000	-328.695101
27.500000	-314.720092
27.510000	-296.768708
27.520000	-276.147830
27.530000	-263.206259
27.540000	-259.223112
27.550000	-254.954038
27.560000	-253.003410
27.570000	-246.682104
27.580000	-240.821166
27.590000	-229.720398
27.600000	-211.989916
27.610000	-196.793500
27.620000	-179.459820
27.630000	-166.904244
27.640000	-148.554172
27.650000	-125.385850
27.660000	-102.666113
27.670000	-79.857310
27.680000	-63.469867
27.690000	-49.305138
27.700000	-35.285218
27.710000	-17.754395
27.720000	5.890787
27.730000	31.104301
27.740000	49.383526
27.750000	51.956534
27.760000	36.555079
27.770000	10.496055
27.780000	-19.614349
27.790000	-47.972315
27.800000	-69.458000
27.810000	-83.792985
27.820000	-87.297970
27.830000	-85.644990
27.840000	-78.460309
27.850000	-65.502989
27.860000	-52.310805
27.870000	-40.689677
27.880000	-34.171636
27.890000	-36.549331
27.900000	-38.000643
27.910000	-39.778293
27.920000	-34.478083
27.930000	-25.375451
27.940000	-18.635643
27.950000	-9.280840
27.960000	1.852003
27.970000	13.139470
27.980000	22.666721
27.990000	31.896943
28.000000	40.136750
28.010000	49.991391
28.020000	58.920574
28.030000	73.104399
28.040000	86.331652
28.050000	101.904837
28.060000	121.733551
28.070000	142.017584
28.080000	150.105808
28.090000	143.486191
28.100000	123.149041
28.110000	97.636905
28.120000	70.506619
28.130000	49.794635
28.140000	37.174772
28.150000	28.932289
28.160000	31.532283
28.170000	36.690835
28.180000	50.590935
28.190000	36.800416
