Time(s)	IR_denoised_wiener
0.000000	472.645986
0.010000	612.555494
0.020000	433.173187
0.030000	273.638657
0.040000	146.527909
0.050000	49.726607
0.060000	-12.388728
0.070000	-41.492235
0.080000	-43.608476
0.090000	-38.373949
0.100000	-21.388679
0.110000	4.430112
0.120000	30.854748
0.130000	43.588064
0.140000	41.169673
0.150000	41.166863
0.160000	45.475819
0.170000	53.104336
0.180000	62.813573
0.190000	81.094335
0.200000	103.819137
0.210000	134.467878
0.220000	166.492149
0.230000	201.892235
0.240000	238.847677
0.250000	281.692178
0.260000	331.217831
0.270000	383.168279
0.280000	437.288001
0.290000	492.998186
0.300000	557.065371
0.310000	620.470758
0.320000	689.235729
0.330000	749.238673
0.340000	808.483173
0.350000	868.002743
0.360000	927.741900
0.370000	988.448931
0.380000	1033.966404
0.390000	1029.187576
0.400000	940.538574
0.410000	782.066084
0.420000	604.552986
0.430000	443.576440
0.440000	316.523314
0.450000	231.399167
0.460000	186.470621
0.470000	169.863357
0.480000	161.396682
0.490000	162.052827
0.500000	169.646784
0.510000	191.266087
0.520000	207.822229
0.530000	212.509235
0.540000	200.331045
0.550000	184.128684
0.560000	161.123181
0.570000	137.765283
0.580000	123.581138
0.590000	117.696263
0.600000	116.687281
0.610000	106.919959
0.620000	95.169146
0.630000	86.791663
0.640000	85.965245
0.650000	77.927724
0.660000	53.425085
0.670000	6.720960
0.680000	-47.078079
0.690000	-108.884484
0.700000	-183.280437
0.710000	-271.504290
0.720000	-365.816112
0.730000	-450.461156
0.740000	-530.435617
0.750000	-617.130179
0.760000	-724.758558
0.770000	-835.741984
0.780000	-940.133647
0.790000	-1062.480794
0.800000	-1233.559178
0.810000	-1451.497672
0.820000	-1666.889612
0.830000	-1850.606760
0.840000	-1996.988726
0.850000	-2103.763746
0.860000	-2168.460236
0.870000	-2205.674897
0.880000	-2236.658304
0.890000	-2258.228208
0.900000	-2256.203063
0.910000	-2236.548043
0.920000	-2229.192438
0.930000	-2240.850507
0.940000	-2257.505512
0.950000	-2270.549362
0.960000	-2278.554061
0.970000	-2272.945216
0.980000	-2245.320567
0.990000	-2194.746577
1.000000	-2137.854470
1.010000	-2084.917109
1.020000	-2040.760852
1.030000	-2002.788812
1.040000	-1966.718270
1.050000	-1930.723693
1.060000	-1894.737695
1.070000	-1858.048052
1.080000	-1815.804396
1.090000	-1767.109289
1.100000	-1705.917013
1.110000	-1640.604218
1.120000	-1578.421297
1.130000	-1522.148967
1.140000	-1469.641471
1.150000	-1412.406354
1.160000	-1355.295673
1.170000	-1294.705189
1.180000	-1265.454036
1.190000	-1312.096670
1.200000	-1451.937399
1.210000	-1639.048254
1.220000	-1809.438850
1.230000	-1936.504129
1.240000	-2017.073510
1.250000	-2055.717334
1.260000	-2064.131020
1.270000	-2052.329737
1.280000	-2033.936107
1.290000	-2009.644809
1.300000	-1972.458738
1.310000	-1940.768764
1.320000	-1915.339245
1.330000	-1912.007532
1.340000	-1915.875863
1.350000	-1918.672124
1.360000	-1910.816938
1.370000	-1887.758982
1.380000	-1854.192260
1.390000	-1810.911037
1.400000	-1762.320448
1.410000	-1707.792579
1.420000	-1642.848386
1.430000	-1570.772780
1.440000	-1502.140679
1.450000	-1431.119234
1.460000	-1359.532296
1.470000	-1282.860193
1.480000	-1214.719277
1.490000	-1150.964872
1.500000	-1089.992679
1.510000	-1026.138110
1.520000	-957.021743
1.530000	-879.723421
1.540000	-803.498051
1.550000	-722.681803
1.560000	-639.744313
1.570000	-593.153569
1.580000	-625.750658
1.590000	-748.619739
1.600000	-898.969276
1.610000	-1018.179426
1.620000	-1084.705323
1.630000	-1112.920234
1.640000	-1111.842664
1.650000	-1094.755614
1.660000	-1067.709850
1.670000	-1037.008238
1.680000	-997.629322
1.690000	-950.694621
1.700000	-911.671907
1.710000	-893.457802
1.720000	-894.759525
1.730000	-906.951655
1.740000	-914.245079
1.750000	-908.551064
1.760000	-886.160524
1.770000	-838.555243
1.780000	-777.215652
1.790000	-712.641590
1.800000	-658.364069
1.810000	-617.785176
1.820000	-578.888619
1.830000	-542.382278
1.840000	-500.475147
1.850000	-456.428468
1.860000	-410.472156
1.870000	-375.595249
1.880000	-354.192351
1.890000	-347.511233
1.900000	-339.283521
1.910000	-313.179529
1.920000	-262.821231
1.930000	-208.674152
1.940000	-162.420809
1.950000	-124.557429
1.960000	-120.174033
1.970000	-183.217852
1.980000	-324.616904
1.990000	-488.113332
2.000000	-629.512545
2.010000	-733.507839
2.020000	-807.557107
2.030000	-851.300644
2.040000	-869.368511
2.050000	-872.530148
2.060000	-870.931399
2.070000	-859.470990
2.080000	-834.919327
2.090000	-812.549227
2.100000	-802.646804
2.110000	-807.692604
2.120000	-820.768373
2.130000	-835.256702
2.140000	-852.999724
2.150000	-857.189436
2.160000	-843.685700
2.170000	-810.213761
2.180000	-772.841821
2.190000	-736.293315
2.200000	-697.395931
2.210000	-651.789230
2.220000	-605.732109
2.230000	-568.379272
2.240000	-526.426042
2.250000	-485.774773
2.260000	-436.161540
2.270000	-390.987833
2.280000	-341.923164
2.290000	-293.989966
2.300000	-247.758209
2.310000	-202.741429
2.320000	-157.342345
2.330000	-105.900452
2.340000	-59.725054
2.350000	-12.095159
2.360000	16.064526
2.370000	-9.411253
2.380000	-119.221301
2.390000	-293.005279
2.400000	-467.473965
2.410000	-605.422263
2.420000	-701.231268
2.430000	-758.950255
2.440000	-790.093426
2.450000	-803.889549
2.460000	-811.378026
2.470000	-823.913728
2.480000	-824.000615
2.490000	-808.394154
2.500000	-790.753271
2.510000	-783.621689
2.520000	-792.904390
2.530000	-794.182487
2.540000	-794.892735
2.550000	-793.133882
2.560000	-788.300722
2.570000	-772.815374
2.580000	-747.146556
2.590000	-718.597876
2.600000	-683.711555
2.610000	-647.819725
2.620000	-604.993975
2.630000	-556.476088
2.640000	-503.023019
2.650000	-449.558316
2.660000	-398.793538
2.670000	-346.368462
2.680000	-288.980759
2.690000	-231.280702
2.700000	-181.257186
2.710000	-140.588761
2.720000	-107.604010
2.730000	-66.938590
2.740000	-12.388485
2.750000	50.266397
2.760000	111.070189
2.770000	163.402051
2.780000	176.383969
2.790000	111.104258
2.800000	-30.601498
2.810000	-204.487997
2.820000	-357.640545
2.830000	-475.262117
2.840000	-547.770867
2.850000	-581.489982
2.860000	-583.981093
2.870000	-572.153128
2.880000	-561.931325
2.890000	-547.499031
2.900000	-522.956897
2.910000	-490.943708
2.920000	-476.118026
2.930000	-483.409026
2.940000	-501.977087
2.950000	-516.937553
2.960000	-525.944649
2.970000	-524.534062
2.980000	-505.645282
2.990000	-476.910860
3.000000	-438.063880
3.010000	-389.696070
3.020000	-339.908881
3.030000	-290.201977
3.040000	-240.822322
3.050000	-186.430805
3.060000	-130.163684
3.070000	-78.406245
3.080000	-30.222336
3.090000	13.877231
3.100000	54.318098
3.110000	96.103419
3.120000	144.790483
3.130000	194.562419
3.140000	243.203768
3.150000	293.299234
3.160000	351.225721
3.170000	409.596785
3.180000	470.539291
3.190000	528.472269
3.200000	545.363113
3.210000	481.609768
3.220000	331.212493
3.230000	152.189969
3.240000	-12.044438
3.250000	-134.674680
3.260000	-212.097457
3.270000	-255.311502
3.280000	-267.527555
3.290000	-259.701132
3.300000	-239.346135
3.310000	-218.166602
3.320000	-194.859718
3.330000	-172.374205
3.340000	-165.135002
3.350000	-176.614966
3.360000	-191.421435
3.370000	-201.271274
3.380000	-200.443980
3.390000	-192.348117
3.400000	-175.180725
3.410000	-150.829996
3.420000	-120.309685
3.430000	-80.026888
3.440000	-36.527203
3.450000	8.395511
3.460000	52.527319
3.470000	99.106365
3.480000	150.519935
3.490000	207.085585
3.500000	259.092680
3.510000	306.699868
3.520000	346.263219
3.530000	384.618121
3.540000	420.018990
3.550000	455.491890
3.560000	494.384999
3.570000	535.964073
3.580000	585.377060
3.590000	638.688135
3.600000	690.308339
3.610000	740.371936
3.620000	784.839096
3.630000	780.225258
3.640000	686.657879
3.650000	502.796092
3.660000	298.952048
3.670000	123.919978
3.680000	-5.228527
3.690000	-89.727133
3.700000	-140.823766
3.710000	-160.402123
3.720000	-168.856551
3.730000	-170.419197
3.740000	-161.921922
3.750000	-135.810238
3.760000	-101.753716
3.770000	-82.288837
3.780000	-88.606331
3.790000	-106.415865
3.800000	-124.184701
3.810000	-134.271526
3.820000	-134.830030
3.830000	-119.833178
3.840000	-93.219967
3.850000	-56.438317
3.860000	-16.007255
3.870000	28.592691
3.880000	73.477082
3.890000	116.579321
3.900000	158.252268
3.910000	204.532670
3.920000	248.610181
3.930000	295.470002
3.940000	334.543863
3.950000	380.094255
3.960000	419.021348
3.970000	465.412366
3.980000	503.369225
3.990000	438.467774
4.000000	295.330603
4.010000	102.821582
4.020000	-28.864334
4.030000	-116.218711
4.040000	-173.432217
4.050000	-202.939098
4.060000	-222.086560
4.070000	-231.993529
4.080000	-235.122993
4.090000	-222.060183
4.100000	-206.935386
4.110000	-198.155519
4.120000	-208.804803
4.130000	-218.870572
4.140000	-222.089043
4.150000	-216.641333
4.160000	-206.432274
4.170000	-195.789628
4.180000	-186.812191
4.190000	-185.324063
4.200000	-183.196125
4.210000	-170.228249
4.220000	-150.661591
4.230000	-122.155990
4.240000	-84.841903
4.250000	-33.777619
4.260000	24.237960
4.270000	86.237269
4.280000	145.266443
4.290000	199.225299
4.300000	245.921391
4.310000	290.861432
4.320000	335.860059
4.330000	383.460331
4.340000	434.087242
4.350000	487.351558
4.360000	539.934509
4.370000	596.559899
4.380000	648.707314
4.390000	694.080804
4.400000	746.152447
4.410000	783.468350
4.420000	759.491464
4.430000	631.161760
4.440000	436.015023
4.450000	239.227798
4.460000	81.100494
4.470000	-25.484380
4.480000	-81.220712
4.490000	-98.263904
4.500000	-90.582579
4.510000	-74.752751
4.520000	-52.940172
4.530000	-17.583331
4.540000	18.611638
4.550000	50.906566
4.560000	59.754893
4.570000	55.444043
4.580000	47.194376
4.590000	39.601499
4.600000	42.280515
4.610000	50.686454
4.620000	71.363691
4.630000	103.718570
4.640000	143.737760
4.650000	182.370656
4.660000	213.086073
4.670000	241.022302
4.680000	274.076323
4.690000	309.612897
4.700000	352.054012
4.710000	392.802635
4.720000	429.684421
4.730000	464.638926
4.740000	504.630724
4.750000	558.783410
4.760000	613.149424
4.770000	665.930523
4.780000	709.621870
4.790000	757.103201
4.800000	801.342691
4.810000	849.284141
4.820000	896.000928
4.830000	926.407337
4.840000	894.210411
4.850000	775.562599
4.860000	600.538535
4.870000	418.742158
4.880000	267.804545
4.890000	155.811445
4.900000	92.713326
4.910000	68.797814
4.920000	72.922702
4.930000	87.738426
4.940000	109.808351
4.950000	135.316155
4.960000	166.014223
4.970000	191.833108
4.980000	203.861734
4.990000	203.015606
5.000000	193.690791
5.010000	186.854902
5.020000	192.823566
5.030000	216.652018
5.040000	255.573885
5.050000	297.729943
5.060000	345.001148
5.070000	393.096877
5.080000	446.425014
5.090000	505.759960
5.100000	566.473584
5.110000	618.046482
5.120000	665.203719
5.130000	713.976358
5.140000	767.231665
5.150000	819.857549
5.160000	869.574013
5.170000	924.072805
5.180000	975.513760
5.190000	1030.300619
5.200000	1088.075076
5.210000	1145.827992
5.220000	1207.963617
5.230000	1267.965586
5.240000	1330.523163
5.250000	1392.722528
5.260000	1426.654283
5.270000	1388.743325
5.280000	1252.138197
5.290000	1058.926968
5.300000	870.314744
5.310000	724.688018
5.320000	630.047863
5.330000	581.720895
5.340000	569.071183
5.350000	578.385163
5.360000	593.059672
5.370000	607.719969
5.380000	624.374728
5.390000	647.367394
5.400000	665.285966
5.410000	665.317004
5.420000	652.886574
5.430000	635.912634
5.440000	627.473764
5.450000	628.447056
5.460000	644.713560
5.470000	675.267978
5.480000	719.593327
5.490000	766.364391
5.500000	809.793355
5.510000	845.436083
5.520000	881.332457
5.530000	924.810466
5.540000	966.463431
5.550000	1013.534932
5.560000	1052.173996
5.570000	1093.966628
5.580000	1137.486018
5.590000	1182.371608
5.600000	1226.764097
5.610000	1272.423180
5.620000	1324.688463
5.630000	1377.078535
5.640000	1425.254753
5.650000	1470.050580
5.660000	1518.473590
5.670000	1572.978806
5.680000	1627.972091
5.690000	1681.886274
5.700000	1728.425519
5.710000	1724.326513
5.720000	1638.546531
5.730000	1469.481329
5.740000	1270.117561
5.750000	1100.288044
5.760000	972.859029
5.770000	897.719015
5.780000	855.485529
5.790000	839.149048
5.800000	836.061266
5.810000	836.885875
5.820000	846.974679
5.830000	859.218776
5.840000	874.205820
5.850000	872.793696
5.860000	854.116314
5.870000	823.347304
5.880000	793.008694
5.890000	770.180599
5.900000	755.176716
5.910000	751.984467
5.920000	750.265457
5.930000	748.104447
5.940000	743.312664
5.950000	746.551842
5.960000	758.958729
5.970000	775.941415
5.980000	801.251845
5.990000	819.234702
6.000000	835.560096
6.010000	843.449902
6.020000	859.889253
6.030000	884.907034
6.040000	918.840619
6.050000	958.976667
6.060000	997.732338
6.070000	1034.351621
6.080000	1062.895896
6.090000	1088.709800
6.100000	1117.679332
6.110000	1158.025601
6.120000	1194.682826
6.130000	1225.660802
6.140000	1252.980286
6.150000	1262.868362
6.160000	1209.137234
6.170000	1073.767913
6.180000	892.054666
6.190000	721.341505
6.200000	592.846572
6.210000	510.452328
6.220000	469.560237
6.230000	452.471627
6.240000	448.236293
6.250000	448.441147
6.260000	453.211782
6.270000	470.039605
6.280000	484.735821
6.290000	488.928186
6.300000	474.199936
6.310000	452.478891
6.320000	434.934256
6.330000	417.258752
6.340000	404.632335
6.350000	401.306466
6.360000	409.929113
6.370000	426.271092
6.380000	445.492709
6.390000	472.530421
6.400000	503.967237
6.410000	535.052649
6.420000	568.060301
6.430000	604.170466
6.440000	648.094332
6.450000	685.499921
6.460000	721.779147
6.470000	754.069314
6.480000	787.080031
6.490000	820.218738
6.500000	853.643557
6.510000	894.981905
6.520000	942.774662
6.530000	991.993774
6.540000	1029.808807
6.550000	1068.331244
6.560000	1100.713927
6.570000	1087.167227
6.580000	985.199894
6.590000	814.093741
6.600000	637.059973
6.610000	494.209519
6.620000	388.737288
6.630000	323.575782
6.640000	296.317047
6.650000	294.163194
6.660000	298.462985
6.670000	308.715279
6.680000	331.542544
6.690000	356.801268
6.700000	370.524117
6.710000	358.799151
6.720000	339.503968
6.730000	318.340448
6.740000	298.720271
6.750000	281.115633
6.760000	274.868781
6.770000	283.114159
6.780000	303.909617
6.790000	325.324063
6.800000	342.875602
6.810000	354.110100
6.820000	364.767194
6.830000	376.119505
6.840000	385.215354
6.850000	391.703422
6.860000	399.241091
6.870000	409.180099
6.880000	420.826158
6.890000	444.918986
6.900000	471.584600
6.910000	499.911665
6.920000	527.901746
6.930000	559.815736
6.940000	598.441554
6.950000	635.916433
6.960000	681.921260
6.970000	724.515289
6.980000	772.681808
6.990000	796.229075
7.000000	754.635661
7.010000	626.215418
7.020000	434.934870
7.030000	244.195843
7.040000	79.682054
7.050000	-44.304289
7.060000	-124.050013
7.070000	-162.941627
7.080000	-180.946197
7.090000	-191.680972
7.100000	-212.640012
7.110000	-226.111473
7.120000	-237.519425
7.130000	-238.627372
7.140000	-254.280147
7.150000	-278.516640
7.160000	-300.152029
7.170000	-311.207749
7.180000	-313.845655
7.190000	-315.374408
7.200000	-306.957206
7.210000	-294.711931
7.220000	-273.501817
7.230000	-245.200195
7.240000	-211.511634
7.250000	-176.494771
7.260000	-138.974432
7.270000	-98.258875
7.280000	-56.246719
7.290000	-18.837182
7.300000	18.371899
7.310000	55.434342
7.320000	99.537711
7.330000	143.860816
7.340000	186.910745
7.350000	221.463296
7.360000	254.179488
7.370000	293.594319
7.380000	340.616504
7.390000	395.244550
7.400000	444.538844
7.410000	487.781692
7.420000	481.863911
7.430000	393.196620
7.440000	219.458971
7.450000	16.621569
7.460000	-166.115508
7.470000	-306.178420
7.480000	-399.226067
7.490000	-457.176598
7.500000	-485.807488
7.510000	-498.350502
7.520000	-501.527136
7.530000	-505.022842
7.540000	-501.357449
7.550000	-492.212336
7.560000	-486.701010
7.570000	-500.246169
7.580000	-527.481988
7.590000	-549.404558
7.600000	-559.460007
7.610000	-555.739380
7.620000	-543.622544
7.630000	-522.890811
7.640000	-491.278932
7.650000	-457.907132
7.660000	-420.739107
7.670000	-384.778026
7.680000	-343.670802
7.690000	-305.191233
7.700000	-268.416257
7.710000	-232.108690
7.720000	-199.011886
7.730000	-164.178392
7.740000	-133.143803
7.750000	-104.737964
7.760000	-76.113526
7.770000	-50.490736
7.780000	-16.888234
7.790000	10.175006
7.800000	34.876173
7.810000	61.996049
7.820000	78.410925
7.830000	43.894719
7.840000	-73.212853
7.850000	-246.229214
7.860000	-429.635197
7.870000	-584.555819
7.880000	-702.994228
7.890000	-777.402988
7.900000	-816.584942
7.910000	-834.117490
7.920000	-836.009861
7.930000	-828.688897
7.940000	-809.934217
7.950000	-784.804240
7.960000	-768.076631
7.970000	-761.408991
7.980000	-767.748770
7.990000	-774.832217
8.000000	-773.289846
8.010000	-763.811451
8.020000	-747.360776
8.030000	-725.990163
8.040000	-699.957311
8.050000	-664.352590
8.060000	-626.786846
8.070000	-581.878644
8.080000	-534.176996
8.090000	-481.587150
8.100000	-429.121386
8.110000	-376.148894
8.120000	-330.291194
8.130000	-289.220075
8.140000	-252.336526
8.150000	-215.152022
8.160000	-177.599457
8.170000	-141.294718
8.180000	-102.387504
8.190000	-60.320589
8.200000	-4.689971
8.210000	48.706107
8.220000	102.849677
8.230000	147.152065
8.240000	156.137638
8.250000	91.350905
8.260000	-54.701498
8.270000	-235.180499
8.280000	-402.752750
8.290000	-535.997215
8.300000	-625.719058
8.310000	-676.400304
8.320000	-700.256077
8.330000	-716.706644
8.340000	-725.289268
8.350000	-734.589268
8.360000	-727.804808
8.370000	-711.087653
8.380000	-689.537480
8.390000	-683.181023
8.400000	-695.111589
8.410000	-708.107165
8.420000	-716.272663
8.430000	-709.578419
8.440000	-695.037626
8.450000	-671.250920
8.460000	-643.713143
8.470000	-611.798826
8.480000	-576.953825
8.490000	-540.239071
8.500000	-505.429275
8.510000	-465.210090
8.520000	-428.511147
8.530000	-388.366499
8.540000	-351.526982
8.550000	-319.405103
8.560000	-284.081276
8.570000	-247.034174
8.580000	-210.536300
8.590000	-178.232794
8.600000	-149.211812
8.610000	-113.306221
8.620000	-67.140095
8.630000	-15.302868
8.640000	35.691105
8.650000	83.810348
8.660000	108.902862
8.670000	85.004037
8.680000	-10.112562
8.690000	-138.541790
8.700000	-251.001968
8.710000	-329.078179
8.720000	-373.182757
8.730000	-407.921242
8.740000	-433.871664
8.750000	-459.694497
8.760000	-483.774220
8.770000	-505.045015
8.780000	-521.249798
8.790000	-521.281389
8.800000	-518.369585
8.810000	-523.756870
8.820000	-535.698797
8.830000	-539.776492
8.840000	-533.306383
8.850000	-523.403021
8.860000	-514.821331
8.870000	-503.920845
8.880000	-483.574901
8.890000	-454.040988
8.900000	-424.936720
8.910000	-395.716256
8.920000	-370.561727
8.930000	-349.296918
8.940000	-325.086300
8.950000	-295.140371
8.960000	-258.869080
8.970000	-235.290330
8.980000	-216.831964
8.990000	-195.359027
9.000000	-157.701783
9.010000	-113.411372
9.020000	-62.801284
9.030000	-15.077004
9.040000	40.230578
9.050000	92.275672
9.060000	149.057240
9.070000	201.657784
9.080000	247.978051
9.090000	290.794899
9.100000	314.923995
9.110000	300.325998
9.120000	212.904835
9.130000	74.416853
9.140000	-73.654275
9.150000	-192.761644
9.160000	-272.218344
9.170000	-308.221307
9.180000	-309.746924
9.190000	-287.281679
9.200000	-270.926420
9.210000	-265.202654
9.220000	-263.339571
9.230000	-245.686734
9.240000	-227.781657
9.250000	-234.128203
9.260000	-257.737146
9.270000	-278.801504
9.280000	-288.323162
9.290000	-298.467575
9.300000	-309.478208
9.310000	-314.716982
9.320000	-312.583122
9.330000	-305.580824
9.340000	-297.628872
9.350000	-287.367576
9.360000	-274.281470
9.370000	-259.096051
9.380000	-247.553278
9.390000	-242.756493
9.400000	-240.745347
9.410000	-234.348223
9.420000	-223.898582
9.430000	-213.892381
9.440000	-196.960666
9.450000	-179.415993
9.460000	-156.267352
9.470000	-135.250647
9.480000	-111.482568
9.490000	-84.374053
9.500000	-60.996216
9.510000	-34.403455
9.520000	-3.470778
9.530000	25.935916
9.540000	13.012909
9.550000	-70.302611
9.560000	-204.318901
9.570000	-345.756777
9.580000	-457.615478
9.590000	-533.576501
9.600000	-571.538686
9.610000	-583.049185
9.620000	-580.747457
9.630000	-576.469311
9.640000	-572.546857
9.650000	-565.490591
9.660000	-556.978001
9.670000	-554.479071
9.680000	-570.040073
9.690000	-598.372028
9.700000	-626.700736
