Time(s)	RED_denoised_wiener
0.000000	2849.590137
0.010000	3974.215345
0.020000	3217.494426
0.030000	2131.186376
0.040000	697.588442
0.050000	-866.932720
0.060000	-2430.962018
0.070000	-3966.424934
0.080000	-5477.368117
0.090000	-6834.663574
0.100000	-7811.964156
0.110000	-8284.649966
0.120000	-8489.365468
0.130000	-8604.300145
0.140000	-8599.029399
0.150000	-8486.917387
0.160000	-8190.635510
0.170000	-7979.021104
0.180000	-7798.903950
0.190000	-7588.325088
0.200000	-7307.802807
0.210000	-6979.043369
0.220000	-6742.284306
0.230000	-6514.081848
0.240000	-6413.600930
0.250000	-6240.866478
0.260000	-6044.901480
0.270000	-5808.112142
0.280000	-5652.239320
0.290000	-5565.990909
0.300000	-5330.683220
0.310000	-4960.528839
0.320000	-4519.961671
0.330000	-4211.486357
0.340000	-3983.258956
0.350000	-3744.397769
0.360000	-3399.949839
0.370000	-3026.863076
0.380000	-2662.290130
0.390000	-2442.703479
0.400000	-2375.722401
0.410000	-2509.444504
0.420000	-2707.781784
0.430000	-2903.852130
0.440000	-3262.631351
0.450000	-3613.167305
0.460000	-3869.889102
0.470000	-3994.796939
0.480000	-4144.542048
0.490000	-4157.088593
0.500000	-3984.054525
0.510000	-3631.420291
0.520000	-3374.540929
0.530000	-3183.490896
0.540000	-3059.366544
0.550000	-2965.053828
0.560000	-2773.552470
0.570000	-2508.647991
0.580000	-2248.180492
0.590000	-2056.508617
0.600000	-1941.299476
0.610000	-1864.901274
0.620000	-1812.146534
0.630000	-1832.480852
0.640000	-1906.490383
0.650000	-2022.778150
0.660000	-2203.632220
0.670000	-2591.788161
0.680000	-2949.119633
0.690000	-3330.671427
0.700000	-3587.457746
0.710000	-3989.125282
0.720000	-4420.836971
0.730000	-4882.668197
0.740000	-5401.405968
0.750000	-5883.339496
0.760000	-6414.270252
0.770000	-6832.810317
0.780000	-7311.539749
0.790000	-7739.666906
0.800000	-8126.312080
0.810000	-8442.936254
0.820000	-8746.845709
0.830000	-9083.374174
0.840000	-9474.525937
0.850000	-9863.147858
0.860000	-10258.283598
0.870000	-10631.723892
0.880000	-10974.006405
0.890000	-11334.718022
0.900000	-11622.941411
0.910000	-11864.974321
0.920000	-12105.208396
0.930000	-12375.821336
0.940000	-12707.771534
0.950000	-13075.153503
0.960000	-13364.410350
0.970000	-13674.059576
0.980000	-13965.672722
0.990000	-14227.714042
1.000000	-14597.359497
1.010000	-14850.065645
1.020000	-15065.246321
1.030000	-15215.162644
1.040000	-15351.398442
1.050000	-15648.987109
1.060000	-15827.361836
1.070000	-16069.153843
1.080000	-16240.199206
1.090000	-16459.767982
1.100000	-16695.378258
1.110000	-16902.447751
1.120000	-16989.868669
1.130000	-16919.385336
1.140000	-16959.320514
1.150000	-17020.801216
1.160000	-17129.553000
1.170000	-17066.349961
1.180000	-17075.537343
1.190000	-17213.199800
1.200000	-17376.910592
1.210000	-17405.384913
1.220000	-17274.496711
1.230000	-17099.795589
1.240000	-16978.212631
1.250000	-16945.892480
1.260000	-16949.875783
1.270000	-16902.424497
1.280000	-16742.147191
1.290000	-16633.451054
1.300000	-16493.285006
1.310000	-16400.473215
1.320000	-16307.297760
1.330000	-16100.876953
1.340000	-15837.005639
1.350000	-15476.589769
1.360000	-15242.340037
1.370000	-15044.021497
1.380000	-14861.449501
1.390000	-14773.311584
1.400000	-14767.901525
1.410000	-14685.456466
1.420000	-14543.438942
1.430000	-14451.791073
1.440000	-14406.937298
1.450000	-14350.919280
1.460000	-14207.665694
1.470000	-14081.492788
1.480000	-13930.612630
1.490000	-13788.562897
1.500000	-13693.531850
1.510000	-13626.772518
1.520000	-13531.645846
1.530000	-13340.587186
1.540000	-13075.643810
1.550000	-12782.440493
1.560000	-12549.068248
1.570000	-12353.303188
1.580000	-11990.640207
1.590000	-11351.410243
1.600000	-10580.230106
1.610000	-9770.698931
1.620000	-8917.873269
1.630000	-7972.859589
1.640000	-6912.582060
1.650000	-5988.103220
1.660000	-5242.718833
1.670000	-4663.860599
1.680000	-4099.140614
1.690000	-3474.838226
1.700000	-2986.975900
1.710000	-2626.928168
1.720000	-2445.650966
1.730000	-2293.812528
1.740000	-2146.012645
1.750000	-1991.752394
1.760000	-1753.205657
1.770000	-1580.335814
1.780000	-1394.791145
1.790000	-1320.830248
1.800000	-1200.624682
1.810000	-1004.701661
1.820000	-828.828250
1.830000	-694.062197
1.840000	-649.805582
1.850000	-579.664869
1.860000	-515.556015
1.870000	-441.837594
1.880000	-415.541636
1.890000	-379.065960
1.900000	-361.136428
1.910000	-270.337984
1.920000	-208.971812
1.930000	-140.939985
1.940000	-88.679630
1.950000	-177.872114
1.960000	-178.458500
1.970000	-178.394038
1.980000	-64.068328
1.990000	-52.543645
2.000000	-123.413618
2.010000	-200.930497
2.020000	-368.587076
2.030000	-522.862725
2.040000	-681.821719
2.050000	-774.612868
2.060000	-860.811597
2.070000	-1017.476249
2.080000	-1104.271144
2.090000	-1258.838075
2.100000	-1375.131205
2.110000	-1611.330289
2.120000	-1843.957191
2.130000	-2008.057600
2.140000	-2121.085366
2.150000	-2242.310427
2.160000	-2432.964399
2.170000	-2568.800750
2.180000	-2610.157450
2.190000	-2617.649621
2.200000	-2725.971840
2.210000	-2931.872214
2.220000	-3130.594757
2.230000	-3288.712730
2.240000	-3356.596526
2.250000	-3418.345219
2.260000	-3524.599047
2.270000	-3595.045301
2.280000	-3846.847134
2.290000	-3990.784330
2.300000	-4091.832362
2.310000	-4101.644286
2.320000	-4178.485077
2.330000	-4411.415321
2.340000	-4539.612416
2.350000	-4761.216962
2.360000	-4977.027508
2.370000	-5285.667405
2.380000	-5483.719489
2.390000	-5671.392552
2.400000	-5902.057875
2.410000	-6061.767431
2.420000	-6254.772387
2.430000	-6328.882302
2.440000	-6431.421330
2.450000	-6387.892484
2.460000	-6313.646298
2.470000	-6213.045112
2.480000	-6088.647568
2.490000	-5923.258675
2.500000	-5728.176182
2.510000	-5623.554164
2.520000	-5581.748955
2.530000	-5652.512775
2.540000	-5630.739372
2.550000	-5544.229095
2.560000	-5329.597703
2.570000	-5124.282324
2.580000	-4950.926359
2.590000	-4593.465782
2.600000	-4224.441752
2.610000	-3770.426587
2.620000	-3631.711320
2.630000	-3469.142985
2.640000	-3282.364720
2.650000	-3015.159341
2.660000	-2793.973258
2.670000	-2680.451191
2.680000	-2543.505941
2.690000	-2436.035202
2.700000	-2288.489129
2.710000	-2159.758771
2.720000	-2008.650834
2.730000	-1869.810649
2.740000	-1740.830708
2.750000	-1637.699570
2.760000	-1551.394974
2.770000	-1486.746180
2.780000	-1426.685289
2.790000	-1322.157663
2.800000	-1121.755062
2.810000	-1004.320659
2.820000	-850.792237
2.830000	-792.623841
2.840000	-629.704031
2.850000	-345.215570
2.860000	-6.632274
2.870000	368.545202
2.880000	633.633436
2.890000	962.067484
2.900000	1311.188089
2.910000	1603.376387
2.920000	1794.718127
2.930000	1909.087785
2.940000	2061.047040
2.950000	2212.262520
2.960000	2389.437988
2.970000	2519.713986
2.980000	2571.826809
2.990000	2577.555657
3.000000	2606.202483
3.010000	2921.147563
3.020000	3493.659745
3.030000	4149.891482
3.040000	4654.164442
3.050000	4985.442173
3.060000	5255.918935
3.070000	5460.888919
3.080000	5492.607453
3.090000	5379.927739
3.100000	5226.384486
3.110000	5147.215231
3.120000	5090.585607
3.130000	5032.796028
3.140000	4929.612729
3.150000	4710.185791
3.160000	4487.693672
3.170000	4123.765972
3.180000	3765.105151
3.190000	3403.133444
3.200000	3077.863394
3.210000	2758.185048
3.220000	2290.497495
3.230000	1867.065016
3.240000	1466.756689
3.250000	1129.322827
3.260000	786.930444
3.270000	419.588164
3.280000	95.889700
3.290000	-252.648066
3.300000	-488.042985
3.310000	-702.977452
3.320000	-876.122752
3.330000	-1111.110875
3.340000	-1419.745058
3.350000	-1660.953093
3.360000	-1794.774338
3.370000	-1804.656107
3.380000	-1858.774726
3.390000	-1989.450273
3.400000	-2116.932140
3.410000	-2210.176919
3.420000	-2303.735600
3.430000	-2440.392571
3.440000	-2685.066740
3.450000	-2936.953747
3.460000	-3234.247474
3.470000	-3427.467734
3.480000	-3590.844676
3.490000	-3745.638673
3.500000	-3910.571062
3.510000	-4147.731915
3.520000	-4376.375332
3.530000	-4494.236564
3.540000	-4536.695120
3.550000	-4659.542997
3.560000	-4917.207800
3.570000	-5288.780685
3.580000	-5588.740040
3.590000	-5875.827754
3.600000	-6127.521021
3.610000	-6391.539769
3.620000	-6563.021650
3.630000	-6702.177233
3.640000	-6707.550277
3.650000	-6759.727969
3.660000	-6764.462549
3.670000	-6835.655409
3.680000	-6929.078647
3.690000	-7005.066608
3.700000	-7113.077136
3.710000	-7231.419670
3.720000	-7362.946605
3.730000	-7434.032499
3.740000	-7458.859934
3.750000	-7491.891473
3.760000	-7553.481207
3.770000	-7582.995699
3.780000	-7538.621210
3.790000	-7247.205539
3.800000	-6988.470671
3.810000	-6835.646382
3.820000	-6959.385024
3.830000	-7017.140791
3.840000	-7038.115927
3.850000	-7072.487359
3.860000	-7138.218564
3.870000	-7209.840461
3.880000	-7243.060895
3.890000	-7362.113352
3.900000	-7462.397118
3.910000	-7549.142404
3.920000	-7593.760347
3.930000	-7668.232919
3.940000	-7731.262979
3.950000	-7728.737348
3.960000	-7662.366584
3.970000	-7652.346675
3.980000	-7710.283178
3.990000	-7797.594457
4.000000	-7886.002713
4.010000	-7994.077176
4.020000	-8099.380802
4.030000	-8240.162619
4.040000	-8311.800676
4.050000	-8355.079718
4.060000	-8364.858075
4.070000	-8247.849715
4.080000	-8131.280727
4.090000	-7990.292822
4.100000	-8028.419334
4.110000	-8094.180642
4.120000	-8139.258802
4.130000	-8206.066200
4.140000	-8327.819189
4.150000	-8463.491607
4.160000	-8492.234968
4.170000	-8516.268465
4.180000	-8565.187489
4.190000	-8648.390102
4.200000	-8785.231601
4.210000	-8922.373594
4.220000	-9118.308262
4.230000	-9252.588173
4.240000	-9326.104518
4.250000	-9447.816282
4.260000	-9562.496864
4.270000	-9649.850969
4.280000	-9527.150588
4.290000	-9232.195680
4.300000	-8928.851643
4.310000	-8709.709076
4.320000	-8647.191728
4.330000	-8625.061969
4.340000	-8674.290329
4.350000	-8668.332908
4.360000	-8758.499167
4.370000	-8853.614640
4.380000	-8987.390786
4.390000	-9196.908321
4.400000	-9304.023505
4.410000	-9436.370220
4.420000	-9539.480533
4.430000	-9806.833619
4.440000	-10144.798792
4.450000	-10418.830355
4.460000	-10747.453694
4.470000	-11071.643452
4.480000	-11443.045635
4.490000	-11753.312507
4.500000	-12046.012471
4.510000	-12357.916053
4.520000	-12557.799836
4.530000	-12804.593830
4.540000	-13037.255623
4.550000	-13372.026334
4.560000	-13619.802359
4.570000	-13784.580522
4.580000	-14007.311536
4.590000	-14270.280089
4.600000	-14562.080674
4.610000	-14664.649394
4.620000	-14628.820320
4.630000	-14378.229161
4.640000	-14124.572075
4.650000	-13693.965181
4.660000	-13259.820573
4.670000	-12634.245891
4.680000	-12069.809958
4.690000	-11439.342084
4.700000	-11079.592596
4.710000	-10674.491499
4.720000	-10596.105272
4.730000	-10392.544920
4.740000	-10508.240460
4.750000	-10676.466044
4.760000	-11243.874795
4.770000	-11948.523511
4.780000	-13012.974469
4.790000	-15308.490596
4.800000	-17781.241201
4.810000	-20228.576462
4.820000	-22527.834956
4.830000	-25442.864121
4.840000	-28774.209333
4.850000	-31278.035715
4.860000	-33770.653631
4.870000	-34045.976640
4.880000	-32431.452514
4.890000	-26669.539006
4.900000	-17447.472961
4.910000	15140.678723
4.920000	25468.136417
4.930000	24478.038153
4.940000	8329.709734
4.950000	-15732.321329
4.960000	-14205.113337
4.970000	24674.116275
4.980000	51319.929768
4.990000	59042.481718
5.000000	62254.853286
5.010000	63140.683246
5.020000	61332.804332
5.030000	56005.396745
5.040000	7856.590665
5.050000	-55117.845686
5.060000	-69720.085029
5.070000	-64920.554674
5.080000	-50210.013030
5.090000	-42022.700305
5.100000	-37339.500548
5.110000	-32852.443724
5.120000	-26572.225256
5.130000	-17848.734757
5.140000	-7812.881274
5.150000	1514.767726
5.160000	8885.916638
5.170000	13962.691471
5.180000	17444.892271
5.190000	21402.225678
5.200000	24095.596396
5.210000	25762.052132
5.220000	25057.163003
5.230000	24201.885348
5.240000	23293.786264
5.250000	22325.660557
5.260000	21132.212649
5.270000	19703.774634
5.280000	18069.330576
5.290000	16508.837235
5.300000	14944.064293
5.310000	13535.829567
5.320000	12264.582604
5.330000	11473.772287
5.340000	10817.500931
5.350000	10409.945225
5.360000	9695.887128
5.370000	9204.074861
5.380000	8552.089933
5.390000	4862.009232
5.400000	906.811769
5.410000	-2914.906549
5.420000	-3783.138363
5.430000	-4511.612204
5.440000	-5511.132237
5.450000	-6126.360310
5.460000	-6847.236171
5.470000	-7309.386862
5.480000	-7840.526227
5.490000	-8150.328171
5.500000	-8457.152627
5.510000	-8721.828254
5.520000	-9121.633146
5.530000	-9429.805033
5.540000	-9715.840531
5.550000	-9823.067146
5.560000	-9958.613611
5.570000	-10045.441832
5.580000	-10154.679874
5.590000	-10184.554311
5.600000	-10226.816733
5.610000	-10249.525778
5.620000	-10310.391471
5.630000	-10421.890847
5.640000	-10549.347334
5.650000	-10572.524287
5.660000	-10637.530769
5.670000	-10470.158597
5.680000	-10435.952507
5.690000	-10269.199420
5.700000	-10319.530382
5.710000	-10428.971122
5.720000	-10524.458803
5.730000	-10736.076987
5.740000	-10823.471475
5.750000	-10927.323161
5.760000	-10914.150251
5.770000	-10953.479294
5.780000	-11018.024738
5.790000	-10994.126272
5.800000	-11026.662474
5.810000	-11079.654673
5.820000	-11182.516247
5.830000	-11128.896830
5.840000	-10945.696760
5.850000	-10739.034062
5.860000	-10518.280376
5.870000	-10299.182221
5.880000	-9976.182101
5.890000	-9463.360056
5.900000	-8824.127446
5.910000	-8222.438514
5.920000	-7790.601290
5.930000	-7495.000891
5.940000	-7233.818283
5.950000	-7007.766145
5.960000	-6893.154917
5.970000	-6822.372138
5.980000	-6738.748293
5.990000	-6619.287915
6.000000	-6495.365529
6.010000	-6449.208415
6.020000	-6418.441136
6.030000	-6401.809431
6.040000	-6364.594542
6.050000	-6279.256905
6.060000	-6175.054341
6.070000	-6035.385768
6.080000	-5863.031627
6.090000	-5641.248801
6.100000	-5410.610963
6.110000	-5169.764767
6.120000	-4967.753571
6.130000	-4812.917188
6.140000	-4662.159853
6.150000	-4513.911940
6.160000	-4338.874888
6.170000	-4226.607997
6.180000	-4174.033585
6.190000	-4142.226912
6.200000	-4100.559575
6.210000	-4055.281453
6.220000	-4038.814926
6.230000	-4045.545447
6.240000	-4088.759201
6.250000	-4126.952363
6.260000	-4180.489848
6.270000	-4210.469287
6.280000	-4243.663320
6.290000	-4280.833507
6.300000	-4296.005028
6.310000	-4315.238557
6.320000	-4286.352631
6.330000	-4254.120213
6.340000	-4226.799751
6.350000	-4227.899695
6.360000	-4280.758452
6.370000	-4327.958839
6.380000	-4386.077902
6.390000	-4427.042225
6.400000	-4444.259229
6.410000	-4417.881391
6.420000	-4372.343647
6.430000	-4316.114087
6.440000	-4251.838682
6.450000	-4216.523628
6.460000	-4189.246252
6.470000	-4178.073576
6.480000	-4145.913025
6.490000	-4122.512768
6.500000	-4133.262552
6.510000	-4156.172260
6.520000	-4188.337278
6.530000	-4229.166538
6.540000	-4276.391457
6.550000	-4318.775850
6.560000	-4363.123758
6.570000	-4387.590597
6.580000	-4424.945702
6.590000	-4434.799546
6.600000	-4446.208993
6.610000	-4485.908162
6.620000	-4497.472006
6.630000	-4504.453286
6.640000	-4469.774026
6.650000	-4432.401470
6.660000	-4458.333117
6.670000	-4479.486163
6.680000	-4556.405509
6.690000	-4569.223905
6.700000	-4573.764202
6.710000	-4518.458941
6.720000	-4449.171210
6.730000	-4269.739717
6.740000	-3975.587324
6.750000	-3374.584644
6.760000	-1880.655736
6.770000	560.052669
6.780000	3952.764670
6.790000	7280.182289
6.800000	10067.654587
6.810000	12129.095223
6.820000	13733.463354
6.830000	15223.223968
6.840000	16610.724166
6.850000	17969.891988
6.860000	19229.969026
6.870000	20324.297243
6.880000	21219.041099
6.890000	21992.424979
6.900000	22601.205093
6.910000	23074.521109
6.920000	23451.175792
6.930000	23830.240037
6.940000	24191.954338
6.950000	24568.913798
6.960000	24910.659138
6.970000	25263.016227
6.980000	25610.703342
6.990000	25915.906884
7.000000	26206.788245
7.010000	26458.520720
7.020000	26696.889934
7.030000	26900.558467
7.040000	27026.828356
7.050000	27163.859593
7.060000	27206.147229
7.070000	27241.946825
7.080000	27190.931734
7.090000	27121.378755
7.100000	26897.767430
7.110000	26610.048446
7.120000	26248.287989
7.130000	25939.393736
7.140000	25608.227085
7.150000	25293.365046
7.160000	24944.241760
7.170000	24644.364915
7.180000	24282.387977
7.190000	23365.991390
7.200000	22490.868245
7.210000	21772.985286
7.220000	21683.013565
7.230000	21617.726132
7.240000	21522.367321
7.250000	21480.220187
7.260000	21404.967920
7.270000	21339.119185
7.280000	21236.714971
7.290000	21170.404907
7.300000	21076.152279
7.310000	20997.723649
7.320000	20903.791388
7.330000	20851.029806
7.340000	20781.532362
7.350000	20728.339722
7.360000	20643.809635
7.370000	20563.640243
7.380000	20443.967094
7.390000	20305.553860
7.400000	20169.898912
7.410000	20063.590421
7.420000	19943.417817
7.430000	19763.735461
7.440000	19551.253533
7.450000	19337.681767
7.460000	19113.098438
7.470000	18898.505751
7.480000	18707.384519
7.490000	18545.104931
7.500000	18356.971951
7.510000	18143.657908
7.520000	17921.405830
7.530000	17732.086795
7.540000	17538.095334
7.550000	17318.704234
7.560000	17084.347457
7.570000	16876.886419
7.580000	16692.286570
7.590000	16505.491760
7.600000	16316.777228
7.610000	16137.945035
7.620000	15952.674453
7.630000	15757.250842
7.640000	15550.396947
7.650000	15350.763857
7.660000	15133.486194
7.670000	14882.119982
7.680000	14582.401686
7.690000	14291.826969
7.700000	14028.362467
7.710000	13715.762384
7.720000	13339.981184
7.730000	12957.712343
7.740000	12689.261273
7.750000	12467.634180
7.760000	12171.544791
7.770000	11819.759388
7.780000	11503.512136
7.790000	11297.322818
7.800000	11109.840632
7.810000	10858.058417
7.820000	10598.032786
7.830000	10340.817843
7.840000	10116.089169
7.850000	9890.215396
7.860000	9703.158541
7.870000	9581.719785
7.880000	9461.786592
7.890000	9342.204144
7.900000	9225.563929
7.910000	9133.879393
7.920000	9051.373509
7.930000	8964.027279
7.940000	8911.129021
7.950000	8883.506571
7.960000	8871.679794
7.970000	8858.091328
7.980000	8835.718639
7.990000	8825.209320
8.000000	8823.146671
8.010000	8831.796189
8.020000	8837.649249
8.030000	8840.201191
8.040000	8840.937534
8.050000	8845.061079
8.060000	8852.654144
8.070000	8830.268921
8.080000	8808.651385
8.090000	8887.434500
8.100000	9018.007490
8.110000	9125.959346
8.120000	9122.418056
8.130000	9070.660253
8.140000	8999.823632
8.150000	8903.683356
8.160000	8816.089088
8.170000	8725.662483
8.180000	8618.758943
8.190000	8427.901369
8.200000	8272.011976
8.210000	8109.433979
8.220000	8054.090582
8.230000	8020.814813
8.240000	7993.751327
8.250000	7974.632398
8.260000	7894.603270
8.270000	7867.667198
8.280000	7796.920785
8.290000	7734.820213
8.300000	7651.382959
8.310000	7572.159885
8.320000	7491.456445
8.330000	7409.876938
8.340000	7373.009803
8.350000	7346.727555
8.360000	7367.104629
8.370000	7343.240846
8.380000	7319.912906
8.390000	7335.740705
8.400000	7376.575690
8.410000	7491.075086
8.420000	7564.781692
8.430000	7668.237961
8.440000	7690.471972
8.450000	7675.137412
8.460000	7646.750591
8.470000	7591.234064
8.480000	7537.111671
8.490000	7437.417702
8.500000	7370.105667
8.510000	7297.903460
8.520000	7210.119995
8.530000	7125.412502
8.540000	7026.640654
8.550000	6951.672541
8.560000	6875.249727
8.570000	6839.374285
8.580000	6809.901757
8.590000	6785.078848
8.600000	6734.049419
8.610000	6669.807749
8.620000	6583.368905
8.630000	6511.221991
8.640000	6441.778329
8.650000	6396.610801
8.660000	6334.894655
8.670000	6316.148249
8.680000	6312.304840
8.690000	6355.045558
8.700000	6355.240269
8.710000	6384.903787
8.720000	6366.611465
8.730000	6396.412539
8.740000	6353.889993
8.750000	6360.749277
8.760000	6268.918266
8.770000	6247.107815
8.780000	6120.816598
8.790000	6100.330196
8.800000	6006.112158
8.810000	5992.264379
8.820000	5873.933022
8.830000	5851.039107
8.840000	5700.703786
8.850000	5694.610726
8.860000	5492.894106
8.870000	5531.406116
8.880000	5344.027576
8.890000	5412.218496
8.900000	5155.318789
8.910000	5237.518731
8.920000	5051.513667
8.930000	5365.653671
8.940000	5305.914417
8.950000	5760.338750
8.960000	5690.060267
8.970000	6233.368030
8.980000	6248.635580
8.990000	3542.014246
9.000000	-28768.779519
9.010000	-33734.648480
9.020000	-29477.693364
9.030000	-19481.980209
9.040000	-16292.209609
9.050000	-22471.185198
9.060000	-49808.615166
9.070000	-80107.358467
9.080000	-68461.508301
9.090000	-39317.288470
9.100000	-21454.408542
9.110000	-10840.832955
9.120000	-3957.343476
9.130000	-168.566702
9.140000	1748.074962
9.150000	2719.821477
9.160000	3149.649326
9.170000	3324.482856
9.180000	3364.687578
9.190000	3463.595386
9.200000	3605.063941
9.210000	3886.261932
9.220000	4185.411074
9.230000	4559.654661
9.240000	4799.255910
9.250000	5028.859089
9.260000	5089.544438
9.270000	5214.692718
9.280000	5170.430500
9.290000	5187.679624
9.300000	4988.457936
9.310000	4849.725575
9.320000	4458.061069
9.330000	4117.660758
9.340000	3515.490808
9.350000	3079.147628
9.360000	2396.460478
9.370000	1903.807084
9.380000	1080.639414
9.390000	-2762.992147
9.400000	-7129.438255
9.410000	-11158.464535
9.420000	-12162.677817
9.430000	-12528.056049
9.440000	-13488.609158
9.450000	-14925.792692
9.460000	-17347.458494
9.470000	-19837.486617
9.480000	-21990.583192
9.490000	-22706.481324
9.500000	-21070.430788
9.510000	-17726.641512
9.520000	-14134.738516
9.530000	-11694.193749
9.540000	-10208.222555
9.550000	-9087.230849
9.560000	-8296.798282
9.570000	-7574.545090
9.580000	-7099.158342
9.590000	-6652.344844
9.600000	-6422.547609
9.610000	-6205.647990
9.620000	-5971.331977
9.630000	-5427.151664
9.640000	-4753.337818
9.650000	-4001.561491
9.660000	-3383.378037
9.670000	-2924.057544
9.680000	-2608.240474
9.690000	-2425.503548
9.700000	-2284.151982
9.710000	-2143.698364
9.720000	-2009.466680
9.730000	-1756.816105
9.740000	-1503.061647
9.750000	-1177.034372
9.760000	-889.109263
9.770000	-591.441237
9.780000	-328.703280
9.790000	-164.528262
9.800000	-47.612152
9.810000	17.264348
9.820000	102.722791
9.830000	196.853561
9.840000	270.035412
9.850000	358.982174
9.860000	441.541105
9.870000	541.589513
9.880000	600.503380
9.890000	432.528397
9.900000	202.774252
9.910000	10.963482
9.920000	-96.762048
9.930000	-183.898373
9.940000	-376.802616
9.950000	-533.356924
9.960000	-697.022773
9.970000	-877.729056
9.980000	-1001.687806
9.990000	-1171.596519
10.000000	-1303.185705
10.010000	-1427.462763
10.020000	-1520.216543
10.030000	-1641.915283
10.040000	-1809.483908
10.050000	-1977.889498
10.060000	-2146.567675
10.070000	-2288.487677
10.080000	-2454.230310
10.090000	-2599.526744
10.100000	-2736.418020
10.110000	-2858.220467
10.120000	-3018.813809
10.130000	-3196.082836
10.140000	-3378.952910
10.150000	-3508.194864
10.160000	-3681.239789
10.170000	-3841.603877
10.180000	-4061.268098
10.190000	-4231.239936
10.200000	-4388.423381
10.210000	-4492.391989
10.220000	-4654.058153
10.230000	-4761.665034
10.240000	-4807.045391
10.250000	-4820.781141
10.260000	-4838.785900
10.270000	-4908.335710
10.280000	-4909.476281
10.290000	-4980.677809
10.300000	-5030.949381
10.310000	-5063.025457
10.320000	-4925.749739
10.330000	-4668.676077
10.340000	-4247.713014
10.350000	-3719.358141
10.360000	-3260.764533
10.370000	-2967.909098
10.380000	-2914.180833
10.390000	-2931.224522
10.400000	-3040.214389
10.410000	-3215.509644
10.420000	-3398.256562
10.430000	-3575.020892
10.440000	-3737.081243
10.450000	-3897.696908
10.460000	-4024.887545
10.470000	-4135.948926
10.480000	-4229.083495
10.490000	-4261.531934
10.500000	-4235.848777
10.510000	-4175.284679
10.520000	-4183.281863
10.530000	-4213.073715
10.540000	-4229.864621
10.550000	-4204.997653
10.560000	-4170.399706
10.570000	-4124.617031
10.580000	-4042.992687
10.590000	-3923.086865
10.600000	-3780.091313
10.610000	-3695.864784
10.620000	-3624.966348
10.630000	-3601.321111
10.640000	-3558.360147
10.650000	-3546.895612
10.660000	-3525.296798
10.670000	-3512.099739
10.680000	-3479.905924
10.690000	-3450.572029
10.700000	-3396.178772
10.710000	-3326.281883
10.720000	-3252.258770
10.730000	-3200.836866
10.740000	-3169.729518
10.750000	-3127.115285
10.760000	-3046.687396
10.770000	-2972.058469
10.780000	-2941.437215
10.790000	-2884.176828
10.800000	-2830.271626
10.810000	-2724.870995
10.820000	-2653.969035
10.830000	-2588.392301
10.840000	-2524.547439
10.850000	-2512.204843
10.860000	-2487.960250
10.870000	-2523.534333
10.880000	-2542.111463
10.890000	-2581.325069
10.900000	-2593.174899
10.910000	-2558.676757
10.920000	-2533.592040
10.930000	-2459.864720
10.940000	-2450.628706
10.950000	-2428.011180
10.960000	-2425.120391
10.970000	-2413.472417
10.980000	-2361.421063
10.990000	-2165.220343
11.000000	-1916.744099
11.010000	-1744.554465
11.020000	-1704.018533
11.030000	-1683.582885
11.040000	-1629.270841
11.050000	-1553.614012
11.060000	-1516.139221
11.070000	-1448.781978
11.080000	-1443.935860
11.090000	-1546.975280
11.100000	-1702.945001
11.110000	-1879.051091
11.120000	-1955.202916
11.130000	-2023.866134
11.140000	-2112.437758
11.150000	-2208.059790
11.160000	-2279.444676
11.170000	-2342.873632
11.180000	-2398.229585
11.190000	-2475.259339
11.200000	-2556.040204
11.210000	-2660.906878
11.220000	-2773.908017
11.230000	-2879.044559
11.240000	-2960.934533
11.250000	-3020.383760
11.260000	-3133.992984
11.270000	-3183.678686
11.280000	-3272.148290
11.290000	-3308.933452
11.300000	-3379.610816
11.310000	-3476.422169
11.320000	-3570.171348
11.330000	-3725.324918
11.340000	-3859.819408
11.350000	-4021.407384
11.360000	-4183.753643
11.370000	-4323.988834
11.380000	-4470.985900
11.390000	-4777.065001
11.400000	-5041.403608
11.410000	-5211.035680
11.420000	-5139.719874
11.430000	-5064.881176
11.440000	-5025.645483
11.450000	-4985.672957
11.460000	-4951.842894
11.470000	-4844.379339
11.480000	-4663.077604
11.490000	-4500.492022
11.500000	-4335.484330
11.510000	-4143.746335
11.520000	-3820.820618
11.530000	-3333.010696
11.540000	-2755.938829
11.550000	-1984.927472
11.560000	-1154.861905
11.570000	-318.765545
11.580000	370.127744
11.590000	960.138700
11.600000	1528.051743
11.610000	2098.423107
11.620000	2648.369825
11.630000	3104.427054
11.640000	3487.138651
11.650000	3696.292606
11.660000	3826.636929
11.670000	3880.432134
11.680000	3880.720952
11.690000	3823.025380
11.700000	3692.974392
11.710000	3535.645756
11.720000	3294.145511
11.730000	3009.734020
11.740000	2725.520534
11.750000	2468.644418
11.760000	2221.639527
11.770000	1996.836942
11.780000	1847.404754
11.790000	1796.815749
11.800000	1796.841319
11.810000	1826.404485
11.820000	1867.488713
11.830000	1865.094459
11.840000	1853.250494
11.850000	1767.383849
11.860000	1620.429079
11.870000	1405.155456
11.880000	1143.893461
11.890000	973.780655
11.900000	813.295862
11.910000	781.161396
11.920000	767.944147
11.930000	764.022437
11.940000	724.034054
11.950000	672.615811
11.960000	642.352817
11.970000	615.946146
11.980000	630.695787
11.990000	656.632906
12.000000	672.938671
12.010000	619.085650
12.020000	548.369485
12.030000	495.696782
12.040000	482.639487
12.050000	463.666335
12.060000	396.461289
12.070000	275.613797
12.080000	164.348388
12.090000	96.022916
12.100000	-2.513125
12.110000	-52.272619
12.120000	-117.557136
12.130000	-117.625161
12.140000	-98.738449
12.150000	-89.383793
12.160000	-77.596671
12.170000	-143.182254
12.180000	-230.871440
12.190000	-318.191429
12.200000	-397.641063
12.210000	-439.259076
12.220000	-479.713609
12.230000	-506.310824
12.240000	-482.506746
12.250000	-469.082398
12.260000	-340.239693
12.270000	-287.176635
12.280000	-207.284096
12.290000	-230.360689
12.300000	-209.352667
12.310000	-166.794833
12.320000	-160.301624
12.330000	-177.487154
12.340000	-228.763370
12.350000	-226.693966
12.360000	-214.700829
12.370000	-182.201815
12.380000	-172.568903
12.390000	-306.036260
12.400000	-491.973034
12.410000	-561.437222
12.420000	-513.954534
12.430000	-477.973324
12.440000	-613.135806
12.450000	-773.450456
12.460000	-920.726679
12.470000	-1049.798182
12.480000	-1125.013413
12.490000	-1194.154351
12.500000	-1249.259352
12.510000	-1286.968483
12.520000	-1327.013713
12.530000	-1250.178983
12.540000	-1249.068837
12.550000	-1245.088588
12.560000	-1328.030065
12.570000	-1352.127804
12.580000	-1337.222356
12.590000	-1342.718184
12.600000	-1352.983999
12.610000	-1355.425284
12.620000	-1297.076064
12.630000	-1262.618001
12.640000	-1255.050920
12.650000	-1292.625978
12.660000	-1314.247442
12.670000	-1344.642159
12.680000	-1393.842301
12.690000	-1453.713344
12.700000	-1507.517961
12.710000	-1563.289847
12.720000	-1559.773438
12.730000	-1515.187593
12.740000	-1450.137923
12.750000	-1404.239484
12.760000	-1334.376590
12.770000	-1338.111963
12.780000	-1285.758089
12.790000	-1288.077964
12.800000	-1180.482524
12.810000	-1188.213305
12.820000	-1236.480965
12.830000	-1329.997815
12.840000	-1316.478418
12.850000	-1260.474167
12.860000	-1170.417412
12.870000	-1143.623035
12.880000	-1047.486015
12.890000	-1785.712011
12.900000	-2560.307269
12.910000	-3530.522647
12.920000	-3596.428610
12.930000	-3638.196289
12.940000	-3378.461174
12.950000	-3327.456225
12.960000	-3055.334096
12.970000	-3029.268161
12.980000	-2621.620855
12.990000	-2555.877743
13.000000	-2092.976482
13.010000	-2000.711049
13.020000	-947.316358
13.030000	64.627539
13.040000	2049.467631
13.050000	3318.126069
13.060000	4617.528262
13.070000	3295.542338
13.080000	-1883.599937
13.090000	-12562.583501
13.100000	-38031.610436
13.110000	-41214.150838
13.120000	4853.750269
13.130000	40594.379688
13.140000	47069.870995
13.150000	49065.162165
13.160000	50886.656940
13.170000	50020.819710
13.180000	51112.032821
13.190000	49575.308574
13.200000	3603.363229
13.210000	-103987.997961
13.220000	-60828.746764
13.230000	-24115.836248
13.240000	-11771.296075
13.250000	-3837.733886
13.260000	2145.836859
13.270000	3550.766355
13.280000	5560.143820
13.290000	5375.942730
13.300000	6587.591677
13.310000	6299.237764
13.320000	7184.935679
13.330000	6960.512925
13.340000	7732.270309
13.350000	7568.629823
13.360000	8059.208409
13.370000	7721.574806
13.380000	7982.736606
13.390000	7308.987095
13.400000	7012.346580
13.410000	6087.299801
13.420000	5905.083402
13.430000	5497.786621
13.440000	5680.315425
13.450000	5604.303463
13.460000	5843.050213
13.470000	5813.909827
13.480000	6085.878811
13.490000	6175.890312
13.500000	6367.743607
13.510000	6341.475340
13.520000	6422.643708
13.530000	6373.775761
13.540000	6418.070308
13.550000	6351.496718
13.560000	6386.567613
13.570000	6342.396454
13.580000	6344.498357
13.590000	6253.493083
13.600000	6196.752060
13.610000	6065.864910
13.620000	5993.590055
13.630000	5859.796468
13.640000	5787.014552
13.650000	5726.175730
13.660000	5713.257276
13.670000	5684.865632
13.680000	5626.215968
13.690000	5562.245950
13.700000	5459.594672
13.710000	5329.661456
13.720000	5222.323394
13.730000	5091.723741
13.740000	4999.255085
13.750000	4884.358126
13.760000	4812.438417
13.770000	4732.911527
13.780000	4610.232537
13.790000	4526.689906
13.800000	4402.147049
13.810000	4269.677532
13.820000	4137.891117
13.830000	4017.566274
13.840000	3942.592206
13.850000	3784.233597
13.860000	3658.188224
13.870000	3524.027326
13.880000	3477.043854
13.890000	3498.726923
13.900000	3561.424391
13.910000	3653.017419
13.920000	3694.166735
13.930000	3770.305082
13.940000	3876.202831
13.950000	3952.652049
13.960000	3932.088307
13.970000	3733.833414
13.980000	3529.869541
13.990000	3341.133095
14.000000	3159.435300
14.010000	2949.888621
14.020000	2721.983424
14.030000	2555.696168
14.040000	2351.561721
14.050000	2118.321851
14.060000	1840.592590
14.070000	1617.779530
14.080000	1463.569279
14.090000	1358.993298
14.100000	1263.664100
14.110000	1169.470515
14.120000	1092.999385
14.130000	1042.094168
14.140000	1012.469623
14.150000	990.190724
14.160000	936.034281
14.170000	844.875939
14.180000	767.244587
14.190000	740.682729
14.200000	754.143125
14.210000	728.120954
14.220000	730.263053
14.230000	725.759431
14.240000	766.433677
14.250000	802.262015
14.260000	825.528758
14.270000	853.973847
14.280000	865.317661
14.290000	908.349015
14.300000	930.627734
14.310000	945.033850
14.320000	950.694680
14.330000	974.921786
14.340000	1048.227148
14.350000	1109.011164
14.360000	1223.562999
14.370000	1286.411939
14.380000	1380.196335
14.390000	1495.003685
14.400000	1591.525100
14.410000	1647.081598
14.420000	1599.182658
14.430000	1553.055937
14.440000	1539.736511
14.450000	1477.484888
14.460000	1456.858888
14.470000	1425.614518
14.480000	1451.735296
14.490000	1500.216013
14.500000	1505.947992
14.510000	1529.913691
14.520000	1488.510993
14.530000	1482.863693
14.540000	1458.388827
14.550000	1402.669526
14.560000	1323.392746
14.570000	1214.840248
14.580000	1155.360098
14.590000	1152.212416
14.600000	1164.589605
14.610000	1236.542640
14.620000	1252.102056
14.630000	1291.130644
14.640000	1249.158921
14.650000	1224.657512
14.660000	1187.909288
14.670000	1145.326621
14.680000	1109.717649
14.690000	1068.965111
14.700000	1046.659332
14.710000	1032.209034
14.720000	1032.011048
14.730000	1020.726554
14.740000	998.791699
14.750000	948.549895
14.760000	894.374002
14.770000	841.002887
14.780000	790.295995
14.790000	729.761409
14.800000	630.181007
14.810000	616.950889
14.820000	591.120133
14.830000	650.682257
14.840000	645.709950
14.850000	625.289178
14.860000	557.737532
14.870000	476.064027
14.880000	386.345369
14.890000	-179.812758
14.900000	-791.594871
14.910000	-1349.954627
14.920000	-1479.800147
14.930000	-1563.536254
14.940000	-1676.189772
14.950000	-1726.024447
14.960000	-1832.526792
14.970000	-1898.286828
14.980000	-2021.105861
14.990000	-2104.056220
15.000000	-2243.928127
15.010000	-2357.712189
15.020000	-2513.548538
15.030000	-2602.600995
15.040000	-2687.360995
15.050000	-2696.512985
15.060000	-2688.255734
15.070000	-2760.930977
15.080000	-2782.248604
15.090000	-2866.761001
15.100000	-2853.554746
15.110000	-2904.884273
15.120000	-2975.365333
15.130000	-3071.894957
15.140000	-3190.224854
15.150000	-3243.427144
15.160000	-3251.127979
15.170000	-3176.223466
15.180000	-3135.877076
15.190000	-3124.440371
15.200000	-3146.414222
15.210000	-3168.983884
15.220000	-3192.473722
15.230000	-3275.788511
15.240000	-3344.937297
15.250000	-3399.900903
15.260000	-3420.117872
15.270000	-3444.619194
15.280000	-3459.263412
15.290000	-3439.756033
15.300000	-3410.658311
15.310000	-3409.044467
15.320000	-3438.413584
15.330000	-3479.057091
15.340000	-3502.935897
15.350000	-3496.233999
15.360000	-3427.537038
15.370000	-3375.508999
15.380000	-3370.803971
15.390000	-3435.894396
15.400000	-3460.841954
15.410000	-3403.937084
15.420000	-3346.021580
15.430000	-3232.414391
15.440000	-3199.200441
15.450000	-3130.342927
15.460000	-3122.107841
15.470000	-3088.584915
15.480000	-3047.114333
15.490000	-3019.322522
15.500000	-2994.517559
15.510000	-2988.954610
15.520000	-2961.251233
15.530000	-2915.535379
15.540000	-2870.182634
15.550000	-2853.637293
15.560000	-2845.140594
15.570000	-2865.683766
15.580000	-2845.681175
15.590000	-2835.893666
15.600000	-2778.758595
15.610000	-2785.736946
15.620000	-2780.825042
15.630000	-2723.182136
15.640000	-2641.589444
15.650000	-2515.332833
15.660000	-2436.506499
15.670000	-2361.621975
15.680000	-2340.191156
15.690000	-2342.540452
15.700000	-2353.096000
15.710000	-2394.747321
15.720000	-2430.353324
15.730000	-2477.289210
15.740000	-2471.573728
15.750000	-2435.589399
15.760000	-2404.016887
15.770000	-2306.457825
15.780000	-2250.807774
15.790000	-2188.087916
15.800000	-2205.499711
15.810000	-2202.731150
15.820000	-2165.958486
15.830000	-2127.364483
15.840000	-2120.285266
15.850000	-2133.742026
15.860000	-2125.058652
15.870000	-2098.449749
15.880000	-2061.376728
15.890000	-2058.128761
15.900000	-2052.010198
15.910000	-2030.078514
15.920000	-2004.920282
15.930000	-1981.548275
15.940000	-1971.724015
15.950000	-1953.802353
15.960000	-1991.305348
15.970000	-1960.085597
15.980000	-1936.315742
15.990000	-1867.562055
16.000000	-1798.139201
16.010000	-1761.222807
16.020000	-1710.961365
16.030000	-1739.813391
16.040000	-1755.493586
16.050000	-1802.330838
16.060000	-1873.103356
16.070000	-1922.964901
16.080000	-1922.977579
16.090000	-1884.263879
16.100000	-1815.734729
16.110000	-1785.949791
16.120000	-1705.281270
16.130000	-1682.404971
16.140000	-1660.933131
16.150000	-1724.136474
16.160000	-1795.372567
16.170000	-1848.233441
16.180000	-1891.470089
16.190000	-1925.870739
16.200000	-1980.207343
16.210000	-2007.864511
16.220000	-2037.381860
16.230000	-2071.686081
16.240000	-2137.854811
16.250000	-2192.212701
16.260000	-2237.020570
16.270000	-2243.554777
16.280000	-2267.653044
16.290000	-2301.624049
16.300000	-2378.633292
16.310000	-2400.903094
16.320000	-2433.965346
16.330000	-2453.171548
16.340000	-2449.243865
16.350000	-2470.837167
16.360000	-2437.071775
16.370000	-2441.554299
16.380000	-2436.751395
16.390000	-2483.475446
16.400000	-2597.881855
16.410000	-2696.363123
16.420000	-2847.671682
16.430000	-2979.772026
16.440000	-3131.006239
16.450000	-3241.486345
16.460000	-3284.340315
16.470000	-3349.764646
16.480000	-3355.109017
16.490000	-3452.597641
16.500000	-3515.020035
16.510000	-3623.579722
16.520000	-3708.426334
16.530000	-3782.365799
16.540000	-3894.509446
16.550000	-4000.806532
16.560000	-4113.323966
16.570000	-4184.995512
16.580000	-4245.927802
16.590000	-4287.655910
16.600000	-4329.184419
16.610000	-4328.392372
16.620000	-4292.152808
16.630000	-4261.466337
16.640000	-4247.950799
16.650000	-4227.686175
16.660000	-4177.661250
16.670000	-4187.458346
16.680000	-4174.140713
16.690000	-4143.383147
16.700000	-4098.856970
16.710000	-4052.572834
16.720000	-4045.226987
16.730000	-3978.956566
16.740000	-3971.095609
16.750000	-3973.793739
16.760000	-3993.687240
16.770000	-4000.769827
16.780000	-4016.325475
16.790000	-4023.212258
16.800000	-3988.825916
16.810000	-3954.428343
16.820000	-3863.628329
16.830000	-3803.942583
16.840000	-3745.343492
16.850000	-3715.182681
16.860000	-3703.189563
16.870000	-3650.522905
16.880000	-3638.653806
16.890000	-3625.756521
16.900000	-3615.139935
16.910000	-3586.154784
16.920000	-3549.608754
16.930000	-3520.459888
16.940000	-3477.873838
16.950000	-3472.521733
16.960000	-3486.844284
16.970000	-3483.086600
16.980000	-3442.758509
16.990000	-3397.679534
17.000000	-3388.251859
17.010000	-3362.239224
17.020000	-3280.668453
17.030000	-3237.382788
17.040000	-3155.166552
17.050000	-3104.816437
17.060000	-3007.469363
17.070000	-2907.469768
17.080000	-2833.943826
17.090000	-2664.586113
17.100000	-2572.440551
17.110000	-2457.829918
17.120000	-2478.185382
17.130000	-2499.146313
17.140000	-2529.195292
17.150000	-2548.255733
17.160000	-2572.842535
17.170000	-2591.156234
17.180000	-2582.666648
17.190000	-2529.931386
17.200000	-2539.696661
17.210000	-2538.073836
17.220000	-2596.989195
17.230000	-2615.268136
17.240000	-2647.903177
17.250000	-2702.523428
17.260000	-2784.667705
17.270000	-2919.353698
17.280000	-3023.321490
17.290000	-3134.368265
17.300000	-3188.546100
17.310000	-3173.038664
17.320000	-3075.285239
17.330000	-2836.761726
17.340000	-2473.071942
17.350000	-2106.286216
17.360000	-1736.698210
17.370000	-802.773310
17.380000	765.488112
17.390000	2571.956978
17.400000	4056.723921
17.410000	3016.675077
17.420000	-1830.675704
17.430000	-11650.785434
17.440000	-27370.363083
17.450000	-52708.151053
17.460000	-55086.535698
17.470000	-19040.299895
17.480000	10447.633481
17.490000	28370.270586
17.500000	29566.233936
17.510000	20333.878534
17.520000	-56650.893194
17.530000	-96152.157862
17.540000	-49191.710294
17.550000	-31899.261509
17.560000	-22313.530374
17.570000	-15683.231193
17.580000	-9817.168621
17.590000	-5576.915599
17.600000	-2513.994560
17.610000	-1207.537813
17.620000	-264.181134
17.630000	271.115105
17.640000	987.269406
17.650000	1240.615944
17.660000	1604.633421
17.670000	1917.003541
17.680000	2684.747347
17.690000	3318.628871
17.700000	3946.082167
17.710000	4343.880726
17.720000	4809.106141
17.730000	5185.150334
17.740000	5566.754708
17.750000	5828.419645
17.760000	6040.883873
17.770000	6067.731906
17.780000	6112.896677
17.790000	6108.583588
17.800000	6218.501253
17.810000	6300.889026
17.820000	6423.978787
17.830000	6477.002434
17.840000	6479.116143
17.850000	6377.892202
17.860000	6267.298513
17.870000	6124.106257
17.880000	5964.237801
17.890000	5761.858180
17.900000	5551.331453
17.910000	5291.394505
17.920000	5028.661645
17.930000	4733.051717
17.940000	4543.791383
17.950000	4424.564277
17.960000	4377.032519
17.970000	4272.729418
17.980000	4062.504368
17.990000	3854.341856
18.000000	3653.378940
18.010000	3504.752152
18.020000	3316.233665
18.030000	3139.919027
18.040000	2943.218708
18.050000	2747.265740
18.060000	2524.103896
18.070000	2285.425659
18.080000	1961.806582
18.090000	1370.651006
18.100000	776.783694
18.110000	308.549664
18.120000	114.868079
18.130000	-55.597648
18.140000	-206.310778
18.150000	-349.042563
18.160000	-446.293164
18.170000	-557.022006
18.180000	-624.892547
18.190000	-667.134571
18.200000	-713.788912
18.210000	-789.491480
18.220000	-876.157856
18.230000	-1001.227387
18.240000	-1083.479700
18.250000	-1213.015892
18.260000	-1320.944276
18.270000	-1428.629070
18.280000	-1511.523555
18.290000	-1653.110438
18.300000	-1885.530633
18.310000	-2103.781272
18.320000	-2344.490169
18.330000	-2607.912968
18.340000	-3009.323664
18.350000	-2899.165996
18.360000	-2183.235063
18.370000	-1088.183450
18.380000	-152.215890
18.390000	301.846388
18.400000	521.829123
18.410000	436.795363
18.420000	269.478161
18.430000	157.310285
18.440000	247.624075
18.450000	475.381053
18.460000	733.797257
18.470000	935.650259
18.480000	1117.123540
18.490000	1231.508729
18.500000	1270.708909
18.510000	1164.351956
18.520000	1003.228815
18.530000	769.725414
18.540000	480.674046
18.550000	114.827737
18.560000	-237.404534
18.570000	-492.917755
18.580000	-687.635059
18.590000	-409.254459
18.600000	-13.461150
18.610000	466.143300
18.620000	582.763799
18.630000	653.828701
18.640000	762.202545
18.650000	868.037839
18.660000	1020.415710
18.670000	1102.657931
18.680000	1146.572311
18.690000	1116.631402
18.700000	1093.255061
18.710000	1009.410270
18.720000	927.840663
18.730000	864.944273
18.740000	796.198979
18.750000	732.128977
18.760000	697.486817
18.770000	698.489208
18.780000	794.483009
18.790000	859.906654
18.800000	995.000442
18.810000	1129.091709
18.820000	1279.332096
18.830000	1448.813784
18.840000	1598.793772
18.850000	1750.280846
18.860000	1856.987427
18.870000	1975.282606
18.880000	2119.320465
18.890000	2283.487978
18.900000	2453.891224
18.910000	2585.871866
18.920000	2711.605226
18.930000	2779.627432
18.940000	2853.572588
18.950000	2992.643882
18.960000	3221.052701
18.970000	3475.364248
18.980000	3656.715914
18.990000	3830.819446
19.000000	4042.607262
19.010000	4248.318618
19.020000	4409.469690
19.030000	4504.824063
19.040000	4600.199078
19.050000	4640.962144
19.060000	4708.267111
19.070000	4720.621408
19.080000	4774.460587
19.090000	4860.295309
19.100000	4965.954384
19.110000	5088.638060
19.120000	5096.405323
19.130000	5210.598329
19.140000	5254.746169
19.150000	5328.300939
19.160000	5334.200371
19.170000	5309.359860
19.180000	5286.967868
19.190000	5245.594132
19.200000	5213.532437
19.210000	5180.384403
19.220000	5165.509410
19.230000	5158.090836
19.240000	5168.211163
19.250000	5141.957184
19.260000	5117.837384
19.270000	5071.991095
19.280000	5053.002990
19.290000	5052.209690
19.300000	5040.121458
19.310000	4974.738769
19.320000	4966.672007
19.330000	4974.865598
19.340000	5031.439203
19.350000	5077.425904
19.360000	5085.311062
19.370000	5046.390745
19.380000	4929.475261
19.390000	4832.732841
19.400000	4728.316478
19.410000	4604.142494
19.420000	4451.525730
19.430000	4272.942580
19.440000	4125.913655
19.450000	3975.517274
19.460000	3863.207518
19.470000	3762.602787
19.480000	3641.182597
19.490000	3512.848127
19.500000	3332.361802
19.510000	3193.175147
19.520000	3062.896978
19.530000	2958.339745
19.540000	2832.627142
19.550000	2705.725301
19.560000	2606.085418
19.570000	2526.719081
19.580000	2447.547372
19.590000	2328.698851
19.600000	2203.584993
19.610000	2064.273480
19.620000	1942.774740
19.630000	1820.084409
19.640000	1760.904792
19.650000	1662.814019
19.660000	1592.878682
19.670000	1481.213085
19.680000	1347.143809
19.690000	1265.143750
19.700000	1167.733106
19.710000	1053.303300
19.720000	855.192260
19.730000	598.430448
19.740000	395.273966
19.750000	192.152338
19.760000	27.325300
19.770000	-140.292415
19.780000	-300.430487
19.790000	-372.491640
19.800000	-469.665614
19.810000	-479.350590
19.820000	-576.971159
19.830000	-571.481785
19.840000	-481.798277
19.850000	-343.269122
19.860000	-239.368023
19.870000	-219.238724
19.880000	-194.836964
19.890000	-109.235886
19.900000	-48.306302
19.910000	-4.584321
19.920000	-17.511525
19.930000	-70.385038
19.940000	-115.236794
19.950000	-186.684598
19.960000	-216.952274
19.970000	-195.411995
19.980000	-166.422414
19.990000	-215.522224
20.000000	-251.676738
20.010000	-234.707380
20.020000	-169.656600
20.030000	-74.863146
20.040000	-1.326346
20.050000	141.102496
20.060000	296.336577
20.070000	537.825483
20.080000	741.525880
20.090000	862.836048
20.100000	912.938360
20.110000	964.084877
20.120000	1108.142475
20.130000	1202.093566
20.140000	1388.202345
20.150000	1481.609874
20.160000	1621.559011
20.170000	1638.017221
20.180000	1631.065238
20.190000	1583.844907
20.200000	1520.760149
20.210000	1487.473492
20.220000	1460.006778
20.230000	1462.310514
20.240000	1432.093798
20.250000	1421.205409
20.260000	1365.607349
20.270000	1340.227240
20.280000	1302.878254
20.290000	1316.951818
20.300000	1354.979449
20.310000	1384.743597
20.320000	1464.409524
20.330000	1538.637982
20.340000	1577.657888
20.350000	1664.925117
20.360000	1747.948316
20.370000	1908.329684
20.380000	2069.219681
20.390000	2195.933186
20.400000	2305.048621
20.410000	2302.316033
20.420000	2292.508220
20.430000	2258.448237
20.440000	2227.508070
20.450000	2254.072772
20.460000	2269.922880
20.470000	2326.444399
20.480000	2396.206667
20.490000	2513.070008
20.500000	2591.581902
20.510000	2597.589155
20.520000	2607.346497
20.530000	2575.861530
20.540000	2580.867856
20.550000	2579.890192
20.560000	2625.403195
20.570000	2663.379593
20.580000	2715.232373
20.590000	2774.880145
20.600000	2804.728341
20.610000	2813.594846
20.620000	2837.051110
20.630000	2885.326557
20.640000	2911.971431
20.650000	2909.251088
20.660000	2920.785861
20.670000	2975.555022
20.680000	3044.861367
20.690000	3049.138582
20.700000	3112.248113
20.710000	3180.988151
20.720000	3332.077152
20.730000	3485.826704
20.740000	3606.779333
20.750000	3714.233711
20.760000	3716.594712
20.770000	3737.649753
20.780000	3770.133953
20.790000	3817.512049
20.800000	3940.246150
20.810000	4176.729742
20.820000	4418.035972
20.830000	4615.528161
20.840000	4702.524224
20.850000	4848.054806
20.860000	4923.943132
20.870000	4972.462671
20.880000	4971.932191
20.890000	4975.487880
20.900000	4939.399734
20.910000	4868.055766
20.920000	4813.741970
20.930000	4787.252084
20.940000	4800.495554
20.950000	4796.332899
20.960000	4812.917512
20.970000	4810.940070
20.980000	4817.927926
20.990000	4809.809481
21.000000	4800.445529
21.010000	4767.648569
21.020000	4722.789642
21.030000	4661.845335
21.040000	4638.023163
21.050000	4562.382797
21.060000	4516.120628
21.070000	4491.404557
21.080000	4549.134501
21.090000	4679.959781
21.100000	4784.292363
21.110000	4844.798145
21.120000	4806.068235
21.130000	4739.038109
21.140000	4667.434333
21.150000	4551.488841
21.160000	4445.776622
21.170000	4334.461803
21.180000	4236.261284
21.190000	4165.468579
21.200000	4059.579442
21.210000	4065.426513
21.220000	3998.361776
21.230000	3940.155851
21.240000	3780.320749
21.250000	3648.581314
21.260000	3558.328210
21.270000	3454.184198
21.280000	3337.857022
21.290000	3208.476140
21.300000	3151.651053
21.310000	3114.747615
21.320000	3075.218464
21.330000	2993.327453
21.340000	2914.373144
21.350000	2843.816377
21.360000	2791.222371
21.370000	2719.859504
21.380000	2678.652957
21.390000	2641.039443
21.400000	2605.828747
21.410000	2541.810460
21.420000	2492.548107
21.430000	2476.181165
21.440000	2499.570641
21.450000	2511.390827
21.460000	2540.476718
21.470000	2557.435191
21.480000	2525.020430
21.490000	2461.622791
21.500000	2372.182168
21.510000	2298.898890
21.520000	2239.204949
21.530000	2232.271461
21.540000	2271.414768
21.550000	2338.924528
21.560000	2397.546140
21.570000	2432.612638
21.580000	2449.703885
21.590000	2423.183517
21.600000	2399.693046
21.610000	2376.248707
21.620000	2357.665268
21.630000	2374.343495
21.640000	2420.495086
21.650000	2581.643723
21.660000	2803.894261
21.670000	3063.977973
21.680000	3249.663269
21.690000	3418.055751
21.700000	3581.251322
21.710000	3803.216210
21.720000	3979.314038
21.730000	4136.673822
21.740000	4155.572811
21.750000	4212.541970
21.760000	4281.201894
21.770000	4467.030632
21.780000	4650.468632
21.790000	4858.508233
21.800000	5006.679644
21.810000	5145.604581
21.820000	5123.579929
21.830000	5135.896182
21.840000	5009.040010
21.850000	5023.003283
21.860000	4906.553165
21.870000	4963.921769
21.880000	4875.246768
21.890000	4954.472670
21.900000	4843.984513
21.910000	4853.742731
21.920000	4652.510396
21.930000	4703.741630
21.940000	4542.028141
21.950000	4636.513929
21.960000	4321.966986
21.970000	4501.794838
21.980000	4644.160826
21.990000	5892.537528
22.000000	7074.517733
22.010000	8662.652044
22.020000	9177.029201
22.030000	10018.860198
22.040000	8489.122708
22.050000	4795.224552
22.060000	-4121.521607
22.070000	-21983.477242
22.080000	-44322.683381
22.090000	-40547.819921
22.100000	3206.426314
22.110000	32276.197052
22.120000	42660.168021
22.130000	47602.307321
22.140000	45556.542834
22.150000	6430.881448
22.160000	-94091.650937
22.170000	-68865.464625
22.180000	-27001.710298
22.190000	-16019.452891
22.200000	-8851.961224
22.210000	-3085.557490
22.220000	-332.308228
22.230000	2527.112529
22.240000	3314.237364
22.250000	4514.031633
22.260000	4232.192803
22.270000	4488.135093
22.280000	3947.702959
22.290000	4231.115666
22.300000	3995.167004
22.310000	4314.828205
22.320000	4094.088948
22.330000	4225.754220
22.340000	3882.033214
22.350000	3859.553550
22.360000	3539.498553
22.370000	3539.153573
22.380000	3334.231042
22.390000	3387.865088
22.400000	3195.368346
22.410000	3132.387707
22.420000	2888.009995
22.430000	2813.783341
22.440000	2599.885452
22.450000	2579.659233
22.460000	2490.167031
22.470000	2579.646369
22.480000	2580.402218
22.490000	2566.272250
22.500000	2450.894801
22.510000	2293.659190
22.520000	2119.650574
22.530000	1971.113985
22.540000	1813.211992
22.550000	1735.591332
22.560000	1607.512024
22.570000	1532.719899
22.580000	1403.902811
22.590000	1342.811289
22.600000	1262.717916
22.610000	1252.712386
22.620000	1190.943686
22.630000	1130.747884
22.640000	1028.553061
22.650000	944.380874
22.660000	846.887647
22.670000	819.969713
22.680000	739.620386
22.690000	672.715166
22.700000	463.704390
22.710000	21.262349
22.720000	-300.365990
22.730000	-491.852834
22.740000	-489.004213
22.750000	-584.002212
22.760000	-771.216697
22.770000	-894.467158
22.780000	-1089.296322
22.790000	-1165.774233
22.800000	-1026.703535
22.810000	-703.845212
22.820000	-332.474914
22.830000	-175.349657
22.840000	-36.740493
22.850000	-1.381347
22.860000	107.618771
22.870000	184.045531
22.880000	259.923726
22.890000	300.852507
22.900000	201.593193
22.910000	83.504122
22.920000	-51.179050
22.930000	-143.807320
22.940000	-295.177360
22.950000	-456.499521
22.960000	-622.423391
22.970000	-711.782033
22.980000	-754.108814
22.990000	-709.011295
23.000000	-629.192193
23.010000	-589.112701
23.020000	-524.376688
23.030000	-418.498305
23.040000	-231.318880
23.050000	17.458855
23.060000	219.332107
23.070000	399.617201
23.080000	454.458521
23.090000	492.519352
23.100000	508.428398
23.110000	537.352738
23.120000	572.098378
23.130000	649.119010
23.140000	771.486225
23.150000	842.417125
23.160000	958.541271
23.170000	1049.723053
23.180000	1148.006004
23.190000	1189.557889
23.200000	1195.827059
23.210000	1286.113420
23.220000	1331.748826
23.230000	1353.524392
23.240000	1303.590163
23.250000	1271.417105
23.260000	1267.983633
23.270000	1283.684133
23.280000	1304.124592
23.290000	1303.008895
23.300000	1282.096139
23.310000	1238.069681
23.320000	1221.629103
23.330000	1272.175576
23.340000	1281.495849
23.350000	1302.793767
23.360000	1301.186003
23.370000	1387.540674
23.380000	1493.441849
23.390000	1553.015707
23.400000	1566.597047
23.410000	1514.148644
23.420000	1484.093672
23.430000	1497.135448
23.440000	1508.780750
23.450000	1537.327212
23.460000	1596.484031
23.470000	1656.090249
23.480000	1751.722583
23.490000	1777.816625
23.500000	1908.743923
23.510000	2003.687489
23.520000	2139.034919
23.530000	2192.348247
23.540000	2227.837426
23.550000	2265.883699
23.560000	2288.860138
23.570000	2310.826958
23.580000	2316.786647
23.590000	2341.887701
23.600000	2340.132838
23.610000	2335.780082
23.620000	2307.655696
23.630000	2291.125292
23.640000	2236.572094
23.650000	2201.053169
23.660000	2211.357752
23.670000	2275.544695
23.680000	2275.073477
23.690000	2300.216864
23.700000	2313.708687
23.710000	2425.559297
23.720000	2536.363776
23.730000	2616.016403
23.740000	2631.598076
23.750000	2553.732762
23.760000	2465.052104
23.770000	2373.819507
23.780000	2357.934574
23.790000	2363.109558
23.800000	2365.128513
23.810000	2302.856240
23.820000	2270.636665
23.830000	2258.532813
23.840000	2276.745547
23.850000	2260.210519
23.860000	2256.367035
23.870000	2213.481852
23.880000	2155.056900
23.890000	2087.898109
23.900000	2041.328420
23.910000	2006.725642
23.920000	1968.090845
23.930000	1936.801856
23.940000	1919.008044
23.950000	1918.369334
23.960000	1896.637193
23.970000	1847.513898
23.980000	1762.077396
23.990000	1704.673544
24.000000	1667.796337
24.010000	1707.813606
24.020000	1700.152178
24.030000	1728.655508
24.040000	1720.201842
24.050000	1714.260444
24.060000	1742.679878
24.070000	1768.788651
24.080000	1812.420063
24.090000	1772.420324
24.100000	1674.272632
24.110000	1574.564113
24.120000	1421.583214
24.130000	1293.147895
24.140000	1155.667459
24.150000	1097.140703
24.160000	1089.837657
24.170000	1077.119989
24.180000	1121.061845
24.190000	1058.871653
24.200000	1047.549733
24.210000	963.901147
24.220000	979.556821
24.230000	972.495568
24.240000	949.283902
24.250000	917.120556
24.260000	896.404745
24.270000	945.870339
24.280000	988.166657
24.290000	1034.874539
24.300000	1020.722965
24.310000	1019.929308
24.320000	1026.388087
24.330000	1122.217782
24.340000	1242.970671
24.350000	1302.428431
24.360000	1335.864186
24.370000	1411.702650
24.380000	1536.889961
24.390000	1680.168308
24.400000	1719.625025
24.410000	1763.218840
24.420000	1729.789400
24.430000	1729.070969
24.440000	1722.151334
24.450000	1732.695993
24.460000	1712.578957
24.470000	1695.136132
24.480000	1739.998671
24.490000	1805.880781
24.500000	1976.003845
24.510000	2105.571116
24.520000	2249.792089
24.530000	2318.089879
24.540000	2398.962777
24.550000	2435.762331
24.560000	2488.668418
24.570000	2526.726934
24.580000	2579.745101
24.590000	2632.433517
24.600000	2665.337855
24.610000	2734.202467
24.620000	2822.248886
24.630000	2917.162764
24.640000	2987.949296
24.650000	3018.332427
24.660000	3032.925853
24.670000	3055.324678
24.680000	3058.918098
24.690000	3050.223012
24.700000	3085.857870
24.710000	3145.046834
24.720000	3260.076226
24.730000	3385.117052
24.740000	3474.751404
24.750000	3549.819674
24.760000	3566.026141
24.770000	3548.486083
24.780000	3466.248026
24.790000	3357.437999
24.800000	3268.249134
24.810000	3222.078968
24.820000	3188.181106
24.830000	3197.964783
24.840000	3229.368213
24.850000	3269.271670
24.860000	3281.215557
24.870000	3297.820443
24.880000	3309.660692
24.890000	3335.821897
24.900000	3326.284813
24.910000	3319.763580
24.920000	3283.403251
24.930000	3236.533831
24.940000	3211.570533
24.950000	3220.923018
24.960000	3249.329986
24.970000	3258.578275
24.980000	3283.613737
24.990000	3348.187040
25.000000	3443.453094
25.010000	3516.313583
25.020000	3505.904613
25.030000	3416.914474
25.040000	3358.264177
25.050000	3375.958427
25.060000	3477.795420
25.070000	3574.673580
25.080000	3605.000267
25.090000	3580.849799
25.100000	3465.991838
25.110000	3342.597920
25.120000	3214.007545
25.130000	3103.635766
25.140000	2992.802798
25.150000	2882.951264
25.160000	2800.883958
25.170000	2730.024390
25.180000	2724.362874
25.190000	2708.272599
25.200000	2713.996281
25.210000	2695.156874
25.220000	2676.337016
25.230000	2665.501687
25.240000	2598.312407
25.250000	2499.584993
25.260000	2381.406827
25.270000	2322.331859
25.280000	2319.753003
25.290000	2376.562148
25.300000	2421.691332
25.310000	2450.096022
25.320000	2378.196478
25.330000	2272.484857
25.340000	2151.673415
25.350000	2102.824671
25.360000	2093.579148
25.370000	2101.274787
25.380000	2069.469288
25.390000	1578.464555
25.400000	1085.164607
25.410000	663.326323
25.420000	612.197069
25.430000	638.271334
25.440000	539.853105
25.450000	536.070372
25.460000	457.132604
25.470000	450.091416
25.480000	416.750398
25.490000	373.432327
25.500000	344.054491
25.510000	363.462131
25.520000	400.496279
25.530000	424.472320
25.540000	369.146249
25.550000	288.445178
25.560000	171.577836
25.570000	79.568077
25.580000	57.578744
25.590000	-17.498219
25.600000	-61.584902
25.610000	-174.142135
25.620000	-210.825681
25.630000	-232.770423
25.640000	-254.030402
25.650000	-157.137304
25.660000	-104.777659
25.670000	-21.295871
25.680000	-68.630370
25.690000	-134.494045
25.700000	-196.863690
25.710000	-240.851081
25.720000	-280.990322
25.730000	-309.298675
25.740000	-277.498585
25.750000	-249.219166
25.760000	-251.745795
25.770000	-303.961910
25.780000	-360.334637
25.790000	-419.350672
25.800000	-463.410971
25.810000	-455.223573
25.820000	-449.284186
25.830000	-503.657606
25.840000	-549.366345
25.850000	-595.202993
25.860000	-613.251975
25.870000	-595.714461
25.880000	-584.859149
25.890000	-545.604040
25.900000	-610.523890
25.910000	-699.178833
25.920000	-802.327644
25.930000	-896.664972
25.940000	-937.362101
25.950000	-980.390958
25.960000	-977.078634
25.970000	-1001.764123
25.980000	-973.016472
25.990000	-965.220871
26.000000	-970.724417
26.010000	-1017.778132
26.020000	-1085.305243
26.030000	-1085.166022
26.040000	-1077.648344
26.050000	-1062.080866
26.060000	-1113.901306
26.070000	-1192.718164
26.080000	-1271.905755
26.090000	-1329.421478
26.100000	-1346.980363
26.110000	-1405.463399
26.120000	-1446.077312
26.130000	-1511.529786
26.140000	-1541.977994
26.150000	-1588.325443
26.160000	-1617.078327
26.170000	-1682.132257
26.180000	-1693.226866
26.190000	-1703.784177
26.200000	-1658.867914
26.210000	-1592.476793
26.220000	-1591.456837
26.230000	-1591.897692
26.240000	-1678.268587
26.250000	-1769.017492
26.260000	-1875.496653
26.270000	-2036.713978
26.280000	-2165.551934
26.290000	-2309.292787
26.300000	-2417.524953
26.310000	-2503.572243
26.320000	-2603.425338
26.330000	-2595.289606
26.340000	-2648.669892
26.350000	-2685.544014
26.360000	-2814.984668
26.370000	-2941.131346
26.380000	-3023.018759
26.390000	-3139.956965
26.400000	-3273.698894
26.410000	-3495.949670
26.420000	-3667.726395
26.430000	-3824.687400
26.440000	-3954.225996
26.450000	-4169.715087
26.460000	-4329.976320
26.470000	-4562.102032
26.480000	-4810.854164
26.490000	-5087.639503
26.500000	-5294.738916
26.510000	-5415.712632
26.520000	-5568.644655
26.530000	-5840.357126
26.540000	-6013.711793
26.550000	-6085.591348
26.560000	-5936.132467
26.570000	-5807.499674
26.580000	-5693.556473
26.590000	-5583.753362
26.600000	-5369.072982
26.610000	-5197.748663
26.620000	-4989.335196
26.630000	-4980.326949
26.640000	-4863.154250
26.650000	-4927.268119
26.660000	-4679.552319
26.670000	-4305.473370
26.680000	-3215.895063
26.690000	-2114.640527
26.700000	-821.559093
26.710000	-151.962789
26.720000	543.038968
26.730000	-1375.747261
26.740000	-7044.003149
26.750000	-18201.597644
26.760000	-44227.926509
26.770000	-53463.435535
26.780000	-26824.204650
26.790000	11674.132686
26.800000	31801.045794
26.810000	38996.193630
26.820000	38642.650176
26.830000	31610.052421
26.840000	-43560.838317
26.850000	-103854.381031
26.860000	-56483.942117
26.870000	-33264.881126
26.880000	-23610.772184
26.890000	-17642.096141
26.900000	-12847.673535
26.910000	-10388.564486
26.920000	-7965.253818
26.930000	-6982.393647
26.940000	-5772.252589
26.950000	-5722.140656
26.960000	-5254.638667
26.970000	-5283.931042
26.980000	-4746.796792
26.990000	-4598.805767
27.000000	-4169.698771
27.010000	-4329.122319
27.020000	-4580.730992
27.030000	-5532.690856
27.040000	-6555.585419
27.050000	-7903.242871
27.060000	-8929.528503
27.070000	-9991.446741
27.080000	-10783.551576
27.090000	-11725.210236
27.100000	-12349.712526
27.110000	-12887.128331
27.120000	-13158.326295
27.130000	-13537.812891
27.140000	-13930.565379
27.150000	-14339.684173
27.160000	-14624.662811
27.170000	-14926.583772
27.180000	-15235.602672
27.190000	-15605.918187
27.200000	-15865.849583
27.210000	-16146.680596
27.220000	-16463.374562
27.230000	-16792.937876
27.240000	-16686.329965
27.250000	-16829.915595
27.260000	-18109.101946
27.270000	-20477.271157
27.280000	-22640.720821
27.290000	-23887.497575
27.300000	-24233.278699
27.310000	-24189.359758
27.320000	-23927.846670
27.330000	-23096.055980
27.340000	-21316.288236
27.350000	-18678.311852
27.360000	-15924.130202
27.370000	-13101.937590
27.380000	-9917.974791
27.390000	-6539.103209
27.400000	-3522.833262
27.410000	-1029.451546
27.420000	966.879671
27.430000	2487.916386
27.440000	3517.884292
27.450000	4163.014801
27.460000	4586.441186
27.470000	4868.281781
27.480000	5053.632354
27.490000	5035.863032
27.500000	4939.857556
27.510000	4783.214920
27.520000	4657.351245
27.530000	4529.291308
27.540000	4368.919317
27.550000	4168.161785
27.560000	3949.973147
27.570000	3787.905397
27.580000	3570.921089
27.590000	3315.734567
27.600000	3029.577886
27.610000	2802.192121
27.620000	2728.651275
27.630000	2674.421140
27.640000	2630.137362
27.650000	2477.754026
27.660000	2287.208904
27.670000	2079.020411
27.680000	1821.205555
27.690000	1126.348026
