Time(s)	IR_denoised_wiener
0.000000	15.075255
0.010000	39.309964
0.020000	51.710388
0.030000	64.944214
0.040000	79.489924
0.050000	69.164771
0.060000	-18.811027
0.070000	-168.099240
0.080000	-302.956863
0.090000	-379.458990
0.100000	-415.614789
0.110000	-430.831533
0.120000	-438.264797
0.130000	-435.504203
0.140000	-425.940580
0.150000	-424.552167
0.160000	-425.904051
0.170000	-424.945225
0.180000	-422.227235
0.190000	-429.045731
0.200000	-455.224592
0.210000	-478.068746
0.220000	-491.947582
0.230000	-492.106534
0.240000	-490.395478
0.250000	-480.774751
0.260000	-466.548863
0.270000	-445.441054
0.280000	-426.079202
0.290000	-411.439089
0.300000	-393.259515
0.310000	-370.805546
0.320000	-345.460307
0.330000	-326.876285
0.340000	-305.623830
0.350000	-283.660344
0.360000	-256.117552
0.370000	-231.496971
0.380000	-205.592449
0.390000	-177.692837
0.400000	-153.434649
0.410000	-136.232696
0.420000	-123.945243
0.430000	-101.086451
0.440000	-74.200446
0.450000	-54.303483
0.460000	-35.092630
0.470000	-13.881885
0.480000	-44.491672
0.490000	-161.425781
0.500000	-323.033653
0.510000	-450.887655
0.520000	-516.398393
0.530000	-544.181754
0.540000	-548.086535
0.550000	-536.480652
0.560000	-519.131916
0.570000	-509.810811
0.580000	-514.843988
0.590000	-524.116478
0.600000	-524.903086
0.610000	-528.174950
0.620000	-549.997420
0.630000	-585.530768
0.640000	-616.743800
0.650000	-635.602501
0.660000	-648.217663
0.670000	-653.008579
0.680000	-649.717464
0.690000	-635.764079
0.700000	-614.255512
0.710000	-591.551295
0.720000	-568.133686
0.730000	-543.692750
0.740000	-505.333853
0.750000	-460.246067
0.760000	-413.551848
0.770000	-380.851799
0.780000	-356.735905
0.790000	-336.149070
0.800000	-313.609478
0.810000	-288.483804
0.820000	-262.513844
0.830000	-228.150743
0.840000	-182.121126
0.850000	-142.233541
0.860000	-118.398118
0.870000	-83.573032
0.880000	-44.793671
0.890000	-53.392599
0.900000	-148.180018
0.910000	-282.335609
0.920000	-385.527199
0.930000	-437.775770
0.940000	-450.653330
0.950000	-434.571811
0.960000	-405.152941
0.970000	-373.046800
0.980000	-352.354731
0.990000	-339.499362
1.000000	-316.209051
1.010000	-288.377944
1.020000	-265.432809
1.030000	-263.969371
1.040000	-270.266538
1.050000	-272.258666
1.060000	-270.160734
1.070000	-258.559320
1.080000	-239.101216
1.090000	-214.556696
1.100000	-189.072524
1.110000	-160.898329
1.120000	-128.404689
1.130000	-94.279080
1.140000	-61.431463
1.150000	-27.004725
1.160000	14.855859
1.170000	57.875445
1.180000	98.790515
1.190000	132.723508
1.200000	162.719188
1.210000	188.534731
1.220000	211.624643
1.230000	247.690468
1.240000	281.082633
1.250000	303.504971
1.260000	325.898622
1.270000	354.611945
1.280000	344.879230
1.290000	255.032354
1.300000	118.370585
1.310000	6.863735
1.320000	-53.292440
1.330000	-77.447738
1.340000	-74.633611
1.350000	-59.470146
1.360000	-43.662447
1.370000	-31.167030
1.380000	-31.402127
1.390000	-31.832880
1.400000	-28.862370
1.410000	-28.220446
1.420000	-44.041881
1.430000	-77.602293
1.440000	-103.176918
1.450000	-110.055146
1.460000	-100.042851
1.470000	-79.216330
1.480000	-51.265580
1.490000	-19.072058
1.500000	19.495279
1.510000	59.355479
1.520000	91.214224
1.530000	117.117072
1.540000	146.924128
1.550000	183.161270
1.560000	218.576510
1.570000	250.520692
1.580000	285.556691
1.590000	319.486302
1.600000	346.835692
1.610000	363.758619
1.620000	381.123920
1.630000	403.649424
1.640000	441.729694
1.650000	487.124237
1.660000	520.941303
1.670000	552.979503
1.680000	581.422556
1.690000	561.685404
1.700000	461.906747
1.710000	318.212578
1.720000	216.161128
1.730000	171.849938
1.740000	158.933109
1.750000	163.488803
1.760000	177.689082
1.770000	198.106881
1.780000	212.387530
1.790000	211.033004
1.800000	205.777696
1.810000	216.615079
1.820000	242.743880
1.830000	258.762585
1.840000	246.362406
1.850000	233.001850
1.860000	232.242010
1.870000	246.843892
1.880000	261.370596
1.890000	278.701728
1.900000	296.450057
1.910000	321.550360
1.920000	354.142564
1.930000	386.676094
1.940000	411.800358
1.950000	429.787346
1.960000	452.788538
1.970000	476.150037
1.980000	502.093034
1.990000	520.442616
2.000000	543.088565
2.010000	564.651357
2.020000	589.407367
2.030000	610.125062
2.040000	626.708825
2.050000	648.253547
2.060000	674.280001
2.070000	693.314321
2.080000	707.517583
2.090000	724.351742
2.100000	705.925813
2.110000	615.019342
2.120000	462.093126
2.130000	332.520598
2.140000	263.088003
2.150000	243.520050
2.160000	245.995249
2.170000	257.186309
2.180000	274.224653
2.190000	284.786464
2.200000	281.761340
2.210000	271.048412
2.220000	269.955184
2.230000	279.558030
2.240000	278.713342
2.250000	258.726940
2.260000	240.176751
2.270000	234.495339
2.280000	238.892122
2.290000	239.189906
2.300000	238.278225
2.310000	243.854617
2.320000	253.927735
2.330000	268.146930
2.340000	277.175401
2.350000	286.101442
2.360000	300.713977
2.370000	324.672160
2.380000	356.526982
2.390000	385.839714
2.400000	411.319704
2.410000	438.981654
2.420000	470.053328
2.430000	500.061709
2.440000	523.738261
2.450000	541.778025
2.460000	557.383011
2.470000	580.465414
2.480000	615.632209
2.490000	650.391231
2.500000	672.166270
2.510000	693.671302
2.520000	704.922477
2.530000	650.778187
2.540000	522.088867
2.550000	373.009154
2.560000	281.938404
2.570000	246.969116
2.580000	243.341077
2.590000	248.550851
2.600000	259.746300
2.610000	276.420604
2.620000	284.395215
2.630000	286.952553
2.640000	292.672581
2.650000	316.448739
2.660000	331.448563
2.670000	323.592829
2.680000	304.574530
2.690000	297.380122
2.700000	300.578602
2.710000	306.762485
2.720000	315.212174
2.730000	327.762641
2.740000	342.779972
2.750000	354.361132
2.760000	362.640719
2.770000	367.902705
2.780000	376.460332
2.790000	388.703280
2.800000	404.887814
2.810000	419.763259
2.820000	436.612890
2.830000	453.081530
2.840000	470.621823
2.850000	486.996015
2.860000	505.585487
2.870000	529.849623
2.880000	554.463544
2.890000	572.971583
2.900000	590.644868
2.910000	619.716658
2.920000	650.703466
2.930000	670.722240
2.940000	687.755474
2.950000	695.624612
2.960000	652.645225
2.970000	532.838293
2.980000	382.334106
2.990000	276.065057
3.000000	231.799524
3.010000	220.095258
3.020000	216.544766
3.030000	214.773877
3.040000	218.583066
3.050000	223.360724
3.060000	217.867382
3.070000	217.618162
3.080000	227.385518
3.090000	232.752436
3.100000	212.814926
3.110000	177.566877
3.120000	152.214299
3.130000	146.265931
3.140000	144.138692
3.150000	149.611645
3.160000	155.960591
3.170000	161.898186
3.180000	171.389016
3.190000	180.086873
3.200000	196.109518
3.210000	212.491514
3.220000	234.453740
3.230000	257.124885
3.240000	274.049593
3.250000	284.362456
3.260000	294.921703
3.270000	306.504564
3.280000	312.360568
3.290000	313.588518
3.300000	318.071211
3.310000	331.586022
3.320000	344.324563
3.330000	356.195247
3.340000	377.524410
3.350000	396.327254
3.360000	404.986491
3.370000	417.100609
3.380000	433.663201
3.390000	403.646504
3.400000	295.642051
3.410000	150.304744
3.420000	36.278354
3.430000	-26.590968
3.440000	-57.613322
3.450000	-66.213804
3.460000	-66.940517
3.470000	-64.565078
3.480000	-66.697972
3.490000	-73.986864
3.500000	-69.497279
3.510000	-53.546683
3.520000	-43.100130
3.530000	-54.195613
3.540000	-78.728835
3.550000	-96.570851
3.560000	-108.508157
3.570000	-114.370469
3.580000	-114.048491
3.590000	-105.927298
3.600000	-95.369838
3.610000	-84.236856
3.620000	-75.456966
3.630000	-67.965460
3.640000	-57.967109
3.650000	-46.471608
3.660000	-23.211120
3.670000	4.207810
3.680000	26.775175
3.690000	40.802173
3.700000	54.360269
3.710000	76.966508
3.720000	95.448550
3.730000	101.041287
3.740000	104.154001
3.750000	111.336140
3.760000	117.056448
3.770000	118.200639
3.780000	123.219833
3.790000	119.903728
3.800000	71.209850
3.810000	-38.105646
3.820000	-179.452578
3.830000	-302.161051
3.840000	-380.958607
3.850000	-409.041531
3.860000	-415.671877
3.870000	-420.671431
3.880000	-423.438229
3.890000	-427.756383
3.900000	-428.289695
3.910000	-424.297942
3.920000	-404.891087
3.930000	-392.041381
3.940000	-401.253483
3.950000	-422.828174
3.960000	-442.048486
3.970000	-449.409477
3.980000	-444.983792
3.990000	-428.771714
4.000000	-405.714265
4.010000	-384.927477
4.020000	-363.861884
4.030000	-341.537192
4.040000	-320.469203
4.050000	-300.590362
4.060000	-283.532187
4.070000	-259.730897
4.080000	-233.418290
4.090000	-204.645623
4.100000	-177.768999
4.110000	-149.325429
4.120000	-119.249368
4.130000	-92.807316
4.140000	-74.515552
4.150000	-60.721746
4.160000	-41.553400
4.170000	-5.754896
4.180000	29.206909
4.190000	54.779716
4.200000	81.562661
4.210000	92.781550
4.220000	43.382709
4.230000	-87.608950
4.240000	-232.345523
4.250000	-325.131371
4.260000	-360.365253
4.270000	-374.897267
4.280000	-381.780268
4.290000	-378.080332
4.300000	-364.332986
4.310000	-355.431431
4.320000	-368.019536
4.330000	-380.807790
4.340000	-372.168356
4.350000	-349.393863
4.360000	-346.521330
4.370000	-369.701121
4.380000	-390.243467
4.390000	-389.166973
4.400000	-375.173974
4.410000	-360.776027
4.420000	-346.872395
4.430000	-325.494263
4.440000	-296.058369
4.450000	-270.715136
4.460000	-248.342613
4.470000	-235.425348
4.480000	-225.393170
4.490000	-216.284107
4.500000	-199.561947
4.510000	-176.974438
4.520000	-152.874923
4.530000	-124.114923
4.540000	-85.653842
4.550000	-35.401699
4.560000	14.389282
4.570000	61.199312
4.580000	94.938959
4.590000	131.732620
4.600000	183.002308
4.610000	241.741520
4.620000	297.247999
4.630000	342.953887
4.640000	373.355008
4.650000	349.933591
4.660000	254.709381
4.670000	126.593452
4.680000	32.330378
4.690000	-8.352706
4.700000	-20.649278
4.710000	-29.442346
4.720000	-37.713509
4.730000	-37.981706
4.740000	-41.976018
4.750000	-56.988121
4.760000	-71.332708
4.770000	-60.773425
4.780000	-39.274741
4.790000	-30.399238
4.800000	-42.322383
4.810000	-56.433076
4.820000	-59.533547
4.830000	-57.000307
4.840000	-46.539746
4.850000	-35.076014
4.860000	-19.334817
4.870000	-2.988071
4.880000	10.051791
4.890000	18.956960
4.900000	30.641222
4.910000	46.735319
4.920000	66.404664
4.930000	85.685476
4.940000	103.355639
4.950000	121.490970
4.960000	135.801684
4.970000	147.490378
4.980000	155.085489
4.990000	165.022882
5.000000	180.538154
5.010000	198.381496
5.020000	212.493294
5.030000	236.303434
5.040000	268.584240
5.050000	295.366040
5.060000	306.527686
5.070000	306.978120
5.080000	277.913792
5.090000	184.386572
5.100000	37.934549
5.110000	-91.538104
5.120000	-162.616789
5.130000	-191.114217
5.140000	-208.037862
5.150000	-220.787234
5.160000	-228.264417
5.170000	-239.985297
5.180000	-256.629669
5.190000	-265.643718
5.200000	-242.124780
5.210000	-176.842695
5.220000	-100.560980
5.230000	-58.914158
5.240000	-71.424166
5.250000	-111.357680
5.260000	-143.764282
5.270000	-169.399166
5.280000	-185.595289
5.290000	-179.245997
5.300000	-128.570215
5.310000	-36.996871
5.320000	70.894907
5.330000	167.408105
5.340000	229.202687
5.350000	188.187136
5.360000	69.930956
5.370000	-46.056166
5.380000	-74.495807
5.390000	-17.377093
5.400000	41.681563
5.410000	88.320145
5.420000	123.060688
5.430000	158.878739
5.440000	186.873152
5.450000	191.579002
5.460000	190.268164
5.470000	199.101784
5.480000	221.453223
5.490000	249.418361
5.500000	260.422358
5.510000	270.999657
5.520000	274.818921
5.530000	246.017131
5.540000	152.354052
5.550000	16.340659
5.560000	-96.169843
5.570000	-155.948215
5.580000	-167.966564
5.590000	-160.814591
5.600000	-135.533999
5.610000	-104.893295
5.620000	-77.938404
5.630000	-71.173418
5.640000	-76.790709
5.650000	-69.253259
5.660000	-55.915505
5.670000	-54.878507
5.680000	-84.891711
5.690000	-120.565892
5.700000	-141.732693
5.710000	-146.153361
5.720000	-150.476794
5.730000	-158.891584
5.740000	-162.369973
5.750000	-161.508686
5.760000	-159.790589
5.770000	-168.667583
5.780000	-174.328790
5.790000	-167.359254
5.800000	-153.429519
5.810000	-138.907664
5.820000	-131.388834
5.830000	-119.258920
5.840000	-104.909280
5.850000	-90.800087
5.860000	-77.949208
5.870000	-66.529431
5.880000	-60.189571
5.890000	-58.772931
5.900000	-56.940695
5.910000	-52.216342
5.920000	-31.521804
5.930000	-0.905105
5.940000	23.676665
5.950000	34.902927
5.960000	44.399860
5.970000	33.098956
5.980000	-39.798043
5.990000	-170.444196
6.000000	-304.051555
6.010000	-384.847217
6.020000	-420.007587
6.030000	-428.813491
6.040000	-429.491112
6.050000	-427.609102
6.060000	-420.148860
6.070000	-424.659384
6.080000	-435.274181
6.090000	-436.883198
6.100000	-426.298197
6.110000	-419.358920
6.120000	-436.200684
6.130000	-460.601814
6.140000	-476.303786
6.150000	-484.092590
6.160000	-486.279160
6.170000	-483.447051
6.180000	-473.114887
6.190000	-454.341519
6.200000	-436.180848
6.210000	-423.761655
6.220000	-414.428874
6.230000	-405.050922
6.240000	-392.213557
6.250000	-382.572268
6.260000	-368.497078
6.270000	-355.000063
6.280000	-345.982926
6.290000	-341.289067
6.300000	-332.652500
6.310000	-317.800841
6.320000	-302.550907
6.330000	-289.510722
6.340000	-267.284741
6.350000	-254.176363
6.360000	-253.852865
6.370000	-247.989722
6.380000	-232.000470
6.390000	-245.800684
6.400000	-330.025720
6.410000	-461.646080
6.420000	-580.826128
6.430000	-658.118140
6.440000	-699.266681
6.450000	-709.131537
6.460000	-703.614940
6.470000	-686.322142
6.480000	-676.550884
6.490000	-680.020301
6.500000	-685.318216
6.510000	-678.924700
6.520000	-672.700873
6.530000	-681.717108
6.540000	-706.589934
6.550000	-730.340864
6.560000	-746.053206
6.570000	-756.538143
6.580000	-760.050994
6.590000	-760.966145
6.600000	-760.253565
6.610000	-762.618750
6.620000	-772.336168
6.630000	-786.132042
6.640000	-791.274408
6.650000	-790.235566
6.660000	-783.756553
6.670000	-774.225790
6.680000	-755.096509
6.690000	-729.458340
6.700000	-702.658692
6.710000	-676.898436
6.720000	-657.779898
6.730000	-637.518264
6.740000	-616.139207
6.750000	-583.994987
6.760000	-551.437049
6.770000	-527.685678
6.780000	-515.267048
6.790000	-505.228850
6.800000	-517.393548
6.810000	-592.714317
6.820000	-730.289469
6.830000	-871.592678
6.840000	-964.754953
6.850000	-1017.519487
6.860000	-1045.125848
6.870000	-1060.992883
6.880000	-1073.701802
6.890000	-1090.347293
6.900000	-1109.807030
6.910000	-1129.583172
6.920000	-1148.133528
6.930000	-1153.676299
6.940000	-1162.422332
6.950000	-1190.320838
6.960000	-1238.221833
6.970000	-1277.436445
6.980000	-1294.615686
6.990000	-1311.534089
7.000000	-1331.176840
7.010000	-1355.848769
7.020000	-1376.926876
7.030000	-1409.113057
7.040000	-1468.232179
7.050000	-1538.843620
7.060000	-1599.071913
7.070000	-1635.482752
7.080000	-1654.183976
7.090000	-1663.011879
7.100000	-1664.165721
7.110000	-1654.745406
7.120000	-1625.013655
7.130000	-1568.372409
7.140000	-1504.150865
7.150000	-1454.558587
7.160000	-1425.795221
7.170000	-1394.213754
7.180000	-1357.716234
7.190000	-1351.522048
7.200000	-1380.771751
7.210000	-1395.897010
7.220000	-1400.857687
7.230000	-1488.064770
7.240000	-1701.694121
7.250000	-1943.056229
7.260000	-2104.388157
7.270000	-2181.547902
7.280000	-2224.780258
7.290000	-2268.878891
7.300000	-2302.594037
7.310000	-2325.788244
7.320000	-2348.650377
7.330000	-2405.979063
7.340000	-2475.764223
7.350000	-2509.309770
7.360000	-2515.248340
7.370000	-2537.951065
7.380000	-2598.213068
7.390000	-2638.589083
7.400000	-2631.470930
7.410000	-2592.891032
7.420000	-2559.662807
7.430000	-2547.678646
7.440000	-2551.338284
7.450000	-2563.002780
7.460000	-2563.189489
7.470000	-2538.885730
7.480000	-2494.629384
7.490000	-2450.016617
7.500000	-2416.586469
7.510000	-2402.343174
7.520000	-2400.708258
7.530000	-2402.533458
7.540000	-2390.009726
7.550000	-2373.671055
7.560000	-2363.846080
7.570000	-2360.982933
7.580000	-2352.514060
7.590000	-2341.537820
7.600000	-2325.031132
7.610000	-2303.968836
7.620000	-2280.415575
7.630000	-2275.315298
7.640000	-2285.931103
7.650000	-2305.846968
7.660000	-2367.080009
7.670000	-2491.210280
7.680000	-2667.332476
7.690000	-2824.600874
7.700000	-2929.545289
7.710000	-2986.619082
7.720000	-3021.004233
7.730000	-3048.466352
7.740000	-3070.611588
7.750000	-3089.166943
7.760000	-3122.115585
7.770000	-3165.658687
7.780000	-3201.763765
7.790000	-3214.672233
7.800000	-3227.700416
7.810000	-3257.179983
7.820000	-3296.419441
7.830000	-3329.841135
7.840000	-3353.346648
7.850000	-3377.050135
7.860000	-3393.065365
7.870000	-3402.122534
7.880000	-3405.290174
7.890000	-3414.060801
7.900000	-3428.653311
7.910000	-3445.155712
7.920000	-3445.477506
7.930000	-3436.484491
7.940000	-3425.466827
7.950000	-3433.680869
7.960000	-3459.220360
7.970000	-3483.658273
7.980000	-3497.824269
7.990000	-3503.489207
8.000000	-3497.570164
8.010000	-3465.107990
8.020000	-3422.220345
8.030000	-3393.567609
8.040000	-3401.011965
8.050000	-3401.329318
8.060000	-3345.934759
8.070000	-3240.718233
8.080000	-3134.785503
8.090000	-3132.399544
8.100000	-3259.560488
8.110000	-3457.652585
8.120000	-3635.715690
8.130000	-3732.120138
8.140000	-3779.929808
8.150000	-3829.766270
8.160000	-3890.491082
8.170000	-3924.076946
8.180000	-3940.976958
8.190000	-3979.252994
8.200000	-4058.867401
8.210000	-4111.305022
8.220000	-4105.979027
8.230000	-4107.399913
8.240000	-4148.450093
8.250000	-4204.113367
8.260000	-4190.535057
8.270000	-4094.126541
8.280000	-3988.296896
8.290000	-3947.244319
8.300000	-3979.979945
8.310000	-4008.888880
8.320000	-3987.511037
8.330000	-3941.157446
8.340000	-3916.859714
8.350000	-3911.376887
8.360000	-3896.894184
8.370000	-3871.083925
8.380000	-3853.403699
8.390000	-3855.515689
8.400000	-3864.589651
8.410000	-3880.055712
8.420000	-3898.506581
8.430000	-3937.389281
8.440000	-3990.759672
8.450000	-4048.442418
8.460000	-4104.753712
8.470000	-4173.274476
8.480000	-4274.155847
8.490000	-4363.986018
8.500000	-4378.217985
8.510000	-4288.512354
8.520000	-4144.540333
8.530000	-4062.598203
8.540000	-4122.469467
8.550000	-4355.588851
8.560000	-4681.459259
8.570000	-4969.808011
8.580000	-5158.999902
8.590000	-5253.902571
8.600000	-5290.649547
8.610000	-5278.276182
8.620000	-5238.684995
8.630000	-5178.956497
8.640000	-5082.332636
8.650000	-4959.052182
8.660000	-4880.486255
8.670000	-4872.023135
8.680000	-4921.869442
8.690000	-4980.552383
8.700000	-5024.649359
8.710000	-5033.076602
8.720000	-5005.805654
8.730000	-4978.681202
8.740000	-4957.190362
8.750000	-4937.903011
8.760000	-4912.533313
8.770000	-4897.828333
8.780000	-4894.463362
8.790000	-4890.680532
8.800000	-4891.396656
8.810000	-4911.513994
8.820000	-4936.198474
8.830000	-4937.591544
8.840000	-4926.716576
8.850000	-4936.668810
8.860000	-4965.406838
8.870000	-4980.594406
8.880000	-4976.765280
8.890000	-4974.849694
8.900000	-4971.978328
8.910000	-4973.376603
8.920000	-4980.092007
8.930000	-4985.791369
8.940000	-4990.794745
8.950000	-5038.223770
8.960000	-5172.062523
8.970000	-5349.977660
8.980000	-5501.139799
8.990000	-5592.051015
9.000000	-5629.874818
9.010000	-5623.671407
9.020000	-5599.193241
9.030000	-5592.185832
9.040000	-5603.611711
9.050000	-5618.848659
9.060000	-5619.540054
9.070000	-5620.117225
9.080000	-5623.949220
9.090000	-5634.893825
9.100000	-5645.496122
9.110000	-5677.581737
9.120000	-5719.443863
9.130000	-5723.325584
9.140000	-5681.652225
9.150000	-5651.392236
9.160000	-5681.312165
9.170000	-5698.594254
9.180000	-5651.828712
9.190000	-5590.198834
9.200000	-5591.545340
9.210000	-5628.631242
9.220000	-5634.932188
9.230000	-5602.999022
9.240000	-5594.944835
9.250000	-5609.956968
9.260000	-5613.288830
9.270000	-5597.743315
9.280000	-5583.455446
9.290000	-5592.610962
9.300000	-5602.569356
9.310000	-5594.220096
9.320000	-5567.461947
9.330000	-5579.039808
9.340000	-5672.366974
9.350000	-5820.376231
9.360000	-5959.543366
9.370000	-6064.851082
9.380000	-6147.513066
9.390000	-6200.296828
9.400000	-6215.831670
9.410000	-6216.167015
9.420000	-6192.068969
9.430000	-6158.101457
9.440000	-6118.270400
9.450000	-6087.386237
9.460000	-6086.136126
9.470000	-6109.910480
9.480000	-6173.692025
9.490000	-6243.931834
9.500000	-6310.269359
9.510000	-6365.246208
9.520000	-6413.157956
9.530000	-6451.815641
9.540000	-6480.316807
9.550000	-6500.319306
9.560000	-6520.749927
9.570000	-6551.740982
9.580000	-6599.413753
9.590000	-6649.007344
9.600000	-6679.957288
9.610000	-6687.539762
9.620000	-6681.088843
9.630000	-6665.268914
9.640000	-6636.066231
9.650000	-6606.240539
9.660000	-6574.193948
9.670000	-6523.019866
9.680000	-6470.927805
9.690000	-6484.769052
9.700000	-6579.013918
9.710000	-6707.507671
9.720000	-6799.849161
9.730000	-6854.243522
9.740000	-6882.523665
9.750000	-6898.780394
9.760000	-6911.971837
9.770000	-6916.056738
9.780000	-6921.906658
9.790000	-6927.062817
9.800000	-6937.624106
9.810000	-6965.503384
9.820000	-7021.750391
9.830000	-7096.958285
9.840000	-7167.233340
9.850000	-7218.830071
9.860000	-7276.871235
9.870000	-7354.710190
9.880000	-7444.149690
9.890000	-7523.913181
9.900000	-7570.439664
9.910000	-7596.559536
9.920000	-7617.404944
9.930000	-7643.521136
9.940000	-7658.616503
9.950000	-7648.801418
9.960000	-7611.830845
9.970000	-7557.076409
9.980000	-7493.665942
9.990000	-7422.274849
10.000000	-7359.817498
10.010000	-7317.053388
10.020000	-7275.811698
10.030000	-7224.430296
10.040000	-7195.165357
10.050000	-7248.448385
10.060000	-7377.556620
10.070000	-7498.802004
10.080000	-7564.919669
10.090000	-7611.245690
10.100000	-7682.496414
10.110000	-7760.696473
10.120000	-7780.112581
10.130000	-7717.759854
10.140000	-7656.840127
10.150000	-7640.524178
10.160000	-7665.575551
10.170000	-7678.610508
10.180000	-7673.224099
10.190000	-7659.851488
10.200000	-7595.491867
10.210000	-7466.931142
10.220000	-7291.925721
10.230000	-7119.836070
10.240000	-6985.047652
10.250000	-6908.423753
10.260000	-6891.493687
10.270000	-6920.002557
10.280000	-6965.258433
10.290000	-7020.991825
10.300000	-7081.363712
10.310000	-7141.981509
10.320000	-7189.431040
10.330000	-7221.980448
10.340000	-7260.193735
10.350000	-7312.904882
10.360000	-7364.503878
10.370000	-7390.743673
10.380000	-7404.845122
10.390000	-7416.156757
10.400000	-7419.722027
10.410000	-7442.890164
10.420000	-7531.872263
10.430000	-7685.705414
10.440000	-7836.372909
10.450000	-7931.421111
10.460000	-7978.218639
10.470000	-8009.042358
10.480000	-8037.506559
10.490000	-8067.118890
10.500000	-8084.219918
10.510000	-8093.039973
10.520000	-8086.353338
10.530000	-8054.729255
10.540000	-8005.295836
10.550000	-7960.212713
10.560000	-7938.304643
10.570000	-7925.002446
10.580000	-7912.385515
10.590000	-7902.863451
10.600000	-7898.497373
10.610000	-7885.702420
10.620000	-7861.314403
10.630000	-7821.538439
10.640000	-7790.194909
10.650000	-7774.304744
10.660000	-7771.681972
10.670000	-7764.649045
10.680000	-7751.488735
10.690000	-7726.246176
10.700000	-7688.898147
10.710000	-7667.495279
10.720000	-7684.856516
10.730000	-7738.225876
10.740000	-7794.271004
10.750000	-7819.150155
10.760000	-7827.334871
10.770000	-7833.580115
10.780000	-7834.842927
10.790000	-7834.174673
10.800000	-7862.897897
10.810000	-7962.253762
10.820000	-8110.224385
10.830000	-8244.990055
10.840000	-8359.789827
10.850000	-8435.100185
10.860000	-8422.673039
10.870000	-8302.004233
10.880000	-8120.448016
10.890000	-7948.665300
10.900000	-7854.562667
10.910000	-7914.684846
10.920000	-8054.250575
10.930000	-8155.897073
10.940000	-8149.364856
10.950000	-8098.094167
10.960000	-8016.616388
10.970000	-7899.160965
10.980000	-7810.975607
10.990000	-7812.781741
11.000000	-7845.559422
11.010000	-7834.900746
11.020000	-7773.187475
11.030000	-7705.345113
11.040000	-7656.595994
11.050000	-7602.808663
11.060000	-7516.470070
11.070000	-7397.141480
11.080000	-7296.936736
11.090000	-7254.204705
11.100000	-7253.343356
11.110000	-7245.919098
11.120000	-7204.869844
11.130000	-7135.102247
11.140000	-7077.194998
11.150000	-7017.155895
11.160000	-6966.262923
11.170000	-6941.217409
11.180000	-6998.419079
11.190000	-7117.032170
11.200000	-7217.030852
11.210000	-7258.561550
11.220000	-7252.706192
11.230000	-7232.728194
11.240000	-7207.543630
11.250000	-7159.703981
11.260000	-7104.337971
11.270000	-7049.179378
11.280000	-7002.305624
11.290000	-6959.779883
11.300000	-6920.424658
11.310000	-6897.549630
11.320000	-6881.595940
11.330000	-6864.423899
11.340000	-6836.516249
11.350000	-6792.715095
11.360000	-6739.191398
11.370000	-6684.054064
11.380000	-6632.553161
11.390000	-6573.360609
11.400000	-6508.282707
11.410000	-6439.986450
11.420000	-6374.991620
11.430000	-6315.220259
11.440000	-6252.277896
11.450000	-6199.437676
11.460000	-6166.463655
11.470000	-6175.917683
11.480000	-6197.717209
11.490000	-6204.268486
11.500000	-6155.451857
11.510000	-6084.654844
11.520000	-6004.949160
11.530000	-5921.155082
11.540000	-5839.237533
11.550000	-5806.207325
11.560000	-5863.601450
11.570000	-5956.402894
11.580000	-6019.330263
11.590000	-6020.400873
11.600000	-5988.922863
11.610000	-5935.360334
11.620000	-5863.829020
11.630000	-5784.317970
11.640000	-5708.372508
11.650000	-5637.866408
11.660000	-5552.790866
11.670000	-5455.395190
11.680000	-5386.552053
11.690000	-5351.380020
11.700000	-5322.428837
11.710000	-5269.212329
11.720000	-5197.578635
11.730000	-5126.237215
11.740000	-5045.458242
11.750000	-4955.414522
11.760000	-4867.477767
11.770000	-4791.681218
11.780000	-4723.534342
11.790000	-4643.300156
11.800000	-4554.699946
11.810000	-4460.277577
11.820000	-4365.552529
11.830000	-4263.215632
11.840000	-4162.764174
11.850000	-4066.764558
11.860000	-3964.887286
11.870000	-3873.651065
11.880000	-3782.851102
11.890000	-3692.128954
11.900000	-3614.065008
11.910000	-3617.626455
11.920000	-3701.601066
11.930000	-3763.677997
11.940000	-3723.345501
11.950000	-3594.788231
11.960000	-3431.646980
11.970000	-3245.548462
11.980000	-3043.016532
11.990000	-2860.456194
12.000000	-2785.241492
12.010000	-2845.901022
12.020000	-2941.125178
12.030000	-2948.285900
12.040000	-2873.678144
12.050000	-2747.367812
12.060000	-2565.085096
12.070000	-2346.112565
12.080000	-2231.407566
12.090000	-2213.681307
12.100000	-2099.098643
12.110000	-1819.459217
12.120000	-1540.947364
12.130000	-1459.148206
12.140000	-1498.865786
12.150000	-1495.053587
12.160000	-1375.819647
12.170000	-1211.111188
12.180000	-1054.474164
12.190000	-899.065010
12.200000	-754.218243
12.210000	-656.120746
12.220000	-618.244457
12.230000	-589.660481
12.240000	-552.338262
12.250000	-524.927878
12.260000	-510.332076
12.270000	-472.347468
12.280000	-381.921471
12.290000	-248.431553
12.300000	-95.090809
12.310000	46.937589
12.320000	170.631558
12.330000	288.870461
12.340000	403.182155
12.350000	512.004593
12.360000	631.675330
12.370000	755.318715
12.380000	858.714944
12.390000	935.292378
12.400000	1023.840537
12.410000	1149.874622
12.420000	1285.147148
12.430000	1429.880714
12.440000	1575.458765
12.450000	1721.622665
12.460000	1863.153273
12.470000	2003.468457
12.480000	2147.950220
12.490000	2295.744412
12.500000	2444.206441
12.510000	2596.851699
12.520000	2753.951707
12.530000	2915.472960
12.540000	3082.230958
12.550000	3231.578256
12.560000	3369.153183
12.570000	3516.643039
12.580000	3662.248942
12.590000	3747.194380
12.600000	3747.739911
12.610000	3726.298023
12.620000	3769.630114
12.630000	3883.194040
12.640000	4031.774250
12.650000	4186.823961
12.660000	4347.393020
12.670000	4511.198952
12.680000	4660.066737
12.690000	4805.771305
12.700000	4964.216706
12.710000	5144.138664
12.720000	5312.750411
12.730000	5451.726575
12.740000	5580.919494
12.750000	5727.548230
12.760000	5897.593378
12.770000	6076.225448
12.780000	6253.208815
12.790000	6430.548069
12.800000	6616.469268
12.810000	6813.164816
12.820000	7000.328021
12.830000	7162.805168
12.840000	7327.995748
12.850000	7525.158662
12.860000	7736.257501
12.870000	7942.583415
12.880000	8131.625183
12.890000	8323.201622
12.900000	8519.063597
12.910000	8707.920017
12.920000	8908.068220
12.930000	9112.402461
12.940000	9301.889394
12.950000	9404.604382
12.960000	9418.114894
12.970000	9429.280333
12.980000	9531.268432
12.990000	9700.895966
13.000000	9871.242905
13.010000	10029.282436
13.020000	10209.987052
13.030000	10420.578824
13.040000	10625.615055
13.050000	10819.974367
13.060000	11027.018604
13.070000	11255.040543
13.080000	11473.709397
13.090000	11657.862141
13.100000	11827.279359
13.110000	12027.858964
13.120000	12264.187035
13.130000	12505.557649
13.140000	12723.246489
13.150000	12927.189650
13.160000	13150.209988
13.170000	13400.609461
13.180000	13642.922326
13.190000	13867.650119
13.200000	14086.255488
13.210000	14331.994197
13.220000	14605.088373
13.230000	14879.202584
13.240000	15146.255357
13.250000	15413.416778
13.260000	15678.707657
13.270000	15917.224888
13.280000	16111.516971
13.290000	16287.835820
13.300000	16469.346736
13.310000	16648.738013
13.320000	16763.746479
13.330000	16800.840795
13.340000	16788.340311
13.350000	16797.820486
13.360000	16876.303665
13.370000	17000.054882
13.380000	17142.720854
13.390000	17263.054606
13.400000	17345.025305
13.410000	17365.196991
13.420000	17344.292262
13.430000	17355.335696
13.440000	17450.031334
13.450000	17586.091482
13.460000	17708.287891
13.470000	17819.236849
13.480000	17990.308226
13.490000	18253.192302
13.500000	18580.094935
13.510000	18940.079444
13.520000	19336.927776
13.530000	19771.586581
13.540000	20199.941523
13.550000	20565.708394
13.560000	20875.786888
13.570000	21183.625988
13.580000	21519.245557
13.590000	21867.439948
13.600000	22196.020957
13.610000	22504.045760
13.620000	22807.558238
13.630000	23120.369719
13.640000	23418.725530
13.650000	23689.464733
13.660000	23934.685318
13.670000	24151.304582
13.680000	24342.763754
13.690000	24515.595169
13.700000	24715.399775
13.710000	24972.969910
13.720000	25292.762686
13.730000	25668.120921
13.740000	26054.836675
13.750000	26424.135795
13.760000	26757.433891
13.770000	27066.068362
13.780000	27392.291633
13.790000	27739.743767
13.800000	28086.267181
13.810000	28389.558768
13.820000	28656.244804
13.830000	28933.024102
13.840000	29237.020545
13.850000	29559.971288
13.860000	29887.336003
13.870000	30230.217731
13.880000	30601.557017
13.890000	30980.610330
13.900000	31341.674389
13.910000	31675.963824
13.920000	32004.124616
13.930000	32339.553491
13.940000	32672.103457
13.950000	33015.138008
13.960000	33383.687284
13.970000	33791.990686
13.980000	34228.473597
13.990000	34684.460894
14.000000	35131.484415
14.010000	35547.897793
14.020000	35933.838555
14.030000	36299.648196
14.040000	36628.405058
14.050000	36911.376540
14.060000	37162.991941
14.070000	37427.143658
14.080000	37732.829955
14.090000	38075.110224
14.100000	38443.278524
14.110000	38802.971690
14.120000	39146.426613
14.130000	39468.800653
14.140000	39798.291026
14.150000	40153.895785
14.160000	40517.009207
14.170000	40865.938185
14.180000	41219.793655
14.190000	41604.618683
14.200000	42012.100742
14.210000	42409.847727
14.220000	42800.449349
14.230000	43195.042849
14.240000	43605.071629
14.250000	44021.785305
14.260000	44428.270648
14.270000	44816.480694
14.280000	45186.081916
14.290000	45548.127292
14.300000	45920.159537
14.310000	46322.357971
14.320000	46762.441132
14.330000	47227.096826
14.340000	47691.250478
14.350000	48137.744644
14.360000	48550.610505
14.370000	48954.043426
14.380000	49364.482814
14.390000	49805.220579
14.400000	50273.468705
14.410000	50730.810440
14.420000	51134.277699
14.430000	51459.277769
14.440000	51743.408919
14.450000	52048.955074
14.460000	52392.881615
14.470000	52767.687911
14.480000	53136.385844
14.490000	53490.267076
14.500000	53845.716788
14.510000	54208.898098
14.520000	54574.417728
14.530000	54939.927357
14.540000	55313.525033
14.550000	55691.957236
14.560000	56066.302350
14.570000	56445.709097
14.580000	56854.112387
14.590000	57302.403315
14.600000	57766.122569
14.610000	58220.044701
14.620000	58666.141733
14.630000	59116.967417
14.640000	59574.702293
14.650000	60012.698093
14.660000	60436.889705
14.670000	60851.277330
14.680000	61273.618253
14.690000	61691.593074
14.700000	62111.532523
14.710000	62540.694199
14.720000	62975.848775
14.730000	63412.202710
14.740000	63840.879338
14.750000	64273.138836
14.760000	64721.933241
14.770000	65188.708038
14.780000	65650.563880
14.790000	66102.281252
14.800000	66537.458168
14.810000	66947.760424
14.820000	67304.518492
14.830000	67622.223571
14.840000	67954.528263
14.850000	68350.826279
14.860000	68806.850861
14.870000	69292.459988
14.880000	69769.896045
14.890000	70223.539006
14.900000	70659.358939
14.910000	71103.672456
14.920000	71575.439877
14.930000	72043.612727
14.940000	72500.835547
14.950000	72970.525544
14.960000	73479.432983
14.970000	74008.810144
14.980000	74497.380705
14.990000	74989.154236
15.000000	75527.733720
15.010000	76125.454487
15.020000	76692.149071
15.030000	77156.451602
15.040000	77619.985656
15.050000	78141.243433
15.060000	78727.227257
15.070000	79251.848929
15.080000	79722.647369
15.090000	80191.018170
15.100000	80668.365567
15.110000	81110.740776
15.120000	81502.831449
15.130000	81923.019556
15.140000	82407.108518
15.150000	82938.377659
15.160000	83478.177220
15.170000	84015.624988
15.180000	84552.053008
15.190000	85029.442903
15.200000	85459.814292
15.210000	85896.693627
15.220000	86402.878325
15.230000	86955.945518
15.240000	87523.106528
15.250000	88004.496023
15.260000	88352.918567
15.270000	88552.861837
15.280000	88655.263306
15.290000	88899.383105
15.300000	89564.644034
15.310000	90683.104225
15.320000	91912.829845
15.330000	92884.200714
15.340000	93529.915976
15.350000	93894.960239
15.360000	94153.328495
15.370000	94333.910106
15.380000	94268.738802
15.390000	93654.976999
15.400000	92459.659536
15.410000	91148.129560
15.420000	90212.986066
15.430000	89746.125829
15.440000	89288.690266
15.450000	88514.656168
15.460000	87583.843070
15.470000	86912.282161
15.480000	86947.417968
15.490000	87095.995595
15.500000	86992.506963
15.510000	87108.171300
15.520000	87704.124775
15.530000	88570.433481
15.540000	88554.808577
15.550000	87922.182458
15.560000	87227.155102
15.570000	86752.992279
15.580000	86559.966983
15.590000	86520.969792
15.600000	86557.532133
15.610000	86100.489357
15.620000	85017.456290
15.630000	83438.825724
15.640000	82068.987204
15.650000	81244.784136
15.660000	80732.182484
15.670000	80248.775619
15.680000	79736.426098
15.690000	78892.794674
15.700000	77584.764879
15.710000	75895.302531
15.720000	74440.059816
15.730000	73247.621682
15.740000	72043.877247
15.750000	70471.328697
15.760000	68734.450968
15.770000	67100.015053
15.780000	65845.457235
15.790000	64179.764668
15.800000	61703.129974
15.810000	58114.304065
15.820000	54455.939618
15.830000	48342.921537
15.840000	39189.665123
15.850000	22410.529377
15.860000	16197.321696
15.870000	13171.285444
15.880000	12321.410022
15.890000	11713.075362
15.900000	10170.430967
15.910000	5906.627039
15.920000	186.865763
15.930000	-6003.300343
15.940000	-10539.691936
15.950000	-15645.697305
15.960000	-22632.883403
15.970000	-45038.100893
15.980000	-73449.149635
15.990000	-91707.675770
16.000000	-99409.107726
16.010000	-102637.676292
16.020000	-104153.713179
16.030000	-105616.406755
16.040000	-107808.109005
16.050000	-108926.308326
16.060000	-108956.758369
16.070000	-108947.205973
16.080000	-108738.575625
16.090000	-108436.382137
16.100000	-107629.928802
16.110000	-106987.209330
16.120000	-106419.291933
16.130000	-106285.422963
16.140000	-106093.204019
16.150000	-105835.589629
16.160000	-105478.727033
16.170000	-105056.691342
16.180000	-104701.664579
16.190000	-104368.847975
16.200000	-103925.964823
16.210000	-103446.567526
16.220000	-102920.092273
16.230000	-102441.695684
16.240000	-101950.635796
16.250000	-101466.948676
16.260000	-100951.310660
16.270000	-100449.453763
16.280000	-99933.525375
16.290000	-99433.582703
16.300000	-98922.770792
16.310000	-98422.753513
16.320000	-97913.531361
16.330000	-97414.716393
16.340000	-96904.581406
16.350000	-96395.561922
16.360000	-95875.404317
16.370000	-95366.059995
16.380000	-94852.735559
16.390000	-94339.602801
16.400000	-93823.756134
16.410000	-93306.581703
16.420000	-92780.223917
16.430000	-92236.078838
16.440000	-91704.365735
16.450000	-91215.523853
16.460000	-90730.977904
16.470000	-90217.689370
16.480000	-89694.816887
16.490000	-89206.049970
16.500000	-88729.981812
16.510000	-88247.297518
16.520000	-87667.207541
16.530000	-87037.892564
16.540000	-86348.612053
16.550000	-85708.531820
16.560000	-85241.144513
16.570000	-84902.172061
16.580000	-84643.500865
16.590000	-84325.099717
16.600000	-83969.548633
16.610000	-83583.934002
16.620000	-83156.531118
16.630000	-82700.526431
16.640000	-82231.245355
16.650000	-81758.197736
16.660000	-81271.035019
16.670000	-80774.742400
16.680000	-80272.017074
16.690000	-79775.881021
16.700000	-79289.236690
16.710000	-78808.299218
16.720000	-78314.412159
16.730000	-77802.783791
16.740000	-77287.365174
16.750000	-76775.339793
16.760000	-76241.348958
16.770000	-75667.064905
16.780000	-75072.283087
16.790000	-74495.716306
16.800000	-73948.377024
16.810000	-73395.505638
16.820000	-72776.022945
16.830000	-72047.330163
16.840000	-71218.488228
16.850000	-70353.341886
16.860000	-69540.416834
16.870000	-68841.367033
16.880000	-68267.652730
16.890000	-67765.348565
16.900000	-67256.315152
16.910000	-66649.811818
16.920000	-65857.189192
16.930000	-64875.739447
16.940000	-63829.996420
16.950000	-62899.089035
16.960000	-62153.130799
16.970000	-61480.252864
16.980000	-60708.768726
16.990000	-59767.046057
17.000000	-58732.857897
17.010000	-57821.610785
17.020000	-57108.307203
17.030000	-56482.096034
17.040000	-55822.512610
17.050000	-55147.762490
17.060000	-54581.492104
17.070000	-54183.087402
17.080000	-53970.877239
17.090000	-53993.363374
17.100000	-54241.321456
17.110000	-54677.128082
17.120000	-55235.605495
17.130000	-55748.206140
17.140000	-55905.782049
17.150000	-55384.871312
17.160000	-54317.851090
17.170000	-53253.333913
17.180000	-52747.943049
17.190000	-52809.636851
17.200000	-53149.579828
17.210000	-53551.177228
17.220000	-53883.502968
17.230000	-54042.855151
17.240000	-53880.710485
17.250000	-53497.969992
17.260000	-52944.540500
17.270000	-52268.519458
17.280000	-51484.394502
17.290000	-50580.122059
17.300000	-49673.741171
17.310000	-48951.055227
17.320000	-48647.711267
17.330000	-48707.013750
17.340000	-48792.750073
17.350000	-48587.200646
17.360000	-48029.679942
17.370000	-47317.287888
17.380000	-46720.677731
17.390000	-46390.250697
17.400000	-46274.666927
17.410000	-46200.429526
17.420000	-45982.515070
17.430000	-45544.803522
17.440000	-44964.017557
17.450000	-44421.704854
17.460000	-44071.687916
17.470000	-43909.753798
17.480000	-43792.561853
17.490000	-43554.999071
17.500000	-43137.318133
17.510000	-42607.858974
17.520000	-42095.172224
17.530000	-41698.907944
17.540000	-41411.669823
17.550000	-41153.363575
17.560000	-40833.747769
17.570000	-40432.287170
17.580000	-39991.610413
17.590000	-39575.882245
17.600000	-39229.699173
17.610000	-38935.921567
17.620000	-38641.971442
17.630000	-38301.592552
17.640000	-37916.322495
17.650000	-37525.982506
17.660000	-37154.576659
17.670000	-36803.923912
17.680000	-36478.115046
17.690000	-36169.777182
17.700000	-35871.929662
17.710000	-35566.874408
17.720000	-35257.405303
17.730000	-34942.563864
17.740000	-34611.119504
17.750000	-34266.892114
17.760000	-33926.463347
17.770000	-33614.166498
17.780000	-33331.332225
17.790000	-33049.276482
17.800000	-32737.443618
17.810000	-32393.374032
17.820000	-32052.565529
17.830000	-31743.688092
17.840000	-31460.823167
17.850000	-31171.488516
17.860000	-30856.003688
17.870000	-30524.921236
17.880000	-30211.457055
17.890000	-29930.508725
17.900000	-29665.690541
17.910000	-29389.258495
17.920000	-29084.140734
17.930000	-28763.940310
17.940000	-28450.789028
17.950000	-28161.442068
17.960000	-27897.222836
17.970000	-27647.064036
17.980000	-27388.104663
17.990000	-27100.500698
18.000000	-26784.173004
18.010000	-26465.133568
18.020000	-26170.694948
18.030000	-25905.145211
18.040000	-25653.932309
18.050000	-25392.555013
18.060000	-25114.302174
18.070000	-24831.090954
18.080000	-24560.420188
18.090000	-24305.645218
18.100000	-24044.515905
18.110000	-23758.916244
18.120000	-23447.353245
18.130000	-23138.957756
18.140000	-22857.853468
18.150000	-22605.938306
18.160000	-22354.927513
18.170000	-22078.236741
18.180000	-21780.055647
18.190000	-21487.891668
18.200000	-21228.797724
18.210000	-21000.737831
18.220000	-20785.422096
18.230000	-20557.146242
18.240000	-20304.323398
18.250000	-20035.837779
18.260000	-19777.152421
18.270000	-19552.396331
18.280000	-19351.412989
18.290000	-19131.379118
18.300000	-18852.183083
18.310000	-18527.332588
18.320000	-18223.243121
18.330000	-17994.719896
18.340000	-17828.235520
18.350000	-17655.397424
18.360000	-17424.368392
18.370000	-17144.993346
18.380000	-16867.682193
18.390000	-16625.598508
18.400000	-16405.244764
18.410000	-16173.847871
18.420000	-15923.225462
18.430000	-15680.865802
18.440000	-15473.193744
18.450000	-15286.082668
18.460000	-15084.735275
18.470000	-14855.975222
18.480000	-14624.984650
18.490000	-14420.800278
18.500000	-14244.732454
18.510000	-14075.122736
18.520000	-13884.343502
18.530000	-13662.024629
18.540000	-13422.540189
18.550000	-13197.477028
18.560000	-13005.189231
18.570000	-12834.656169
18.580000	-12650.898526
18.590000	-12430.311162
18.600000	-12184.467531
18.610000	-11949.114034
18.620000	-11752.081267
18.630000	-11582.862993
18.640000	-11409.672774
18.650000	-11207.317710
18.660000	-10982.022909
18.670000	-10763.159622
18.680000	-10575.000548
18.690000	-10414.552634
18.700000	-10255.858847
18.710000	-10077.553003
18.720000	-9876.011575
18.730000	-9664.162080
18.740000	-9455.379605
18.750000	-9255.615601
18.760000	-9065.582112
18.770000	-8887.238724
18.780000	-8720.261775
18.790000	-8556.641358
18.800000	-8383.713081
18.810000	-8198.839710
18.820000	-8008.942517
18.830000	-7821.441621
18.840000	-7643.557185
18.850000	-7482.746844
18.860000	-7339.505553
18.870000	-7206.032220
18.880000	-7066.752244
18.890000	-6912.972859
18.900000	-6745.310842
18.910000	-6565.519557
18.920000	-6377.127143
18.930000	-6185.641036
18.940000	-6008.528779
18.950000	-5855.276178
18.960000	-5720.742222
18.970000	-5590.387178
18.980000	-5451.110946
18.990000	-5298.990999
19.000000	-5138.620257
19.010000	-4982.048715
19.020000	-4837.535421
19.030000	-4700.470170
19.040000	-4560.817556
19.050000	-4410.929477
19.060000	-4252.806883
19.070000	-4096.073110
19.080000	-3949.439769
19.090000	-3814.158295
19.100000	-3681.991255
19.110000	-3543.166522
19.120000	-3396.810344
19.130000	-3252.763222
19.140000	-3119.834839
19.150000	-2995.853838
19.160000	-2865.997816
19.170000	-2724.123987
19.180000	-2579.675074
19.190000	-2445.524129
19.200000	-2321.419267
19.210000	-2193.973573
19.220000	-2059.925697
19.230000	-1931.515720
19.240000	-1823.805690
19.250000	-1729.678436
19.260000	-1625.637844
19.270000	-1496.844391
19.280000	-1359.182820
19.290000	-1241.991360
19.300000	-1150.922425
19.310000	-1062.633990
19.320000	-943.190498
19.330000	-787.228254
19.340000	-622.404683
19.350000	-490.699524
19.360000	-410.373636
19.370000	-359.863567
19.380000	-294.396568
19.390000	-183.165930
19.400000	-34.609483
19.410000	112.717894
19.420000	218.459328
19.430000	284.689372
19.440000	351.621773
19.450000	461.005047
19.460000	606.677041
19.470000	744.926435
19.480000	843.824611
19.490000	916.716532
19.500000	1003.139567
19.510000	1121.561956
19.520000	1257.829193
19.530000	1377.834585
19.540000	1466.738135
19.550000	1538.035828
19.560000	1625.905714
19.570000	1750.417855
19.580000	1891.533691
19.590000	2007.662263
19.600000	2073.478926
19.610000	2108.319576
19.620000	2158.138492
19.630000	2260.613013
19.640000	2410.356259
19.650000	2561.823574
19.660000	2666.611187
19.670000	2717.209045
19.680000	2744.384736
19.690000	2787.047915
19.700000	2862.547633
19.710000	2961.947334
19.720000	3063.826481
19.730000	3150.023420
19.740000	3217.331580
19.750000	3275.337258
19.760000	3338.068914
19.770000	3420.892203
19.780000	3524.687946
19.790000	3630.665291
19.800000	3709.901995
19.810000	3750.458516
19.820000	3779.547696
19.830000	3839.300770
19.840000	3944.476853
19.850000	4059.714555
19.860000	4141.443185
19.870000	4180.633440
19.880000	4211.622671
19.890000	4274.345533
19.900000	4378.848333
19.910000	4497.432628
19.920000	4583.183596
19.930000	4625.131178
19.940000	4650.486779
19.950000	4705.428500
19.960000	4804.600296
19.970000	4913.170447
19.980000	4991.297438
19.990000	5029.610313
20.000000	5075.113796
20.010000	5152.637094
20.020000	5251.831440
20.030000	5326.580261
20.040000	5366.010528
20.050000	5388.317898
20.060000	5426.294290
20.070000	5497.093756
20.080000	5595.948900
20.090000	5706.619012
20.100000	5792.010299
20.110000	5829.664979
20.120000	5821.635944
20.130000	5819.025637
20.140000	5860.757789
20.150000	5959.526875
20.160000	6083.653314
20.170000	6197.930216
20.180000	6270.485985
20.190000	6294.680334
20.200000	6287.343383
20.210000	6284.125152
20.220000	6313.841061
20.230000	6380.176001
20.240000	6475.665801
20.250000	6576.889965
20.260000	6660.881276
20.270000	6707.015698
20.280000	6718.583569
20.290000	6716.627084
20.300000	6725.079751
20.310000	6760.352768
20.320000	6824.353358
20.330000	6905.206786
20.340000	6979.109272
20.350000	7028.274579
20.360000	7056.136181
20.370000	7085.624054
20.380000	7128.375585
20.390000	7171.832588
20.400000	7200.882110
20.410000	7220.385365
20.420000	7252.407135
20.430000	7306.891256
20.440000	7373.879014
20.450000	7428.372424
20.460000	7457.749820
20.470000	7470.959412
20.480000	7493.728216
20.490000	7543.934562
20.500000	7615.398422
20.510000	7678.952585
20.520000	7710.202487
20.530000	7713.518391
20.540000	7718.893683
20.550000	7750.900661
20.560000	7805.017541
20.570000	7858.426419
20.580000	7891.692216
20.590000	7906.232045
20.600000	7917.642788
20.610000	7937.945775
20.620000	7970.501755
20.630000	8007.909670
20.640000	8040.314531
20.650000	8064.533213
20.660000	8082.797560
20.670000	8103.844012
20.680000	8129.946188
20.690000	8160.845111
20.700000	8191.793602
20.710000	8219.241084
20.720000	8239.713235
20.730000	8257.076265
20.740000	8282.084487
20.750000	8319.006602
20.760000	8356.873742
20.770000	8379.061426
20.780000	8390.208196
20.790000	8410.325332
20.800000	8446.019371
20.810000	8481.721828
20.820000	8498.026738
20.830000	8498.066812
20.840000	8503.317535
20.850000	8529.308261
20.860000	8572.147481
20.870000	8610.774684
20.880000	8630.613621
20.890000	8632.915830
20.900000	8637.775577
20.910000	8663.040963
20.920000	8705.883605
20.930000	8743.125718
20.940000	8758.371706
20.950000	8759.317298
20.960000	8764.943949
20.970000	8785.216357
20.980000	8811.877436
20.990000	8832.861907
21.000000	8842.597978
21.010000	8850.998089
21.020000	8867.443992
21.030000	8894.922407
21.040000	8927.416361
21.050000	8958.341580
21.060000	8984.239000
21.070000	9002.951231
21.080000	9018.610979
21.090000	9035.772542
21.100000	9052.520740
21.110000	9058.805388
21.120000	9060.720323
21.130000	9074.790577
21.140000	9104.820150
21.150000	9139.012870
21.160000	9160.530791
21.170000	9166.576375
21.180000	9161.575184
21.190000	9153.140420
21.200000	9151.630049
21.210000	9152.343800
21.220000	9148.370570
21.230000	9140.604657
21.240000	9126.147635
21.250000	9100.920095
21.260000	9063.667758
21.270000	9032.701987
21.280000	9027.614807
21.290000	9041.177593
21.300000	9045.950971
21.310000	9019.789556
21.320000	8969.498936
21.330000	8924.272372
21.340000	8908.854401
21.350000	8922.515238
21.360000	8936.974457
21.370000	8928.287128
21.380000	8918.414514
21.390000	8948.983691
21.400000	9018.282883
21.410000	9060.394553
21.420000	9017.072879
21.430000	8912.274932
21.440000	8831.284853
21.450000	8831.007313
21.460000	8887.547871
21.470000	8918.862577
21.480000	8868.506704
21.490000	8753.220539
21.500000	8643.257001
21.510000	8587.172809
21.520000	8558.798642
21.530000	8487.007485
21.540000	8330.437169
21.550000	8093.325063
21.560000	7819.885630
21.570000	7573.069995
21.580000	7411.707702
21.590000	7288.584257
21.600000	7158.605127
21.610000	7038.012078
21.620000	6935.235042
21.630000	6829.121400
21.640000	6680.587222
21.650000	6550.284889
21.660000	6458.617765
21.670000	6382.793951
21.680000	6310.148931
21.690000	6254.858093
21.700000	6227.159157
21.710000	6219.705620
21.720000	6231.025636
21.730000	6256.726975
21.740000	6296.092415
21.750000	6346.608588
21.760000	6406.701913
21.770000	6466.348704
21.780000	6510.855163
21.790000	6517.966125
21.800000	6449.871886
21.810000	6318.634798
21.820000	6192.966515
21.830000	6126.191524
21.840000	6115.511941
21.850000	6116.914578
21.860000	6116.761541
21.870000	6116.975629
21.880000	6115.971238
21.890000	6117.027543
21.900000	6118.151686
21.910000	6118.742872
21.920000	6118.667328
21.930000	6119.136757
21.940000	6120.864041
21.950000	6121.545670
21.960000	6122.768921
21.970000	6123.652750
21.980000	6125.057623
21.990000	6124.804573
22.000000	6126.088190
22.010000	6125.338903
22.020000	6125.545128
22.030000	6124.273935
22.040000	6123.771038
22.050000	6125.302892
22.060000	6123.749809
22.070000	6123.802944
22.080000	6123.160566
22.090000	6124.107124
22.100000	6126.028528
22.110000	6124.873961
22.120000	6124.396911
22.130000	6121.440991
22.140000	6122.618111
22.150000	6123.142813
22.160000	6122.022563
22.170000	6122.368777
22.180000	6119.926312
22.190000	6121.484562
22.200000	6116.648938
22.210000	6116.532039
22.220000	6117.543644
22.230000	6118.137397
22.240000	6118.000439
22.250000	6115.637937
22.260000	6117.717773
22.270000	6117.345666
22.280000	6116.710773
22.290000	6113.297433
22.300000	6112.990009
22.310000	6111.490565
22.320000	6109.558594
22.330000	6107.965277
22.340000	6108.083098
22.350000	6108.726577
22.360000	6106.567974
22.370000	6103.474339
22.380000	6100.695915
22.390000	6100.876550
22.400000	6100.463282
22.410000	6100.620614
22.420000	6097.551665
22.430000	6096.396243
22.440000	6095.968699
22.450000	6095.858993
22.460000	6095.408970
22.470000	6095.355049
22.480000	6095.548472
22.490000	6094.888968
22.500000	6091.732400
22.510000	6090.156595
22.520000	6088.290013
22.530000	6087.829376
22.540000	6088.910651
22.550000	6088.231947
22.560000	6087.957416
22.570000	6086.707744
22.580000	6086.100510
22.590000	6086.606924
22.600000	6083.327114
22.610000	6082.640372
22.620000	6080.967977
22.630000	6080.803723
22.640000	6081.050447
22.650000	6078.417393
22.660000	6079.287333
22.670000	6077.462488
22.680000	6078.694443
22.690000	6077.284929
22.700000	6076.606612
22.710000	6078.253943
22.720000	6080.331929
22.730000	6081.050550
22.740000	6078.555574
22.750000	6075.696406
22.760000	6074.952323
22.770000	6075.846016
22.780000	6074.522718
22.790000	6074.870825
22.800000	6076.272305
22.810000	6077.088669
22.820000	6077.894706
22.830000	6077.505940
22.840000	6079.739257
22.850000	6081.449953
22.860000	6079.801262
22.870000	6079.301455
22.880000	6076.399113
22.890000	6078.077171
22.900000	6079.196210
22.910000	6081.107143
22.920000	6082.225525
22.930000	6081.382349
22.940000	6082.182487
22.950000	6081.223247
22.960000	6085.423101
22.970000	6088.954770
22.980000	6096.287918
22.990000	6098.582577
23.000000	6101.462182
23.010000	6100.121639
23.020000	6098.938368
23.030000	6097.260356
23.040000	6094.364556
23.050000	6096.037172
23.060000	6095.713695
23.070000	6099.809795
23.080000	6101.656963
23.090000	6102.570950
23.100000	6106.577444
23.110000	6109.281878
23.120000	6113.159451
23.130000	6113.619108
23.140000	6114.747351
23.150000	6117.265465
23.160000	6120.318897
23.170000	6125.242043
23.180000	6128.537577
23.190000	6131.561846
23.200000	6133.081826
23.210000	6136.897570
23.220000	6139.945362
23.230000	6141.246497
23.240000	6142.493011
23.250000	6144.606012
23.260000	6147.720428
23.270000	6152.986094
23.280000	6155.952726
23.290000	6160.411515
23.300000	6164.528010
23.310000	6168.202504
23.320000	6171.801037
23.330000	6174.355246
23.340000	6179.119999
23.350000	6183.862796
23.360000	6188.817787
23.370000	6193.408974
23.380000	6198.896901
23.390000	6202.990402
23.400000	6206.030268
23.410000	6209.624313
23.420000	6212.540113
23.430000	6218.992701
23.440000	6224.079626
23.450000	6229.435579
23.460000	6233.334899
23.470000	6239.954740
23.480000	6247.635920
23.490000	6252.531339
23.500000	6257.019118
23.510000	6262.839524
23.520000	6270.467063
23.530000	6274.868986
23.540000	6279.008181
23.550000	6285.302934
23.560000	6292.279320
23.570000	6298.144742
23.580000	6303.634121
23.590000	6309.397651
23.600000	6317.070867
23.610000	6324.721198
23.620000	6332.595200
23.630000	6340.793735
23.640000	6347.531490
23.650000	6354.961938
23.660000	6362.211986
23.670000	6369.219183
23.680000	6375.980383
23.690000	6381.896748
23.700000	6389.179300
23.710000	6396.989544
23.720000	6405.137704
23.730000	6413.173389
23.740000	6421.190051
23.750000	6429.450794
23.760000	6438.336422
23.770000	6447.152847
23.780000	6455.912860
23.790000	6463.948307
23.800000	6472.256261
23.810000	6480.502906
23.820000	6489.699848
23.830000	6498.481124
23.840000	6507.579634
23.850000	6517.556213
23.860000	6527.553070
23.870000	6536.394804
23.880000	6544.963320
23.890000	6554.331833
23.900000	6565.471241
23.910000	6575.690087
23.920000	6585.084728
23.930000	6595.150009
23.940000	6606.125805
23.950000	6617.705971
23.960000	6628.594832
23.970000	6638.361396
23.980000	6648.165027
23.990000	6659.447399
24.000000	6669.820803
24.010000	6679.970863
24.020000	6688.566273
24.030000	6697.932443
24.040000	6711.074478
24.050000	6724.636843
24.060000	6737.682328
24.070000	6748.431269
24.080000	6759.059345
24.090000	6772.318168
24.100000	6783.505992
24.110000	6795.314645
24.120000	6807.031689
24.130000	6820.739617
24.140000	6833.964733
24.150000	6844.918666
24.160000	6855.659493
24.170000	6867.178184
24.180000	6880.770698
24.190000	6894.175703
24.200000	6907.301085
24.210000	6919.918147
24.220000	6934.248872
24.230000	6950.397435
24.240000	6965.262463
24.250000	6977.287480
24.260000	6986.685958
24.270000	6998.928826
24.280000	7013.160713
24.290000	7026.632002
24.300000	7041.046420
24.310000	7055.057164
24.320000	7070.669966
24.330000	7085.530539
24.340000	7100.694578
24.350000	7116.057228
24.360000	7129.100487
24.370000	7141.648481
24.380000	7156.559878
24.390000	7170.270692
24.400000	7185.081889
24.410000	7199.259533
24.420000	7215.658706
24.430000	7232.943511
24.440000	7248.269095
24.450000	7264.344817
24.460000	7279.567355
24.470000	7295.452002
24.480000	7312.892107
24.490000	7329.910345
24.500000	7345.576240
24.510000	7359.724713
24.520000	7375.286836
24.530000	7393.215600
24.540000	7409.329229
24.550000	7425.733555
24.560000	7439.698659
24.570000	7456.611264
24.580000	7473.713610
24.590000	7492.164670
24.600000	7509.045968
24.610000	7526.056320
24.620000	7541.357751
24.630000	7557.278747
24.640000	7571.305718
24.650000	7589.504321
24.660000	7608.537497
24.670000	7628.044382
24.680000	7646.402082
24.690000	7662.886430
24.700000	7679.904650
24.710000	7699.352940
24.720000	7719.352485
24.730000	7736.099520
24.740000	7753.436352
24.750000	7767.770336
24.760000	7786.491284
24.770000	7801.001002
24.780000	7819.191416
24.790000	7836.794278
24.800000	7856.502726
24.810000	7876.830801
24.820000	7895.061333
24.830000	7911.455419
24.840000	7927.866750
24.850000	7946.318744
24.860000	7966.232348
24.870000	7984.738817
24.880000	8002.499669
24.890000	8019.377662
24.900000	8040.330842
24.910000	8063.877517
24.920000	8084.358028
24.930000	8102.263830
24.940000	8117.916334
24.950000	8134.852534
24.960000	8153.989592
24.970000	8174.955050
24.980000	8196.907405
24.990000	8215.555706
25.000000	8232.343635
25.010000	8250.659369
25.020000	8269.259763
25.030000	8288.588517
25.040000	8307.654315
25.050000	8327.667541
25.060000	8347.848641
25.070000	8365.875595
25.080000	8384.518194
25.090000	8402.528443
25.100000	8424.654581
25.110000	8445.598549
25.120000	8464.910233
25.130000	8485.110477
25.140000	8503.245505
25.150000	8524.065829
25.160000	8540.966072
25.170000	8562.139145
25.180000	8580.382455
25.190000	8600.644665
25.200000	8619.836265
25.210000	8641.889597
25.220000	8663.651309
25.230000	8684.181820
25.240000	8702.835496
25.250000	8718.835758
25.260000	8738.060388
25.270000	8757.815546
25.280000	8779.305623
25.290000	8802.461662
25.300000	8824.540139
25.310000	8843.432897
25.320000	8859.097059
25.330000	8876.060053
25.340000	8898.957560
25.350000	8920.617921
25.360000	8940.793357
25.370000	8959.459098
25.380000	8979.579754
25.390000	9000.559187
25.400000	9019.956024
25.410000	9035.915354
25.420000	9054.935840
25.430000	9076.492246
25.440000	9097.808848
25.450000	9116.629237
25.460000	9133.908595
25.470000	9152.983206
25.480000	9171.529030
25.490000	9190.875852
25.500000	9211.334323
25.510000	9233.616216
25.520000	9254.968954
25.530000	9274.191873
25.540000	9292.098934
25.550000	9309.917211
25.560000	9328.033825
25.570000	9346.106375
25.580000	9367.102192
25.590000	9387.059391
25.600000	9406.958791
25.610000	9424.436256
25.620000	9444.593920
25.630000	9463.203784
25.640000	9481.652297
25.650000	9500.367985
25.660000	9519.099531
25.670000	9536.243893
25.680000	9551.924896
25.690000	9570.496049
25.700000	9589.754735
25.710000	9610.102294
25.720000	9628.580011
25.730000	9647.719288
25.740000	9662.705059
25.750000	9680.345707
25.760000	9697.437598
25.770000	9715.945407
25.780000	9731.435687
25.790000	9747.507603
25.800000	9766.695199
25.810000	9784.639068
25.820000	9801.211665
25.830000	9817.342500
25.840000	9835.625438
25.850000	9853.247430
25.860000	9871.256380
25.870000	9885.334341
25.880000	9901.769933
25.890000	9915.901355
25.900000	9934.481655
25.910000	9952.593040
25.920000	9967.345519
25.930000	9982.439182
25.940000	9995.652533
25.950000	10013.090602
25.960000	10028.698155
25.970000	10043.857327
25.980000	10057.822284
25.990000	10071.368661
26.000000	10084.674550
26.010000	10099.603689
26.020000	10113.890430
26.030000	10129.882169
26.040000	10145.447220
26.050000	10160.508540
26.060000	10176.004686
26.070000	10187.774364
26.080000	10200.562251
26.090000	10212.653534
26.100000	10224.411997
26.110000	10238.146505
26.120000	10250.509924
26.130000	10264.910272
26.140000	10277.161031
26.150000	10288.250692
26.160000	10300.031953
26.170000	10310.118514
26.180000	10321.778992
26.190000	10332.151559
26.200000	10343.376575
26.210000	10355.336557
26.220000	10366.449573
26.230000	10377.662488
26.240000	10388.640862
26.250000	10397.092609
26.260000	10408.952001
26.270000	10418.575814
26.280000	10430.697419
26.290000	10437.751849
26.300000	10444.189879
26.310000	10452.958495
26.320000	10461.021281
26.330000	10470.856232
26.340000	10477.829601
26.350000	10486.429246
26.360000	10493.922019
26.370000	10500.969156
26.380000	10506.955415
26.390000	10512.777883
26.400000	10517.902990
26.410000	10523.830350
26.420000	10529.401402
26.430000	10535.432963
26.440000	10539.421933
26.450000	10543.900428
26.460000	10550.276787
26.470000	10556.515496
26.480000	10560.942616
26.490000	10563.598110
26.500000	10565.393133
26.510000	10569.455163
26.520000	10572.914856
26.530000	10575.058405
26.540000	10575.162681
26.550000	10575.715722
26.560000	10578.439384
26.570000	10579.708330
26.580000	10579.728851
26.590000	10579.691410
26.600000	10579.320860
26.610000	10578.299672
26.620000	10577.526839
26.630000	10577.502735
26.640000	10577.978524
26.650000	10575.596824
26.660000	10572.329478
26.670000	10569.224677
26.680000	10567.535564
26.690000	10564.681440
26.700000	10559.904235
26.710000	10554.954076
26.720000	10550.062392
26.730000	10545.337972
26.740000	10539.646605
26.750000	10533.807847
26.760000	10527.960639
26.770000	10521.324564
26.780000	10515.648598
26.790000	10507.177354
26.800000	10498.689842
26.810000	10489.673857
26.820000	10481.706928
26.830000	10473.449734
26.840000	10463.327972
26.850000	10454.493683
26.860000	10445.174336
26.870000	10433.092112
26.880000	10421.241339
26.890000	10408.869969
26.900000	10397.822017
26.910000	10386.461575
26.920000	10372.875271
26.930000	10359.856078
26.940000	10344.018092
26.950000	10329.026321
26.960000	10314.556102
26.970000	10299.918083
26.980000	10284.800646
26.990000	10269.834175
27.000000	10253.376873
27.010000	10235.074511
27.020000	10214.255655
27.030000	10195.615670
27.040000	10177.385357
27.050000	10158.075467
27.060000	10137.753002
27.070000	10117.754821
27.080000	10097.981776
27.090000	10075.273116
27.100000	10052.389708
27.110000	10027.925006
27.120000	10005.271282
27.130000	9982.337655
27.140000	9958.247303
27.150000	9932.825242
27.160000	9906.613473
27.170000	9879.347235
27.180000	9854.006890
27.190000	9826.182246
27.200000	9799.069437
27.210000	9770.298402
27.220000	9741.754906
27.230000	9713.669315
27.240000	9682.002631
27.250000	9647.943185
27.260000	9614.458396
27.270000	9581.727046
27.280000	9551.082753
27.290000	9520.648551
27.300000	9486.161335
27.310000	9453.038345
27.320000	9416.634846
27.330000	9383.194748
27.340000	9344.452621
27.350000	9305.753336
27.360000	9265.597027
27.370000	9228.654874
27.380000	9190.355896
27.390000	9151.190615
27.400000	9110.378639
27.410000	9064.968097
27.420000	9021.990121
27.430000	8976.253555
27.440000	8935.157901
27.450000	8890.999360
27.460000	8845.834374
27.470000	8802.208396
27.480000	8754.597183
27.490000	8707.533444
27.500000	8656.068845
27.510000	8608.275597
27.520000	8560.201884
27.530000	8511.368028
27.540000	8460.653525
27.550000	8407.428400
27.560000	8354.393756
27.570000	8300.403774
27.580000	8247.714973
27.590000	8194.585832
27.600000	8139.901548
27.610000	8084.282210
27.620000	8026.572001
27.630000	7965.446032
27.640000	7905.706291
27.650000	7845.684808
27.660000	7789.929378
27.670000	7728.267163
27.680000	7666.225166
27.690000	7600.500367
27.700000	7536.532206
27.710000	7470.340363
27.720000	7407.142551
27.730000	7343.078799
27.740000	7275.992898
27.750000	7206.705973
27.760000	7135.032900
27.770000	7065.517033
27.780000	6992.861876
27.790000	6921.148238
27.800000	6850.786843
27.810000	6779.188912
27.820000	6706.114227
27.830000	6629.599036
27.840000	6553.476557
27.850000	6476.659469
27.860000	6399.150463
27.870000	6320.003930
27.880000	6238.757005
27.890000	6157.598288
27.900000	6076.912470
27.910000	5996.054922
27.920000	5912.906844
27.930000	5828.674796
27.940000	5741.691878
27.950000	5654.749876
27.960000	5564.881760
27.970000	5477.914111
27.980000	5388.416693
27.990000	5299.455249
28.000000	5206.595495
28.010000	5114.663821
28.020000	5021.374261
28.030000	4927.811951
28.040000	4831.718242
28.050000	4732.850755
28.060000	4633.598626
28.070000	4534.390691
28.080000	4435.629434
28.090000	4336.388091
28.100000	4235.096846
28.110000	4131.805537
28.120000	4026.289636
28.130000	3919.930702
28.140000	3815.165781
28.150000	3708.363445
28.160000	3599.687028
28.170000	3489.073989
28.180000	3377.800759
28.190000	3265.345430
28.200000	3153.129339
28.210000	3039.461490
28.220000	2924.961064
28.230000	2808.379499
28.240000	2692.588113
28.250000	2577.383314
28.260000	2458.608782
28.270000	2335.110061
28.280000	2210.667886
28.290000	2086.498154
28.300000	1962.033981
28.310000	1835.504978
28.320000	1707.004033
28.330000	1580.765473
28.340000	1454.174349
28.350000	1324.554981
28.360000	1190.855061
28.370000	1057.843163
28.380000	924.646375
28.390000	790.902244
28.400000	654.512477
28.410000	516.359122
28.420000	377.411817
28.430000	235.149456
28.440000	94.651784
28.450000	-47.453633
28.460000	-191.493384
28.470000	-337.472636
28.480000	-482.403757
28.490000	-628.970600
28.500000	-776.792389
28.510000	-929.322392
28.520000	-1081.691410
28.530000	-1238.256050
28.540000	-1392.807881
28.550000	-1548.485114
28.560000	-1703.537252
28.570000	-1861.043688
28.580000	-2022.267786
28.590000	-2183.284058
28.600000	-2347.738382
28.610000	-2510.576338
28.620000	-2676.668570
28.630000	-2841.297793
28.640000	-3008.100373
28.650000	-3175.506767
28.660000	-3347.071192
28.670000	-3521.584042
28.680000	-3696.275535
28.690000	-3870.929207
28.700000	-4046.767754
28.710000	-4223.911623
28.720000	-4403.258719
28.730000	-4581.903178
28.740000	-4763.142589
28.750000	-4945.614052
28.760000	-5130.455004
28.770000	-5316.763865
28.780000	-5505.239184
28.790000	-5696.403363
28.800000	-5888.530122
28.810000	-6081.248917
28.820000	-6275.382700
28.830000	-6470.004017
28.840000	-6665.509223
28.850000	-6862.719843
28.860000	-7063.286790
28.870000	-7266.099350
28.880000	-7468.754531
28.890000	-7671.869958
28.900000	-7875.291992
28.910000	-8082.411125
28.920000	-8292.267270
28.930000	-8502.420219
28.940000	-8712.408816
28.950000	-8923.951587
28.960000	-9140.426611
28.970000	-9360.029093
28.980000	-9580.692686
28.990000	-9801.714578
29.000000	-10021.916868
29.010000	-10243.724488
29.020000	-10467.137309
29.030000	-10693.429144
29.040000	-10919.725867
29.050000	-11148.215411
29.060000	-11379.733218
29.070000	-11613.440986
29.080000	-11848.204988
29.090000	-12081.816763
29.100000	-12316.864271
29.110000	-12555.052229
29.120000	-12796.402080
29.130000	-13040.524007
29.140000	-13286.195925
29.150000	-13531.606622
29.160000	-13778.298821
29.170000	-14025.670488
29.180000	-14277.086975
29.190000	-14530.414074
29.200000	-14782.587778
29.210000	-15035.907886
29.220000	-15290.839233
29.230000	-15551.855172
29.240000	-15814.528720
29.250000	-16078.963964
29.260000	-16341.710659
29.270000	-16607.617486
29.280000	-16874.748855
29.290000	-17145.176424
29.300000	-17414.683607
29.310000	-17686.355221
29.320000	-17962.234506
29.330000	-18240.494825
29.340000	-18519.777110
29.350000	-18797.640752
29.360000	-19078.031978
29.370000	-19361.824941
29.380000	-19648.013572
29.390000	-19934.757135
29.400000	-20222.770772
29.410000	-20512.141020
29.420000	-20804.002307
29.430000	-21098.010215
29.440000	-21393.740782
29.450000	-21690.403216
29.460000	-21989.026594
29.470000	-22290.020914
29.480000	-22593.555398
29.490000	-22899.231159
29.500000	-23205.358411
29.510000	-23513.745605
29.520000	-23823.130947
29.530000	-24135.262827
29.540000	-24449.908957
29.550000	-24765.470131
29.560000	-25084.408065
29.570000	-25403.387412
29.580000	-25725.666981
29.590000	-26049.047041
29.600000	-26375.042257
29.610000	-26702.153207
29.620000	-27030.558788
29.630000	-27361.079445
29.640000	-27693.572481
29.650000	-28028.187623
29.660000	-28364.780996
29.670000	-28703.172315
29.680000	-29042.879441
29.690000	-29385.400506
29.700000	-29729.221461
29.710000	-30076.236848
29.720000	-30423.495721
29.730000	-30774.382712
29.740000	-31125.055302
29.750000	-31478.197870
29.760000	-31831.264555
29.770000	-32189.711519
29.780000	-32549.469774
29.790000	-32911.941068
29.800000	-33272.036587
29.810000	-33630.912202
29.820000	-33973.962683
29.830000	-34283.956626
29.840000	-34521.586372
29.850000	-34621.364884
29.860000	-34475.206093
29.870000	-34271.042964
29.880000	-34395.505201
29.890000	-34968.465346
29.900000	-35729.245841
29.910000	-36326.802492
29.920000	-36743.073342
29.930000	-37067.950892
29.940000	-37284.798555
29.950000	-37395.348705
29.960000	-37467.579776
29.970000	-37683.274679
29.980000	-38111.942849
29.990000	-38536.979435
30.000000	-38646.616660
30.010000	-38241.238256
30.020000	-37404.989561
30.030000	-36348.103217
30.040000	-35176.341901
30.050000	-34192.448549
30.060000	-33796.239629
30.070000	-34821.269808
30.080000	-37061.238262
30.090000	-39516.875496
30.100000	-41162.130925
30.110000	-41870.591338
30.120000	-42552.849101
30.130000	-43431.733297
30.140000	-44334.800965
30.150000	-44492.558701
30.160000	-43944.969701
30.170000	-42830.317865
30.180000	-41812.582484
30.190000	-40968.132830
30.200000	-40405.957172
30.210000	-40222.253984
30.220000	-40352.233088
30.230000	-40736.735828
30.240000	-41001.991696
30.250000	-41101.798814
30.260000	-41167.587368
30.270000	-41042.085523
30.280000	-40671.818681
30.290000	-40083.610297
30.300000	-39676.088752
30.310000	-39336.414314
30.320000	-38961.067994
30.330000	-37924.467310
30.340000	-36502.538547
30.350000	-35044.402065
30.360000	-34245.639986
30.370000	-33908.895278
30.380000	-33770.902845
30.390000	-32761.846926
30.400000	-30079.906493
30.410000	-27136.546412
30.420000	-24198.097786
30.430000	-22509.597269
30.440000	-20355.818718
30.450000	-18556.935467
30.460000	-16220.823682
30.470000	-13493.107422
30.480000	-14765.470678
30.490000	-19817.118802
30.500000	-24943.933683
30.510000	-28231.796626
30.520000	-31329.557938
30.530000	-37716.653760
30.540000	-44828.168735
30.550000	-51426.525315
30.560000	-56889.381105
30.570000	-61335.700528
30.580000	-64379.475976
30.590000	-65788.227785
30.600000	-66695.914788
30.610000	-67522.712316
30.620000	-68393.453232
30.630000	-68955.789710
30.640000	-69349.572588
30.650000	-69601.777954
30.660000	-69949.147003
30.670000	-70388.978431
30.680000	-71234.783656
30.690000	-72265.561315
30.700000	-72963.445079
30.710000	-73170.629132
30.720000	-73568.228746
30.730000	-74585.143937
30.740000	-75840.917008
30.750000	-76719.459835
30.760000	-77316.662623
30.770000	-77872.593354
30.780000	-78439.299417
30.790000	-78999.596467
30.800000	-79569.070961
30.810000	-80131.207326
30.820000	-80701.276409
30.830000	-81266.070088
30.840000	-81840.204755
30.850000	-82410.819709
30.860000	-82990.146358
30.870000	-83565.760786
30.880000	-84144.380696
30.890000	-84719.552987
30.900000	-85299.856902
30.910000	-85879.819931
30.920000	-86464.186738
30.930000	-87047.195285
30.940000	-87633.660721
30.950000	-88216.296452
30.960000	-88801.240709
30.970000	-89382.743635
30.980000	-89966.874142
30.990000	-90548.155188
31.000000	-91131.506755
31.010000	-91714.491135
31.020000	-92300.406473
31.030000	-92888.373139
31.040000	-93479.842398
31.050000	-94074.418240
31.060000	-94672.085328
31.070000	-95272.572469
31.080000	-95877.412995
31.090000	-96486.772083
31.100000	-97101.092667
31.110000	-97721.960915
31.120000	-98349.388328
31.130000	-98982.400982
31.140000	-99618.232694
31.150000	-100255.029589
31.160000	-100893.568777
31.170000	-101535.777014
31.180000	-102180.308742
31.190000	-102825.566530
31.200000	-103470.722886
31.210000	-104117.329958
31.220000	-104765.729084
31.230000	-105415.313519
31.240000	-106065.250776
31.250000	-106716.109766
31.260000	-107367.537503
31.270000	-108017.627384
31.280000	-108668.518386
31.290000	-109319.109217
31.300000	-109970.434313
31.310000	-110622.472713
31.320000	-111274.186712
31.330000	-111927.972257
31.340000	-112583.678730
31.350000	-113242.842349
31.360000	-113903.144679
31.370000	-114563.317746
31.380000	-115223.500776
31.390000	-115885.968443
31.400000	-116548.964340
31.410000	-117213.359951
31.420000	-117879.775137
31.430000	-118549.381167
31.440000	-119220.485804
31.450000	-119892.926457
31.460000	-120565.992905
31.470000	-121239.548585
31.480000	-121915.189936
31.490000	-122591.122393
31.500000	-123268.297238
31.510000	-123945.868301
31.520000	-124625.528760
31.530000	-125308.670068
31.540000	-125992.076319
31.550000	-126677.752758
31.560000	-127363.148390
31.570000	-128049.987208
31.580000	-128735.617331
31.590000	-129424.250807
31.600000	-130112.676789
31.610000	-130804.744509
31.620000	-131494.184837
31.630000	-132182.333669
31.640000	-132865.350612
31.650000	-133547.547049
31.660000	-134226.361738
31.670000	-134901.559281
31.680000	-135564.068461
31.690000	-136212.572574
31.700000	-136832.644664
31.710000	-137416.768551
31.720000	-137932.573670
31.730000	-138358.338019
31.740000	-138652.715341
31.750000	-138785.125083
31.760000	-138640.065731
31.770000	-138169.793279
31.780000	-137420.955946
31.790000	-136622.494066
31.800000	-135961.179403
31.810000	-135682.387835
31.820000	-135657.656881
31.830000	-135797.250021
31.840000	-135671.977822
31.850000	-135154.296060
31.860000	-134264.973531
31.870000	-133311.307694
31.880000	-132319.954092
31.890000	-131321.328176
31.900000	-130147.965047
31.910000	-129259.552944
31.920000	-128418.783802
31.930000	-127402.444821
31.940000	-125594.056255
31.950000	-123176.637726
31.960000	-119843.325528
31.970000	-114041.791754
31.980000	-102928.220798
31.990000	-76233.259951
32.000000	-29874.141564
32.010000	-25790.948850
32.020000	-49183.162850
32.030000	-65851.931271
32.040000	-83315.523515
32.050000	-93182.429629
32.060000	-101527.456764
32.070000	-110727.672852
32.080000	-117902.310056
32.090000	-121382.603298
32.100000	-120922.648088
32.110000	-118189.996606
32.120000	-114158.138558
32.130000	-108652.522762
32.140000	-102310.705469
32.150000	-95572.243552
32.160000	-88831.779327
32.170000	-81883.973254
32.180000	-73989.969827
32.190000	-65353.483922
32.200000	-57604.264623
32.210000	-51288.996162
32.220000	-46718.549283
32.230000	-43048.773099
32.240000	-39759.469614
32.250000	-36994.006183
32.260000	-34416.929212
32.270000	-31196.283825
32.280000	-25236.531190
32.290000	-15724.973055
32.300000	-4040.965041
32.310000	9338.475678
32.320000	21903.478088
32.330000	31686.874167
32.340000	42537.500932
32.350000	57068.971184
32.360000	81341.353874
32.370000	99618.086211
32.380000	111023.554544
32.390000	111230.773624
32.400000	103657.733993
32.410000	81232.706286
32.420000	47405.470013
32.430000	42058.970815
32.440000	38218.884476
32.450000	37089.645518
32.460000	39841.800710
32.470000	65454.966219
32.480000	96117.893398
32.490000	109203.862821
32.500000	115374.367945
32.510000	121410.806816
32.520000	127228.440768
32.530000	131472.476713
32.540000	132706.763728
32.550000	133188.651787
32.560000	133838.528134
32.570000	133926.175703
32.580000	133686.928188
32.590000	132791.900813
32.600000	132249.518466
32.610000	131864.937098
32.620000	133120.763379
32.630000	135726.915805
32.640000	134577.689423
32.650000	130323.163338
32.660000	124504.050834
32.670000	120972.922214
32.680000	118800.120261
32.690000	120110.237172
32.700000	123143.656617
32.710000	125844.631411
32.720000	125434.189210
32.730000	123761.141405
32.740000	122560.904015
32.750000	121898.645285
32.760000	121963.962167
32.770000	121844.543768
32.780000	121805.761371
32.790000	121712.600311
32.800000	121992.781120
32.810000	122764.564955
32.820000	123954.782155
32.830000	124964.006177
32.840000	125104.877808
32.850000	123993.697597
32.860000	121043.577496
32.870000	117800.153425
32.880000	117959.167612
32.890000	118482.509523
32.900000	117782.880691
32.910000	113436.114122
32.920000	109486.982984
32.930000	106981.845833
32.940000	105517.874119
32.950000	105306.105359
32.960000	105597.040823
32.970000	105404.700430
32.980000	104467.252160
32.990000	103788.564204
33.000000	103815.461902
33.010000	104708.238044
33.020000	106175.763528
33.030000	108504.898504
33.040000	111237.484761
33.050000	113672.757880
33.060000	115639.257068
33.070000	117336.631863
33.080000	118729.777245
33.090000	119590.765483
33.100000	119945.178814
33.110000	119794.747161
33.120000	119284.281321
33.130000	118030.647063
33.140000	115310.209780
33.150000	109577.388275
33.160000	100854.194492
33.170000	99401.322858
33.180000	108423.818643
33.190000	116739.186156
33.200000	117314.285334
33.210000	111078.094103
33.220000	104735.332249
33.230000	100393.155441
33.240000	98223.087892
33.250000	97122.957663
33.260000	97168.834598
33.270000	96895.666055
33.280000	95836.177527
33.290000	93825.777704
33.300000	92079.263193
33.310000	91274.751103
33.320000	91364.070888
33.330000	91981.950865
33.340000	93377.376223
33.350000	95185.989234
33.360000	97008.821782
33.370000	98145.145579
33.380000	98524.322287
33.390000	97730.053872
33.400000	95338.880815
33.410000	90139.919559
33.420000	87122.296738
33.430000	88962.790446
33.440000	96510.532243
33.450000	97312.935167
33.460000	92765.714300
33.470000	88504.525835
33.480000	85993.875444
33.490000	83947.666959
33.500000	81887.731368
33.510000	79172.872747
33.520000	76499.142065
33.530000	74299.607140
33.540000	72718.378517
33.550000	71040.636493
33.560000	69455.118281
33.570000	68318.515865
33.580000	67820.822227
33.590000	67723.005134
33.600000	67823.783895
33.610000	68031.314376
33.620000	68257.306325
33.630000	68454.652246
33.640000	68661.342089
33.650000	68643.887752
33.660000	68486.256277
33.670000	67882.755686
33.680000	67118.859186
33.690000	65757.733417
33.700000	64017.716775
33.710000	63005.968685
33.720000	65284.747940
33.730000	70708.362468
33.740000	74304.111627
33.750000	74074.347289
33.760000	70677.078077
33.770000	68090.818612
33.780000	66543.408886
33.790000	65482.504012
33.800000	65400.657117
33.810000	65732.688664
33.820000	66004.248999
33.830000	66142.760371
33.840000	66444.660268
33.850000	67220.030632
33.860000	67992.427170
33.870000	68659.197824
33.880000	69631.830452
33.890000	70944.239118
33.900000	72253.462877
33.910000	73107.932390
33.920000	73412.710674
33.930000	73631.146685
33.940000	73673.779127
33.950000	73191.671519
33.960000	71824.189082
33.970000	71000.502457
33.980000	71707.123026
33.990000	71768.403807
34.000000	70337.477365
34.010000	67211.526399
34.020000	64828.217366
34.030000	63057.744576
34.040000	61470.294260
34.050000	58412.776961
34.060000	53553.520633
34.070000	48516.379488
34.080000	45529.618217
34.090000	44874.858242
34.100000	44853.511204
34.110000	44882.312255
34.120000	44820.208154
34.130000	44887.024021
34.140000	44981.299473
34.150000	45074.890579
34.160000	45088.546851
34.170000	45159.323720
34.180000	45388.343796
34.190000	45676.865006
34.200000	45872.325222
34.210000	45921.018372
34.220000	45939.121789
34.230000	46075.283826
34.240000	46183.806890
34.250000	46155.353242
34.260000	45908.278985
34.270000	45338.411592
34.280000	44382.921702
34.290000	43552.775626
34.300000	44621.768276
34.310000	49234.191455
34.320000	54274.286967
34.330000	56145.370515
34.340000	54352.747507
34.350000	51616.472000
34.360000	50122.170283
34.370000	48876.275212
34.380000	47969.675100
34.390000	47365.834849
34.400000	46455.716491
34.410000	45006.204944
34.420000	43052.274167
34.430000	41644.813665
34.440000	41515.404608
34.450000	42547.543990
34.460000	44291.404713
34.470000	45927.043560
34.480000	47254.560642
34.490000	48424.959833
34.500000	49538.697128
34.510000	50540.901723
34.520000	51152.669733
34.530000	51068.554387
34.540000	50352.104744
34.550000	49037.573790
34.560000	47372.236661
34.570000	45271.123461
34.580000	44184.358308
34.590000	44503.202075
34.600000	44884.817742
34.610000	44233.389583
34.620000	42492.893007
34.630000	41282.935232
34.640000	40508.343380
34.650000	39743.319730
34.660000	39149.816783
34.670000	38157.429694
34.680000	34658.466145
34.690000	29647.452756
34.700000	25149.332402
34.710000	23812.569093
34.720000	24606.468059
34.730000	25721.247021
34.740000	26698.008872
34.750000	27270.475450
34.760000	27611.771114
34.770000	27836.885071
34.780000	28056.187653
34.790000	28184.751221
34.800000	27986.842027
34.810000	27846.630952
34.820000	31707.909558
34.830000	38269.151664
34.840000	41217.548629
34.850000	40057.659003
34.860000	36612.206268
34.870000	34898.206372
34.880000	33677.347806
34.890000	32682.329328
34.900000	31877.691779
34.910000	31153.804382
34.920000	30544.642608
34.930000	29983.204271
34.940000	29511.083436
34.950000	29069.175346
34.960000	28683.595266
34.970000	28290.057389
34.980000	27916.842743
34.990000	27531.241955
35.000000	27187.454078
35.010000	26866.004275
35.020000	26562.541833
35.030000	26238.762826
35.040000	25925.229327
35.050000	25634.871147
35.060000	25370.608301
35.070000	25084.880408
35.080000	24796.863949
35.090000	24530.583323
35.100000	24309.785982
35.110000	24101.116531
35.120000	23894.412009
35.130000	23686.629270
35.140000	23501.390782
35.150000	23333.662187
35.160000	23198.008172
35.170000	23080.186525
35.180000	22971.864608
35.190000	22871.270494
35.200000	22786.274457
35.210000	22689.436253
35.220000	22513.070911
35.230000	22233.204097
35.240000	21894.522730
35.250000	21559.137856
35.260000	21265.679253
35.270000	21013.717870
35.280000	20802.572817
35.290000	20613.637116
35.300000	20440.873309
35.310000	20276.240405
35.320000	20131.902520
35.330000	20017.159268
35.340000	19909.818769
35.350000	19791.712679
35.360000	19656.039578
35.370000	19537.302593
35.380000	19441.086944
35.390000	19354.731178
35.400000	19280.714029
35.410000	19227.697441
35.420000	19202.505871
35.430000	19211.481169
35.440000	19252.742785
35.450000	19315.690684
35.460000	19378.045986
35.470000	19438.036726
35.480000	19499.426313
35.490000	19556.734234
35.500000	19588.454290
35.510000	19578.787105
35.520000	19541.551204
35.530000	19497.494375
35.540000	19468.266956
35.550000	19453.404801
35.560000	19466.933813
35.570000	19515.854531
35.580000	19596.777905
35.590000	19680.419289
35.600000	19763.192327
35.610000	19847.146079
35.620000	19904.986057
35.630000	19888.588787
35.640000	19793.318793
35.650000	19688.634209
35.660000	19648.375629
35.670000	19678.183777
35.680000	19736.640620
35.690000	19785.057397
35.700000	19814.616573
35.710000	19843.947562
35.720000	19891.512010
35.730000	19966.377195
35.740000	20074.609677
35.750000	20208.290634
35.760000	20350.182253
35.770000	20478.670720
35.780000	20594.940818
35.790000	20723.549613
35.800000	20878.750143
35.810000	21039.387971
35.820000	21172.895692
35.830000	21284.341328
35.840000	21406.439401
35.850000	21580.283725
35.860000	21791.774540
35.870000	22019.793398
35.880000	22252.698992
35.890000	22502.240525
35.900000	22778.134194
35.910000	23058.426653
35.920000	23328.391406
35.930000	23575.396731
35.940000	23789.744095
35.950000	23941.039802
35.960000	24020.528315
35.970000	24073.846484
35.980000	24157.665695
35.990000	24307.225641
36.000000	24503.593962
36.010000	24753.590053
36.020000	25009.261020
36.030000	25179.031761
36.040000	25185.806011
36.050000	25029.497384
36.060000	24823.449028
36.070000	24631.921941
36.080000	24501.778434
36.090000	24481.391772
36.100000	24619.456640
36.110000	24901.676482
36.120000	25236.884760
36.130000	25558.629782
36.140000	25866.735129
36.150000	26176.170923
36.160000	26472.022184
36.170000	26731.180694
36.180000	26960.855843
36.190000	27203.723248
36.200000	27486.385936
36.210000	27807.902430
36.220000	28153.227774
36.230000	28511.748961
36.240000	28883.057337
36.250000	29249.144532
36.260000	29612.177191
36.270000	29984.774345
36.280000	30381.478336
36.290000	30797.831601
36.300000	31208.505218
36.310000	31610.369471
36.320000	32007.942467
36.330000	32400.251145
36.340000	32791.388510
36.350000	33188.438375
36.360000	33598.099764
36.370000	34017.835226
36.380000	34442.674509
36.390000	34877.096509
36.400000	35306.670555
36.410000	35723.483474
36.420000	36139.128955
36.430000	36552.210982
36.440000	36909.454971
36.450000	37167.944034
36.460000	37351.240774
36.470000	37550.439634
36.480000	37808.437569
36.490000	38128.669623
36.500000	38485.028502
36.510000	38864.376112
36.520000	39266.059971
36.530000	39678.757997
36.540000	40099.450491
36.550000	40520.093633
36.560000	40951.157132
36.570000	41377.922833
36.580000	41787.060884
36.590000	42183.626123
36.600000	42588.795885
36.610000	43006.030832
36.620000	43431.557278
36.630000	43863.115212
36.640000	44304.305933
36.650000	44754.788639
36.660000	45212.277558
36.670000	45673.315322
36.680000	46136.405592
36.690000	46596.276927
36.700000	47063.650157
36.710000	47543.589298
36.720000	48041.555520
36.730000	48532.771434
36.740000	49004.071742
36.750000	49465.889867
36.760000	49939.447957
36.770000	50438.108983
36.780000	50945.155421
36.790000	51438.017178
36.800000	51923.272404
36.810000	52430.943214
36.820000	52875.649544
36.830000	53209.171776
36.840000	53444.685457
36.850000	53670.385887
36.860000	53941.699894
36.870000	54255.797207
36.880000	54643.117950
36.890000	55089.686796
36.900000	55562.705581
36.910000	56035.100720
36.920000	56491.454167
36.930000	56949.354225
36.940000	57417.547028
36.950000	57897.575790
36.960000	58379.882836
36.970000	58859.368269
36.980000	59343.429850
36.990000	59829.260778
37.000000	60331.102554
37.010000	60854.492020
37.020000	61382.359209
37.030000	61910.688181
37.040000	62435.828579
37.050000	62972.428574
37.060000	63512.344533
37.070000	64042.546216
37.080000	64561.564003
37.090000	65072.294981
37.100000	65583.699556
37.110000	66106.561413
37.120000	66634.914588
37.130000	67156.214342
37.140000	67666.837361
37.150000	68178.871915
37.160000	68661.882666
37.170000	69081.034145
37.180000	69417.766404
37.190000	69730.478040
37.200000	70061.285179
37.210000	70443.519931
37.220000	70859.227142
37.230000	71333.853242
37.240000	71816.405761
37.250000	72322.423165
37.260000	72814.098578
37.270000	73367.238904
37.280000	73929.311936
37.290000	74498.004422
37.300000	75046.875902
37.310000	75670.456967
37.320000	76361.118145
37.330000	77053.647189
37.340000	77661.133116
37.350000	78211.922314
37.360000	78675.356568
37.370000	79127.796968
37.380000	79585.321271
37.390000	80150.082266
37.400000	80759.274048
37.410000	81413.917098
37.420000	81965.790404
37.430000	82537.735317
37.440000	83066.633140
37.450000	83783.462828
37.460000	84429.830522
37.470000	84762.861738
37.480000	84714.065142
37.490000	84305.663733
37.500000	81926.897036
37.510000	76192.520058
37.520000	60804.783363
37.530000	41857.161913
37.540000	21961.856741
37.550000	8029.912883
37.560000	-1904.393110
37.570000	-10674.654769
37.580000	-18876.496874
37.590000	-26858.067778
37.600000	-34486.251436
37.610000	-40423.113611
37.620000	-44493.873901
37.630000	-47043.326438
37.640000	-49377.753499
37.650000	-51815.849735
37.660000	-54488.212424
37.670000	-57200.649614
37.680000	-59759.914950
37.690000	-61906.246497
37.700000	-63790.463198
37.710000	-65310.939350
37.720000	-66536.673653
37.730000	-67416.232184
37.740000	-68384.219920
37.750000	-69561.734514
37.760000	-71505.101418
37.770000	-74549.170573
37.780000	-79250.869976
37.790000	-85150.827020
37.800000	-91614.235920
37.810000	-95778.845170
37.820000	-95547.917080
37.830000	-92965.514914
37.840000	-94456.706972
37.850000	-105110.757832
37.860000	-125348.472044
37.870000	-141528.037345
37.880000	-162163.300327
37.890000	-172956.647768
37.900000	-178979.590557
37.910000	-182157.774988
37.920000	-184295.387864
37.930000	-185298.055768
37.940000	-185875.683914
37.950000	-186018.705938
37.960000	-186144.887059
37.970000	-186022.358669
37.980000	-185836.742643
37.990000	-185367.452601
38.000000	-184804.332341
38.010000	-184093.532848
38.020000	-183526.239647
38.030000	-183031.702111
38.040000	-182740.829270
38.050000	-182572.795804
38.060000	-182577.994992
38.070000	-182521.363082
38.080000	-182340.934532
38.090000	-181975.604086
38.100000	-181569.146657
38.110000	-181084.763028
38.120000	-180585.081997
38.130000	-180043.161184
38.140000	-179517.103455
38.150000	-178967.176008
38.160000	-178392.816266
38.170000	-177760.381013
38.180000	-177107.702585
38.190000	-176463.566742
38.200000	-175867.985912
38.210000	-175307.999314
38.220000	-174759.322205
38.230000	-174191.523039
38.240000	-173606.210742
38.250000	-173008.876789
38.260000	-172413.963926
38.270000	-171819.712381
38.280000	-171224.595966
38.290000	-170623.767865
38.300000	-170003.448878
38.310000	-169345.739428
38.320000	-168646.280637
38.330000	-167929.077085
38.340000	-167197.021414
38.350000	-166454.062408
38.360000	-165688.373678
38.370000	-164915.119014
38.380000	-164105.944870
38.390000	-163277.979260
38.400000	-162379.344496
38.410000	-161400.311450
38.420000	-160222.138088
38.430000	-158715.644538
38.440000	-156673.749133
38.450000	-154326.209707
38.460000	-151862.615318
38.470000	-149262.228220
38.480000	-146209.032784
38.490000	-142208.783143
38.500000	-136964.012705
38.510000	-130622.912565
38.520000	-122736.326799
38.530000	-111602.576753
38.540000	-91798.629622
38.550000	-64141.519840
38.560000	-28622.859690
38.570000	31940.983714
38.580000	95754.622610
38.590000	129603.980598
38.600000	153540.525434
38.610000	167581.325974
38.620000	175092.052433
38.630000	180452.204017
38.640000	184598.600768
38.650000	187484.420547
38.660000	189758.491280
38.670000	191569.364269
38.680000	192957.187178
38.690000	193581.700338
38.700000	193668.874950
38.710000	193530.373424
38.720000	193578.939118
38.730000	193803.978455
38.740000	194225.844318
38.750000	194543.115900
38.760000	194687.799112
38.770000	194644.463923
38.780000	194591.676126
38.790000	194357.560807
38.800000	193956.429987
38.810000	193275.994995
38.820000	192613.980010
38.830000	192369.361109
38.840000	192796.770004
38.850000	193754.255795
38.860000	194851.810028
38.870000	195750.200265
38.880000	196416.913915
38.890000	196726.754836
38.900000	196928.217512
38.910000	196997.375309
38.920000	197000.556022
38.930000	196905.817901
38.940000	197119.159831
38.950000	197520.848202
38.960000	197933.605248
38.970000	197874.338304
38.980000	197500.742570
38.990000	196301.553949
39.000000	193813.203505
39.010000	188250.627788
39.020000	180129.958474
39.030000	172839.648576
39.040000	168784.025884
39.050000	167644.831525
39.060000	165484.958322
39.070000	163007.994702
39.080000	164889.655310
39.090000	170478.006234
39.100000	175888.220223
39.110000	177323.313742
39.120000	176810.763687
39.130000	175288.577887
39.140000	173458.213874
39.150000	169507.775163
39.160000	165963.026088
39.170000	162824.763397
39.180000	160997.991013
39.190000	157940.896159
39.200000	155654.652941
39.210000	151530.192767
39.220000	147550.359019
39.230000	142868.087197
39.240000	140738.640144
39.250000	135874.531124
39.260000	126481.337196
39.270000	98178.752063
39.280000	37153.069416
39.290000	-81897.853643
39.300000	-107207.250016
39.310000	-109947.601398
39.320000	-109824.229021
39.330000	-110351.690974
39.340000	-109111.461515
39.350000	-109173.272921
39.360000	-108052.922821
39.370000	-107997.730767
39.380000	-106983.261807
39.390000	-106830.757380
39.400000	-105900.496608
39.410000	-105671.145096
39.420000	-104812.205998
39.430000	-104522.396272
39.440000	-103722.301072
39.450000	-103381.643611
39.460000	-102626.424930
39.470000	-102245.608449
39.480000	-101530.976748
39.490000	-101120.199337
39.500000	-100437.848259
39.510000	-100002.501338
39.520000	-99346.437994
39.530000	-98889.053901
39.540000	-98254.376796
39.550000	-97781.823895
39.560000	-97165.179883
39.570000	-96678.877304
39.580000	-96076.290918
39.590000	-95581.345362
39.600000	-94992.070357
39.610000	-94490.087114
39.620000	-93912.170826
39.630000	-93405.664160
39.640000	-92838.198876
39.650000	-92328.673435
39.660000	-91769.726623
39.670000	-91257.073396
39.680000	-90705.635272
39.690000	-90193.509632
39.700000	-89648.429101
39.710000	-89131.987866
39.720000	-88588.617746
39.730000	-88072.191681
39.740000	-87535.996274
39.750000	-87021.811975
39.760000	-86491.702669
39.770000	-85980.886186
39.780000	-85457.851084
39.790000	-84950.453848
39.800000	-84432.887061
39.810000	-83925.219829
39.820000	-83408.591928
39.830000	-82900.230377
39.840000	-82385.724467
39.850000	-81878.868221
39.860000	-81367.369934
39.870000	-80863.525737
39.880000	-80355.936179
39.890000	-79854.594416
39.900000	-79349.833544
39.910000	-78848.458997
39.920000	-78343.475374
39.930000	-77842.510662
39.940000	-77341.596331
39.950000	-76845.460762
39.960000	-76348.927715
39.970000	-75855.702154
39.980000	-75360.864435
39.990000	-74868.291711
40.000000	-74375.134525
40.010000	-73885.278983
40.020000	-73396.460507
40.030000	-72908.036604
40.040000	-72417.573442
40.050000	-71928.293824
40.060000	-71441.523631
40.070000	-70960.088911
40.080000	-70479.678799
40.090000	-70003.151993
40.100000	-69529.093814
40.110000	-69058.850415
40.120000	-68587.809291
40.130000	-68116.902867
40.140000	-67646.550365
40.150000	-67177.337227
40.160000	-66709.024649
40.170000	-66235.176974
40.180000	-65759.636082
40.190000	-65286.813303
40.200000	-64821.061391
40.210000	-64361.601519
40.220000	-63901.988652
40.230000	-63444.615988
40.240000	-62989.461990
40.250000	-62536.867826
40.260000	-62084.848581
40.270000	-61632.057268
40.280000	-61178.523959
40.290000	-60722.208127
40.300000	-60265.527066
40.310000	-59811.357066
40.320000	-59363.543945
40.330000	-58919.513393
40.340000	-58477.601886
40.350000	-58037.725790
40.360000	-57599.389897
40.370000	-57163.017682
40.380000	-56726.259338
40.390000	-56292.091634
40.400000	-55857.892191
40.410000	-55426.303178
40.420000	-54995.981220
40.430000	-54569.001539
40.440000	-54144.549702
40.450000	-53721.195219
40.460000	-53300.298807
40.470000	-52879.894995
40.480000	-52462.584291
40.490000	-52045.445048
40.500000	-51631.091703
40.510000	-51218.532873
40.520000	-50808.157875
40.530000	-50399.847907
40.540000	-49992.122230
40.550000	-49585.744030
40.560000	-49180.331052
40.570000	-48775.560305
40.580000	-48373.471754
40.590000	-47972.965105
40.600000	-47574.886408
40.610000	-47178.639036
40.620000	-46783.243960
40.630000	-46390.267800
40.640000	-45997.876945
40.650000	-45608.529764
40.660000	-45220.456080
40.670000	-44834.425865
40.680000	-44449.994819
40.690000	-44067.288635
40.700000	-43686.834983
40.710000	-43307.114378
40.720000	-42930.321944
40.730000	-42554.900804
40.740000	-42181.453281
40.750000	-41808.319987
40.760000	-41436.230406
40.770000	-41066.045417
40.780000	-40697.643786
40.790000	-40330.742165
40.800000	-39965.028070
40.810000	-39600.743718
40.820000	-39237.378948
40.830000	-38875.381696
40.840000	-38514.359532
40.850000	-38156.322927
40.860000	-37798.955949
40.870000	-37443.900235
40.880000	-37090.167605
40.890000	-36739.771935
40.900000	-36390.650996
40.910000	-36043.263375
40.920000	-35697.408383
40.930000	-35353.361359
40.940000	-35010.765142
40.950000	-34670.058288
40.960000	-34331.379933
40.970000	-33994.341166
40.980000	-33659.245688
40.990000	-33325.197925
41.000000	-32994.358246
41.010000	-32663.940535
41.020000	-32335.041724
41.030000	-32006.898902
41.040000	-31681.280095
41.050000	-31358.060219
41.060000	-31035.381865
41.070000	-30714.758762
41.080000	-30395.331363
41.090000	-30077.307236
41.100000	-29759.449793
41.110000	-29443.696366
41.120000	-29130.387962
41.130000	-28819.901719
41.140000	-28511.798495
41.150000	-28205.573133
41.160000	-27901.000830
41.170000	-27596.690318
41.180000	-27293.984084
41.190000	-26992.567290
41.200000	-26692.389825
41.210000	-26393.523609
41.220000	-26096.533015
41.230000	-25802.206893
41.240000	-25509.387293
41.250000	-25217.264156
41.260000	-24926.608700
41.270000	-24638.675137
41.280000	-24353.836191
41.290000	-24070.077357
41.300000	-23786.720953
41.310000	-23504.125006
41.320000	-23223.907262
41.330000	-22942.779288
41.340000	-22660.711170
41.350000	-22380.037108
41.360000	-22103.434652
41.370000	-21830.526614
41.380000	-21559.381914
41.390000	-21293.914724
41.400000	-21034.188849
41.410000	-20775.146578
41.420000	-20514.849593
41.430000	-20251.879069
41.440000	-19990.679487
41.450000	-19729.735277
41.460000	-19469.642185
41.470000	-19211.372984
41.480000	-18954.033553
41.490000	-18699.772728
41.500000	-18447.489434
41.510000	-18198.238140
41.520000	-17950.317020
41.530000	-17703.071782
41.540000	-17456.831957
41.550000	-17212.577712
41.560000	-16970.333848
41.570000	-16730.392922
41.580000	-16491.793029
41.590000	-16255.158645
41.600000	-16019.846867
41.610000	-15786.511279
41.620000	-15555.133990
41.630000	-15324.748115
41.640000	-15095.295330
41.650000	-14866.173327
41.660000	-14638.636359
41.670000	-14412.086000
41.680000	-14187.124437
41.690000	-13962.120734
41.700000	-13736.060086
41.710000	-13509.590177
41.720000	-13282.407444
41.730000	-13054.792973
41.740000	-12823.795010
41.750000	-12587.698844
41.760000	-12350.548580
41.770000	-12119.948444
41.780000	-11899.609093
41.790000	-11687.149223
41.800000	-11478.616733
41.810000	-11275.299293
41.820000	-11078.208568
41.830000	-10885.008435
41.840000	-10695.023138
41.850000	-10506.248610
41.860000	-10318.694361
41.870000	-10130.651562
41.880000	-9941.519096
41.890000	-9752.526253
41.900000	-9563.456084
41.910000	-9375.169582
41.920000	-9186.134901
41.930000	-8996.548723
41.940000	-8806.527167
41.950000	-8615.622534
41.960000	-8424.935730
41.970000	-8234.019909
41.980000	-8044.660624
41.990000	-7856.704489
42.000000	-7669.993649
42.010000	-7485.983874
42.020000	-7304.561584
42.030000	-7125.818509
42.040000	-6947.994539
42.050000	-6771.845535
42.060000	-6597.593504
42.070000	-6425.355034
42.080000	-6253.652764
42.090000	-6082.983164
42.100000	-5913.472714
42.110000	-5745.355084
42.120000	-5578.684086
42.130000	-5413.433750
42.140000	-5249.249867
42.150000	-5086.518070
42.160000	-4925.801369
42.170000	-4767.903197
42.180000	-4614.303087
42.190000	-4464.211968
42.200000	-4318.721333
42.210000	-4175.403894
42.220000	-4033.685584
42.230000	-3891.781481
42.240000	-3749.156965
42.250000	-3605.310873
42.260000	-3459.761441
42.270000	-3311.954411
42.280000	-3162.798897
42.290000	-3011.670625
42.300000	-2858.897093
42.310000	-2703.756637
42.320000	-2547.688438
42.330000	-2391.175084
42.340000	-2233.793524
42.350000	-2078.232792
42.360000	-1925.171604
42.370000	-1776.887863
42.380000	-1630.777020
42.390000	-1489.445755
42.400000	-1354.917093
42.410000	-1226.847816
42.420000	-1103.217628
42.430000	-981.060072
42.440000	-860.988504
42.450000	-742.042891
42.460000	-622.178991
42.470000	-502.437804
42.480000	-381.748323
42.490000	-262.541338
42.500000	-142.317470
42.510000	-21.313426
42.520000	99.803477
42.530000	220.625461
42.540000	339.984920
42.550000	458.651234
42.560000	575.929556
42.570000	692.466891
42.580000	807.675978
42.590000	921.441326
42.600000	1032.595967
42.610000	1143.621202
42.620000	1252.384328
42.630000	1360.043448
42.640000	1465.752798
42.650000	1571.745367
42.660000	1677.069333
42.670000	1780.422056
42.680000	1884.725450
42.690000	1991.107363
42.700000	2100.413226
42.710000	2207.159934
42.720000	2310.851544
42.730000	2411.636639
42.740000	2508.394243
42.750000	2599.906435
42.760000	2687.756803
42.770000	2775.679766
42.780000	2865.965134
42.790000	2957.311733
42.800000	3050.065229
42.810000	3143.513428
42.820000	3237.424651
42.830000	3329.653226
42.840000	3419.750763
42.850000	3507.440840
42.860000	3593.746416
42.870000	3680.916399
42.880000	3766.097883
42.890000	3850.792306
42.900000	3932.846239
42.910000	4015.775894
42.920000	4099.361603
42.930000	4180.881679
42.940000	4260.031113
42.950000	4337.489426
42.960000	4415.556054
42.970000	4493.625206
42.980000	4569.631335
42.990000	4644.007171
43.000000	4717.966365
43.010000	4791.662082
43.020000	4865.262184
43.030000	4937.291421
43.040000	5007.892887
43.050000	5076.935247
43.060000	5145.560430
43.070000	5214.295466
43.080000	5281.625153
43.090000	5349.084860
43.100000	5414.785910
43.110000	5480.006333
43.120000	5543.414123
43.130000	5606.762112
43.140000	5670.214982
43.150000	5732.040831
43.160000	5793.904425
43.170000	5853.873327
43.180000	5914.186683
43.190000	5973.294439
43.200000	6032.760813
43.210000	6090.339327
43.220000	6147.329812
43.230000	6203.716582
43.240000	6260.588638
43.250000	6316.791908
43.260000	6371.570191
43.270000	6425.944445
43.280000	6478.300827
43.290000	6530.546924
43.300000	6581.480435
43.310000	6632.631625
43.320000	6682.142615
43.330000	6730.565277
43.340000	6778.330543
43.350000	6826.042524
43.360000	6873.075208
43.370000	6918.763399
43.380000	6964.085033
43.390000	7008.424078
43.400000	7052.726823
43.410000	7096.391629
43.420000	7140.033150
43.430000	7182.365183
43.440000	7223.705087
43.450000	7265.051754
43.460000	7306.101153
43.470000	7346.148113
43.480000	7384.925783
43.490000	7423.692447
43.500000	7461.872207
43.510000	7498.712794
43.520000	7534.648007
43.530000	7570.576777
43.540000	7606.613538
43.550000	7641.979674
43.560000	7676.805699
43.570000	7709.952602
43.580000	7742.259481
43.590000	7775.867920
43.600000	7809.324779
43.610000	7840.752653
43.620000	7868.711002
43.630000	7895.984482
43.640000	7924.780177
43.650000	7954.575682
43.660000	7982.893133
43.670000	8010.239801
43.680000	8035.414967
43.690000	8061.678541
43.700000	8087.033483
43.710000	8111.248618
43.720000	8134.461482
43.730000	8157.644727
43.740000	8181.394067
43.750000	8203.888318
43.760000	8226.203845
43.770000	8248.012347
43.780000	8270.583988
43.790000	8291.039250
43.800000	8311.239667
43.810000	8329.333324
43.820000	8347.866270
43.830000	8366.259081
43.840000	8385.151189
43.850000	8403.182297
43.860000	8419.789182
43.870000	8435.473869
43.880000	8451.475790
43.890000	8468.157399
43.900000	8484.901796
43.910000	8500.261737
43.920000	8513.099359
43.930000	8526.495935
43.940000	8539.752319
43.950000	8553.547155
43.960000	8564.889176
43.970000	8574.449762
43.980000	8580.875765
43.990000	8584.225449
44.000000	8584.077430
44.010000	8581.234698
44.020000	8577.191611
44.030000	8572.164751
44.040000	8571.591421
44.050000	8574.361702
44.060000	8583.634708
44.070000	8596.186355
44.080000	8611.009414
44.090000	8627.684664
44.100000	8646.070245
44.110000	8666.883966
44.120000	8685.829151
44.130000	8702.151340
44.140000	8714.992556
44.150000	8726.177250
44.160000	8734.578690
44.170000	8740.985535
44.180000	8744.617184
44.190000	8744.930644
44.200000	8742.474297
44.210000	8739.375103
44.220000	8736.836559
44.230000	8734.669375
44.240000	8732.397568
44.250000	8730.511677
44.260000	8728.513692
44.270000	8725.924261
44.280000	8722.546503
44.290000	8718.933774
44.300000	8715.853672
44.310000	8713.226913
44.320000	8711.794509
44.330000	8709.489161
44.340000	8706.731018
44.350000	8703.083194
44.360000	8699.684572
44.370000	8696.699122
44.380000	8692.670050
44.390000	8689.037798
44.400000	8683.705629
44.410000	8679.461346
44.420000	8674.478243
44.430000	8669.987866
44.440000	8665.017520
44.450000	8659.300466
44.460000	8654.022963
44.470000	8648.080264
44.480000	8642.519067
44.490000	8634.679172
44.500000	8626.869264
44.510000	8618.789126
44.520000	8611.418900
44.530000	8603.767247
44.540000	8595.187336
44.550000	8586.979453
44.560000	8577.854894
44.570000	8568.781535
44.580000	8559.446671
44.590000	8549.187727
44.600000	8539.660503
44.610000	8529.879583
44.620000	8520.181394
44.630000	8508.879769
44.640000	8497.368365
44.650000	8486.546569
44.660000	8475.562128
44.670000	8464.237067
44.680000	8451.452010
44.690000	8438.977681
44.700000	8425.719619
44.710000	8413.120894
44.720000	8400.386692
44.730000	8387.682282
44.740000	8374.811519
44.750000	8361.010682
44.760000	8347.018816
44.770000	8332.457405
44.780000	8318.026802
44.790000	8303.040996
44.800000	8288.523052
44.810000	8273.779620
44.820000	8259.191460
44.830000	8244.027137
44.840000	8228.383446
44.850000	8212.472244
44.860000	8197.451224
44.870000	8183.129376
44.880000	8167.739552
44.890000	8150.356132
44.900000	8131.942763
44.910000	8115.507192
44.920000	8099.728388
44.930000	8083.929889
44.940000	8066.790955
44.950000	8049.313137
44.960000	8031.146060
44.970000	8012.670004
44.980000	7993.479262
44.990000	7974.686558
45.000000	7955.805465
45.010000	7937.712743
45.020000	7919.808610
45.030000	7900.759638
45.040000	7881.181514
45.050000	7861.846331
45.060000	7843.936492
45.070000	7825.313046
45.080000	7806.429216
45.090000	7786.849380
45.100000	7766.670178
45.110000	7746.475162
45.120000	7726.004892
45.130000	7705.873984
45.140000	7685.448002
45.150000	7665.061770
45.160000	7644.684171
45.170000	7623.382189
45.180000	7601.733932
45.190000	7579.851722
45.200000	7559.278919
45.210000	7537.809774
45.220000	7516.672965
45.230000	7496.613552
45.240000	7477.920192
45.250000	7459.608938
45.260000	7438.697655
45.270000	7416.826650
45.280000	7393.018084
45.290000	7367.939521
45.300000	7342.570446
45.310000	7318.291625
45.320000	7295.030622
45.330000	7272.227827
45.340000	7250.753748
45.350000	7229.090030
45.360000	7207.086688
45.370000	7184.564991
45.380000	7161.038357
45.390000	7138.005004
45.400000	7114.282245
45.410000	7091.091137
45.420000	7068.502382
45.430000	7045.159272
45.440000	7022.388949
45.450000	6998.551409
45.460000	6975.623985
45.470000	6950.942336
45.480000	6925.887966
45.490000	6900.353256
45.500000	6875.853362
45.510000	6851.794840
45.520000	6827.193594
45.530000	6803.625443
45.540000	6778.577287
45.550000	6754.864699
45.560000	6730.013084
45.570000	6706.189246
45.580000	6681.850436
45.590000	6657.269681
45.600000	6633.112215
45.610000	6608.441474
45.620000	6583.812882
45.630000	6559.051710
45.640000	6534.628053
45.650000	6509.776861
45.660000	6485.237866
45.670000	6459.291262
45.680000	6434.327092
45.690000	6409.269681
45.700000	6384.231825
45.710000	6358.730707
45.720000	6332.627038
45.730000	6307.357518
45.740000	6281.848693
45.750000	6256.493533
45.760000	6231.580372
45.770000	6206.810009
45.780000	6181.832375
45.790000	6155.984439
45.800000	6129.283372
45.810000	6102.696880
45.820000	6076.272144
45.830000	6051.625463
45.840000	6026.466845
45.850000	6001.115994
45.860000	5975.219227
45.870000	5949.172828
45.880000	5923.206737
45.890000	5897.135409
45.900000	5871.440903
45.910000	5845.678165
45.920000	5820.264686
45.930000	5794.476190
45.940000	5768.019178
45.950000	5741.209832
45.960000	5715.381455
45.970000	5689.880689
45.980000	5664.023963
45.990000	5637.503834
46.000000	5610.623643
46.010000	5584.756280
46.020000	5558.512937
46.030000	5532.649283
46.040000	5506.704320
46.050000	5481.187780
46.060000	5456.542377
46.070000	5430.703577
46.080000	5404.710439
46.090000	5378.207618
46.100000	5352.545820
46.110000	5326.036472
46.120000	5300.059950
46.130000	5274.201173
46.140000	5248.586771
46.150000	5222.712404
46.160000	5195.798127
46.170000	5169.920432
46.180000	5143.692549
46.190000	5118.498912
46.200000	5092.611494
46.210000	5066.118986
46.220000	5039.571809
46.230000	5013.783351
46.240000	4989.579165
46.250000	4964.823327
46.260000	4938.978027
46.270000	4912.924327
46.280000	4887.102784
46.290000	4861.086663
46.300000	4833.625581
46.310000	4806.327037
46.320000	4780.220167
46.330000	4754.305041
46.340000	4728.563783
46.350000	4703.032626
46.360000	4678.662412
46.370000	4653.507797
46.380000	4627.524816
46.390000	4600.744709
46.400000	4574.822834
46.410000	4549.075941
46.420000	4523.894105
46.430000	4497.507748
46.440000	4471.082783
46.450000	4444.715437
46.460000	4419.723084
46.470000	4395.034256
46.480000	4369.149293
46.490000	4342.481444
46.500000	4317.039003
46.510000	4294.054933
46.520000	4272.052318
46.530000	4249.094132
46.540000	4224.538727
46.550000	4200.279030
46.560000	4175.492260
46.570000	4149.608357
46.580000	4121.924954
46.590000	4093.758518
46.600000	4066.174655
46.610000	4040.061601
46.620000	4014.575363
46.630000	3989.190319
46.640000	3963.470046
46.650000	3938.485855
46.660000	3914.193263
46.670000	3891.618159
46.680000	3868.075654
46.690000	3844.933139
46.700000	3819.788060
46.710000	3795.103986
46.720000	3771.005318
46.730000	3746.117410
46.740000	3721.411107
46.750000	3696.310712
46.760000	3672.007890
46.770000	3648.689385
46.780000	3624.455707
46.790000	3600.602210
46.800000	3576.091082
46.810000	3552.050180
46.820000	3529.590821
46.830000	3504.683628
46.840000	3480.311247
46.850000	3454.172470
46.860000	3430.922474
46.870000	3407.179366
46.880000	3383.419506
46.890000	3359.394537
46.900000	3335.129256
46.910000	3312.160844
46.920000	3288.377628
46.930000	3265.487927
46.940000	3242.169580
46.950000	3219.040508
46.960000	3195.179051
46.970000	3171.488072
46.980000	3148.077855
46.990000	3125.162283
47.000000	3101.868202
47.010000	3078.736383
47.020000	3055.553944
47.030000	3032.878172
47.040000	3010.805413
47.050000	2988.920284
47.060000	2965.957661
47.070000	2942.872970
47.080000	2919.679809
47.090000	2896.733744
47.100000	2874.310195
47.110000	2851.166764
47.120000	2829.193538
47.130000	2806.501679
47.140000	2785.000825
47.150000	2762.406472
47.160000	2739.733105
47.170000	2717.894772
47.180000	2696.379752
47.190000	2674.969979
47.200000	2652.945588
47.210000	2631.304921
47.220000	2609.095514
47.230000	2587.904035
47.240000	2566.161706
47.250000	2545.103499
47.260000	2522.812924
47.270000	2501.575873
47.280000	2480.384132
47.290000	2459.314583
47.300000	2437.884798
47.310000	2416.320522
47.320000	2394.985400
47.330000	2373.257569
47.340000	2352.024873
47.350000	2330.793107
47.360000	2310.337666
47.370000	2290.262794
47.380000	2269.921319
47.390000	2249.340052
47.400000	2229.113072
47.410000	2209.022430
47.420000	2189.915897
47.430000	2169.304569
47.440000	2149.006911
47.450000	2127.855617
47.460000	2108.385944
47.470000	2089.675746
47.480000	2070.710680
47.490000	2051.779442
47.500000	2032.647987
47.510000	2014.167467
47.520000	1994.526658
47.530000	1975.180453
47.540000	1955.683402
47.550000	1936.145548
47.560000	1916.123152
47.570000	1896.399136
47.580000	1877.848867
47.590000	1859.600880
47.600000	1841.530149
47.610000	1823.423114
47.620000	1804.497808
47.630000	1785.203864
47.640000	1765.085298
47.650000	1745.278478
47.660000	1724.957381
47.670000	1706.318527
47.680000	1688.110935
47.690000	1670.654291
47.700000	1651.883124
47.710000	1632.623622
47.720000	1613.280209
47.730000	1594.219325
47.740000	1575.971296
47.750000	1556.769336
47.760000	1537.631038
47.770000	1517.942921
47.780000	1499.258488
47.790000	1478.733210
47.800000	1459.531578
47.810000	1440.808630
47.820000	1424.441955
47.830000	1412.514747
47.840000	1402.971410
47.850000	1393.183376
47.860000	1378.793835
47.870000	1360.831467
47.880000	1340.247662
47.890000	1318.446019
47.900000	1299.006282
47.910000	1283.687974
47.920000	1270.052686
47.930000	1255.896792
47.940000	1242.408186
47.950000	1228.733339
47.960000	1213.729776
47.970000	1196.872003
47.980000	1179.356716
47.990000	1162.645540
48.000000	1147.282129
48.010000	1134.054250
48.020000	1120.165705
48.030000	1105.104068
48.040000	1088.685171
48.050000	1072.126203
48.060000	1056.506200
48.070000	1041.446410
48.080000	1027.966607
48.090000	1013.057877
48.100000	997.406267
48.110000	981.638394
48.120000	965.479433
48.130000	948.855538
48.140000	931.521625
48.150000	914.712995
48.160000	898.530360
48.170000	882.872961
48.180000	866.505773
48.190000	848.670758
48.200000	831.458920
48.210000	816.771324
48.220000	803.707708
48.230000	791.508985
48.240000	778.590969
48.250000	764.553333
48.260000	750.114094
48.270000	735.900909
48.280000	723.610313
48.290000	711.542657
48.300000	700.082426
48.310000	686.479301
48.320000	671.200210
48.330000	655.053707
48.340000	640.292105
48.350000	627.593919
48.360000	616.016320
48.370000	605.105556
48.380000	594.042919
48.390000	581.586049
48.400000	568.378011
48.410000	556.039167
48.420000	544.344600
48.430000	534.131721
48.440000	523.272845
48.450000	512.201052
48.460000	500.167529
48.470000	487.576509
48.480000	475.366576
48.490000	463.585680
48.500000	451.198738
48.510000	438.568039
48.520000	426.000020
48.530000	414.187320
48.540000	402.433266
48.550000	389.774897
48.560000	376.839821
48.570000	364.331534
48.580000	352.213101
48.590000	340.189460
48.600000	328.222321
48.610000	316.015146
48.620000	302.865461
48.630000	290.148136
48.640000	276.134905
48.650000	263.260613
48.660000	249.359658
48.670000	234.680889
48.680000	219.886602
48.690000	205.735706
48.700000	194.719129
48.710000	184.745313
48.720000	174.521109
48.730000	163.056226
48.740000	153.300932
48.750000	142.652118
48.760000	131.054529
48.770000	115.539996
48.780000	102.132687
48.790000	91.713486
48.800000	81.500397
48.810000	71.193279
48.820000	59.163818
48.830000	48.652342
48.840000	37.778946
48.850000	27.083694
48.860000	14.686275
48.870000	1.153821
48.880000	-12.439748
48.890000	-25.478850
48.900000	-37.267216
48.910000	-49.820767
48.920000	-59.447600
48.930000	-67.879635
48.940000	-73.654727
48.950000	-81.323995
48.960000	-91.553620
48.970000	-102.798178
48.980000	-118.502242
48.990000	-136.626783
49.000000	-157.493624
49.010000	-176.478201
49.020000	-193.534102
49.030000	-208.699831
49.040000	-220.273233
49.050000	-229.633478
49.060000	-238.049066
49.070000	-245.266736
49.080000	-250.527417
49.090000	-254.942486
49.100000	-261.715649
49.110000	-269.977963
49.120000	-279.610296
49.130000	-288.044512
49.140000	-295.884895
49.150000	-303.815957
49.160000	-312.530964
49.170000	-322.291096
49.180000	-329.872442
49.190000	-337.486242
49.200000	-344.578164
49.210000	-351.723089
49.220000	-356.982340
49.230000	-362.008581
49.240000	-368.425304
49.250000	-376.328830
49.260000	-384.236299
49.270000	-391.022511
49.280000	-397.090684
49.290000	-401.418211
49.300000	-404.655674
49.310000	-406.851670
49.320000	-409.597716
49.330000	-410.313215
49.340000	-407.248314
49.350000	-401.488886
49.360000	-394.606641
49.370000	-387.703047
49.380000	-381.002395
49.390000	-375.960477
49.400000	-373.770695
49.410000	-372.582861
49.420000	-371.581861
49.430000	-370.246115
49.440000	-370.439683
49.450000	-371.943787
49.460000	-374.671372
49.470000	-377.345062
49.480000	-380.281006
49.490000	-383.452323
49.500000	-386.931198
49.510000	-390.599368
49.520000	-394.288247
49.530000	-398.455145
49.540000	-402.683255
49.550000	-407.353486
49.560000	-411.448139
49.570000	-415.964419
49.580000	-420.248885
49.590000	-424.284165
49.600000	-428.090132
49.610000	-432.312692
49.620000	-436.970045
49.630000	-440.711174
49.640000	-443.560776
49.650000	-446.151685
49.660000	-448.857804
49.670000	-451.297110
49.680000	-454.198184
49.690000	-456.477836
49.700000	-458.917267
49.710000	-460.360126
49.720000	-462.016370
49.730000	-463.611823
49.740000	-464.822113
49.750000	-466.573694
49.760000	-467.662030
49.770000	-469.582959
49.780000	-470.198560
49.790000	-471.978086
49.800000	-474.767705
49.810000	-478.412971
49.820000	-481.706989
49.830000	-483.220211
49.840000	-486.031555
49.850000	-489.055506
49.860000	-492.064563
49.870000	-494.596164
49.880000	-497.473699
49.890000	-500.506551
49.900000	-502.586073
49.910000	-504.795294
49.920000	-507.401786
49.930000	-510.455588
49.940000	-512.251395
49.950000	-514.162954
49.960000	-515.801338
49.970000	-517.243335
49.980000	-518.389087
49.990000	-519.696758
50.000000	-521.347466
50.010000	-522.518693
50.020000	-523.680541
50.030000	-525.378521
50.040000	-527.048121
50.050000	-528.276183
50.060000	-528.786693
50.070000	-529.547738
50.080000	-530.225353
50.090000	-531.191414
50.100000	-532.366139
50.110000	-533.203689
50.120000	-534.547128
50.130000	-535.580971
50.140000	-536.099188
50.150000	-535.994420
50.160000	-536.022679
50.170000	-536.776305
50.180000	-537.310657
50.190000	-536.593143
50.200000	-536.976276
50.210000	-536.098524
50.220000	-536.690515
50.230000	-535.287996
50.240000	-534.121302
50.250000	-533.506251
50.260000	-533.919703
50.270000	-535.757913
50.280000	-535.741426
50.290000	-536.057797
50.300000	-534.918551
50.310000	-534.401066
50.320000	-533.118704
50.330000	-532.116663
50.340000	-531.682195
50.350000	-531.863456
50.360000	-532.276112
50.370000	-531.973410
50.380000	-530.903616
50.390000	-529.783023
50.400000	-528.559643
50.410000	-527.289978
50.420000	-526.580634
50.430000	-525.823458
50.440000	-525.634585
50.450000	-524.714338
50.460000	-523.722978
50.470000	-521.963610
50.480000	-520.177163
50.490000	-518.907236
50.500000	-517.322182
50.510000	-515.882068
50.520000	-513.490295
50.530000	-511.223278
50.540000	-507.678379
50.550000	-503.931107
50.560000	-499.555182
50.570000	-495.669052
50.580000	-492.120725
50.590000	-488.097097
50.600000	-483.713755
50.610000	-479.216785
50.620000	-475.332399
50.630000	-472.359271
50.640000	-469.304473
50.650000	-466.194537
50.660000	-463.634450
50.670000	-461.717710
50.680000	-460.653719
50.690000	-459.927524
50.700000	-460.030704
50.710000	-460.823542
50.720000	-461.092326
50.730000	-460.408952
50.740000	-458.507940
50.750000	-455.348164
50.760000	-451.945948
50.770000	-448.303716
50.780000	-445.071158
50.790000	-441.273192
50.800000	-437.217906
50.810000	-432.926183
50.820000	-427.044805
50.830000	-419.934091
50.840000	-411.553763
50.850000	-403.295370
50.860000	-394.071629
50.870000	-384.008640
50.880000	-374.608202
50.890000	-365.731937
50.900000	-358.161436
50.910000	-351.131383
50.920000	-345.064593
50.930000	-339.207185
50.940000	-331.977990
50.950000	-325.304726
50.960000	-318.562732
50.970000	-312.417083
50.980000	-306.154546
50.990000	-299.875446
51.000000	-293.756587
51.010000	-287.007414
51.020000	-280.037762
51.030000	-272.145069
51.040000	-264.666187
51.050000	-257.620325
51.060000	-250.968573
51.070000	-243.766782
51.080000	-235.278114
51.090000	-227.259570
51.100000	-219.922454
51.110000	-212.755646
51.120000	-204.904014
51.130000	-195.923908
51.140000	-187.896453
51.150000	-180.422190
51.160000	-173.225620
51.170000	-164.585775
51.180000	-155.898840
51.190000	-147.414588
51.200000	-139.573844
51.210000	-132.242629
51.220000	-124.914847
51.230000	-118.407539
51.240000	-110.246257
51.250000	-101.581397
51.260000	-92.239234
51.270000	-83.423788
51.280000	-74.558278
51.290000	-64.595385
51.300000	-55.883356
51.310000	-46.083694
51.320000	-36.881945
51.330000	-25.555227
51.340000	-15.893293
51.350000	-6.674073
51.360000	2.766539
51.370000	12.545417
51.380000	23.435140
51.390000	33.765626
51.400000	45.454816
51.410000	55.647738
51.420000	65.160046
51.430000	73.535624
51.440000	83.216293
51.450000	94.093353
51.460000	105.281047
51.470000	115.995795
51.480000	126.359845
51.490000	136.577140
51.500000	147.118509
51.510000	158.170627
51.520000	168.887714
51.530000	179.447420
51.540000	190.004471
51.550000	200.739016
51.560000	212.471501
51.570000	223.372297
51.580000	234.295313
51.590000	245.019148
51.600000	256.138336
51.610000	268.016110
51.620000	278.993658
51.630000	290.372830
51.640000	301.863340
51.650000	313.750301
51.660000	325.416815
51.670000	337.484543
51.680000	349.654898
51.690000	361.907112
51.700000	373.913461
51.710000	386.688450
51.720000	398.854292
51.730000	411.164901
51.740000	422.813846
51.750000	435.003628
51.760000	447.794099
51.770000	460.531307
51.780000	473.802416
51.790000	486.078234
51.800000	498.510223
51.810000	510.980867
51.820000	524.580936
51.830000	538.237540
51.840000	552.349396
51.850000	565.850947
51.860000	579.818211
51.870000	593.153235
51.880000	606.654127
51.890000	620.816961
51.900000	635.183391
51.910000	650.179449
51.920000	664.738583
51.930000	679.242967
51.940000	693.656698
51.950000	708.338655
51.960000	723.271877
51.970000	738.131936
51.980000	752.920056
51.990000	767.958536
52.000000	783.266835
52.010000	798.149592
52.020000	812.983293
52.030000	828.040745
52.040000	843.734157
52.050000	858.962065
52.060000	874.524866
52.070000	890.248956
52.080000	907.020352
52.090000	922.896894
52.100000	937.221791
52.110000	952.589789
52.120000	968.116631
52.130000	985.325844
52.140000	1001.369599
52.150000	1018.111887
52.160000	1035.320763
52.170000	1052.267419
52.180000	1069.312667
52.190000	1086.125687
52.200000	1103.345418
52.210000	1120.017971
52.220000	1136.420141
52.230000	1153.617874
52.240000	1171.864939
52.250000	1189.585239
52.260000	1206.686472
52.270000	1223.259263
52.280000	1241.219334
52.290000	1259.631926
52.300000	1278.461274
52.310000	1297.042940
52.320000	1314.743506
52.330000	1332.832840
52.340000	1351.062003
52.350000	1371.001610
52.360000	1389.407911
52.370000	1407.556849
52.380000	1424.789302
52.390000	1442.826158
52.400000	1461.539879
52.410000	1480.134612
52.420000	1499.669907
52.430000	1518.810878
52.440000	1538.179723
52.450000	1556.188836
52.460000	1575.074476
52.470000	1593.598347
52.480000	1613.351414
52.490000	1633.040996
52.500000	1653.341446
52.510000	1673.520764
52.520000	1693.039601
52.530000	1713.046028
52.540000	1732.104782
52.550000	1752.288296
52.560000	1772.535296
52.570000	1794.244487
52.580000	1815.998458
52.590000	1836.574801
52.600000	1856.840807
52.610000	1876.943099
52.620000	1897.724869
52.630000	1918.346400
52.640000	1938.650245
52.650000	1959.458301
52.660000	1980.277710
52.670000	2000.608994
52.680000	2021.949235
52.690000	2044.461018
52.700000	2066.988544
52.710000	2089.019277
52.720000	2110.065438
52.730000	2131.285944
52.740000	2152.508918
52.750000	2174.257774
52.760000	2196.319960
52.770000	2219.267657
52.780000	2241.828137
52.790000	2264.317063
52.800000	2286.369212
52.810000	2308.402983
52.820000	2330.944526
52.830000	2353.853917
52.840000	2377.554449
52.850000	2401.000082
52.860000	2422.862386
52.870000	2445.521397
52.880000	2469.195511
52.890000	2493.070479
52.900000	2516.893577
52.910000	2539.312721
52.920000	2563.299129
52.930000	2586.568890
52.940000	2610.743168
52.950000	2633.842316
52.960000	2657.557136
52.970000	2681.803400
52.980000	2706.061777
52.990000	2730.123190
53.000000	2754.258226
53.010000	2778.799593
53.020000	2803.141141
53.030000	2826.831383
53.040000	2851.049396
53.050000	2875.545995
53.060000	2900.645171
53.070000	2925.275234
53.080000	2950.263783
53.090000	2975.017336
53.100000	3000.235174
53.110000	3025.772121
53.120000	3050.885684
53.130000	3076.544771
53.140000	3101.208181
53.150000	3127.339669
53.160000	3152.527551
53.170000	3178.488498
53.180000	3203.512410
53.190000	3228.986355
53.200000	3254.164200
53.210000	3279.492529
53.220000	3305.486783
53.230000	3332.333946
53.240000	3360.478406
53.250000	3387.835584
53.260000	3412.469752
53.270000	3436.346044
53.280000	3460.789553
53.290000	3487.519883
53.300000	3514.426525
53.310000	3541.024585
53.320000	3568.392876
53.330000	3595.513944
53.340000	3622.350976
53.350000	3648.322816
53.360000	3674.299333
53.370000	3700.447938
53.380000	3726.897649
53.390000	3753.888626
53.400000	3781.475889
53.410000	3808.638606
53.420000	3835.367613
53.430000	3861.697849
53.440000	3889.906383
53.450000	3918.719948
53.460000	3947.417641
53.470000	3975.044047
