Time(s)	GREEN_denoised_wiener
0.000000	483.256331
0.010000	698.924674
0.020000	630.751413
0.030000	536.903854
0.040000	426.348951
0.050000	310.915762
0.060000	170.883537
0.070000	1.992669
0.080000	-163.794362
0.090000	-296.916830
0.100000	-424.609232
0.110000	-565.785625
0.120000	-721.357976
0.130000	-836.485776
0.140000	-904.892417
0.150000	-943.235722
0.160000	-992.147327
0.170000	-1074.258666
0.180000	-1184.315894
0.190000	-1301.229497
0.200000	-1397.793503
0.210000	-1446.192283
0.220000	-1469.071116
0.230000	-1452.383472
0.240000	-1450.867928
0.250000	-1427.988664
0.260000	-1409.501602
0.270000	-1359.090210
0.280000	-1326.706786
0.290000	-1500.908061
0.300000	-1710.928390
0.310000	-1900.711998
0.320000	-1903.183788
0.330000	-1888.114169
0.340000	-1898.431535
0.350000	-1902.987938
0.360000	-1918.486743
0.370000	-1925.105052
0.380000	-1949.347147
0.390000	-1967.763861
0.400000	-1983.961687
0.410000	-1982.049865
0.420000	-1985.031371
0.430000	-1989.278605
0.440000	-2000.476727
0.450000	-1999.122459
0.460000	-1986.664782
0.470000	-1968.997853
0.480000	-1964.908410
0.490000	-1974.175355
0.500000	-2002.189240
0.510000	-2034.320455
0.520000	-2060.171727
0.530000	-2061.802305
0.540000	-2040.899685
0.550000	-2012.346033
0.560000	-1990.318744
0.570000	-1932.762403
0.580000	-1862.945014
0.590000	-1850.668404
0.600000	-2019.414560
0.610000	-2357.566522
0.620000	-2627.627543
0.630000	-2685.418756
0.640000	-2567.702605
0.650000	-2472.412717
0.660000	-2446.061432
0.670000	-2408.759745
0.680000	-2320.229861
0.690000	-2170.558197
0.700000	-1990.211092
0.710000	-1780.646058
0.720000	-1575.316463
0.730000	-1393.063878
0.740000	-1237.751272
0.750000	-1088.785582
0.760000	-918.872530
0.770000	-764.053223
0.780000	-656.355199
0.790000	-586.580517
0.800000	-500.086375
0.810000	-386.603447
0.820000	-279.645333
0.830000	-212.333261
0.840000	-198.192191
0.850000	-223.697598
0.860000	-268.429353
0.870000	-306.757292
0.880000	-351.482157
0.890000	-392.130238
0.900000	-431.615995
0.910000	-468.870254
0.920000	-537.222738
0.930000	-640.909200
0.940000	-718.695578
0.950000	-745.761143
0.960000	-723.955054
0.970000	-710.144648
0.980000	-710.121758
0.990000	-667.405012
1.000000	-594.860543
1.010000	-546.159443
1.020000	-579.661242
1.030000	-635.304697
1.040000	-666.883101
1.050000	-655.575305
1.060000	-605.886191
1.070000	-676.319739
1.080000	-943.381942
1.090000	-1275.878596
1.100000	-1412.572417
1.110000	-1333.819909
1.120000	-1208.332787
1.130000	-1140.303568
1.140000	-1100.446415
1.150000	-1065.189759
1.160000	-997.577083
1.170000	-884.863211
1.180000	-765.235354
1.190000	-680.267290
1.200000	-671.949704
1.210000	-717.548800
1.220000	-814.775673
1.230000	-912.752583
1.240000	-992.411658
1.250000	-1042.701281
1.260000	-1070.486661
1.270000	-1084.378153
1.280000	-1067.882996
1.290000	-1002.774098
1.300000	-900.752252
1.310000	-785.594146
1.320000	-680.678222
1.330000	-586.074851
1.340000	-495.311092
1.350000	-391.585584
1.360000	-276.720361
1.370000	-156.833550
1.380000	-37.520478
1.390000	71.848985
1.400000	154.934282
1.410000	194.469490
1.420000	200.069871
1.430000	202.755601
1.440000	212.754990
1.450000	219.257047
1.460000	221.741308
1.470000	211.007403
1.480000	175.995081
1.490000	121.406761
1.500000	74.248967
1.510000	43.027301
1.520000	9.033247
1.530000	-50.424818
1.540000	-125.488317
1.550000	-209.949066
1.560000	-284.034920
1.570000	-349.595184
1.580000	-418.672194
1.590000	-485.588828
1.600000	-538.689426
1.610000	-573.331632
1.620000	-626.551207
1.630000	-702.714959
1.640000	-794.444487
1.650000	-879.120354
1.660000	-933.734124
1.670000	-963.333725
1.680000	-988.464062
1.690000	-1035.962264
1.700000	-1077.106099
1.710000	-1091.678998
1.720000	-1040.427477
1.730000	-939.947544
1.740000	-834.556863
1.750000	-776.971134
1.760000	-769.613533
1.770000	-786.649294
1.780000	-825.466262
1.790000	-875.705207
1.800000	-913.681507
1.810000	-934.211128
1.820000	-949.343353
1.830000	-982.815153
1.840000	-1026.650829
1.850000	-1058.111417
1.860000	-1079.760638
1.870000	-1086.118470
1.880000	-1080.962125
1.890000	-1067.523640
1.900000	-1072.293798
1.910000	-1110.296972
1.920000	-1153.239494
1.930000	-1171.131982
1.940000	-1174.696673
1.950000	-1175.034353
1.960000	-1188.902358
1.970000	-1202.251724
1.980000	-1208.862459
1.990000	-1207.549129
2.000000	-1198.893571
2.010000	-1190.933114
2.020000	-1176.615948
2.030000	-1167.768252
2.040000	-1158.689412
2.050000	-1136.649894
2.060000	-1081.809062
2.070000	-997.661245
2.080000	-910.389874
2.090000	-832.032475
2.100000	-764.006798
2.110000	-663.346957
2.120000	-515.099018
2.130000	-345.840399
2.140000	-197.966101
2.150000	-77.966504
2.160000	29.495633
2.170000	117.114210
2.180000	166.863749
2.190000	193.888664
2.200000	219.518300
2.210000	248.888232
2.220000	276.413139
2.230000	300.836230
2.240000	332.275904
2.250000	376.375425
2.260000	427.711898
2.270000	482.857190
2.280000	536.413037
2.290000	582.274365
2.300000	616.056379
2.310000	648.336904
2.320000	685.960521
2.330000	717.286507
2.340000	733.142723
2.350000	746.568503
2.360000	767.588135
2.370000	791.748992
2.380000	803.274125
2.390000	798.902294
2.400000	794.618163
2.410000	792.623004
2.420000	794.566025
2.430000	794.260936
2.440000	811.189860
2.450000	845.785413
2.460000	886.720315
2.470000	918.570940
2.480000	946.579876
2.490000	982.981386
2.500000	1041.048037
2.510000	1138.676976
2.520000	1282.424178
2.530000	1454.578389
2.540000	1618.353743
2.550000	1751.124507
2.560000	1851.948666
2.570000	1917.937727
2.580000	1951.497212
2.590000	1961.039818
2.600000	1957.324521
2.610000	1957.431522
2.620000	1953.020849
2.630000	1960.830853
2.640000	1979.606400
2.650000	2005.829162
2.660000	2036.465014
2.670000	2061.078736
2.680000	2089.651143
2.690000	2118.227977
2.700000	2137.092540
2.710000	2139.656715
2.720000	2120.808691
2.730000	2089.728523
2.740000	2053.790133
2.750000	2016.727004
2.760000	1979.700927
2.770000	1942.992544
2.780000	1912.897437
2.790000	1882.824926
2.800000	1831.655972
2.810000	1745.946663
2.820000	1618.031655
2.830000	1482.451925
2.840000	1331.558711
2.850000	1190.313641
2.860000	1059.619536
2.870000	946.123936
2.880000	863.298183
2.890000	806.817372
2.900000	789.288287
2.910000	770.964897
2.920000	754.993666
2.930000	721.646647
2.940000	670.682531
2.950000	585.880715
2.960000	488.068929
2.970000	398.377623
2.980000	319.666716
2.990000	234.078760
3.000000	160.292206
3.010000	107.012748
3.020000	65.797057
3.030000	20.184062
3.040000	-35.409316
3.050000	-97.026638
3.060000	-175.732276
3.070000	-248.218714
3.080000	-304.167138
3.090000	-346.189648
3.100000	-400.744618
3.110000	-469.837652
3.120000	-565.427440
3.130000	-695.553335
3.140000	-830.418555
3.150000	-942.354176
3.160000	-1012.847894
3.170000	-1056.325646
3.180000	-1084.684200
3.190000	-1107.371382
3.200000	-1133.601259
3.210000	-1162.805374
3.220000	-1188.918738
3.230000	-1222.367228
3.240000	-1256.271630
3.250000	-1287.355622
3.260000	-1312.709202
3.270000	-1301.350942
3.280000	-1268.691899
3.290000	-1216.058956
3.300000	-1175.510709
3.310000	-1147.432002
3.320000	-1126.399241
3.330000	-1125.943089
3.340000	-1147.006145
3.350000	-1184.524250
3.360000	-1218.325078
3.370000	-1242.565236
3.380000	-1262.762622
3.390000	-1277.006822
3.400000	-1260.558724
3.410000	-1211.933784
3.420000	-1162.199309
3.430000	-1127.241026
3.440000	-1103.876390
3.450000	-1076.269264
3.460000	-1058.057051
3.470000	-1056.369126
3.480000	-1064.957330
3.490000	-1080.232843
3.500000	-1099.617118
3.510000	-1123.862619
3.520000	-1143.673052
3.530000	-1152.256515
3.540000	-1150.507495
3.550000	-1144.756221
3.560000	-1134.413957
3.570000	-1120.351091
3.580000	-1107.088394
3.590000	-1097.031555
3.600000	-1083.161796
3.610000	-1057.133330
3.620000	-1024.030474
3.630000	-990.330747
3.640000	-964.997883
3.650000	-934.224269
3.660000	-908.457297
3.670000	-888.182552
3.680000	-867.992711
3.690000	-835.213116
3.700000	-766.925614
3.710000	-682.452031
3.720000	-595.268171
3.730000	-524.465448
3.740000	-467.644143
3.750000	-418.895030
3.760000	-383.476617
3.770000	-358.060209
3.780000	-339.401857
3.790000	-327.326367
3.800000	-317.073735
3.810000	-309.032574
3.820000	-292.474332
3.830000	-267.527862
3.840000	-222.936255
3.850000	-165.498678
3.860000	-106.168860
3.870000	-57.566676
3.880000	-27.815053
3.890000	-3.334338
3.900000	18.750081
3.910000	47.154776
3.920000	67.826743
3.930000	76.244135
3.940000	72.155868
3.950000	65.268245
3.960000	66.395439
3.970000	78.177305
3.980000	91.510156
3.990000	109.025998
4.000000	127.516230
4.010000	142.445108
4.020000	147.090358
4.030000	149.478785
4.040000	158.908697
4.050000	176.731347
4.060000	202.964079
4.070000	229.535725
4.080000	239.235047
4.090000	225.944588
4.100000	210.487346
4.110000	213.593853
4.120000	251.300728
4.130000	306.726668
4.140000	369.372250
4.150000	416.065269
4.160000	448.419086
4.170000	463.966544
4.180000	460.373477
4.190000	439.453040
4.200000	413.597390
4.210000	395.514167
4.220000	374.330266
4.230000	336.809160
4.240000	298.716446
4.250000	278.685635
4.260000	275.287750
4.270000	277.108196
4.280000	282.793483
4.290000	295.115498
4.300000	296.483314
4.310000	282.398731
4.320000	264.791512
4.330000	251.577462
4.340000	235.631528
4.350000	217.684169
4.360000	204.728416
4.370000	198.683213
4.380000	195.715712
4.390000	193.592790
4.400000	192.281790
4.410000	197.089700
4.420000	207.738458
4.430000	230.844737
4.440000	253.046035
4.450000	270.531718
4.460000	279.927109
4.470000	282.470257
4.480000	279.380273
4.490000	277.329167
4.500000	279.729796
4.510000	284.411300
4.520000	283.970087
4.530000	278.418854
4.540000	273.130060
4.550000	271.993873
4.560000	307.272737
4.570000	365.013304
4.580000	429.314648
4.590000	474.242998
4.600000	504.010407
4.610000	516.693453
4.620000	496.238195
4.630000	463.482631
4.640000	436.027709
4.650000	421.815782
4.660000	400.643634
4.670000	366.424631
4.680000	332.884109
4.690000	305.581059
4.700000	290.361920
4.710000	280.940580
4.720000	283.777689
4.730000	293.503755
4.740000	303.425835
4.750000	312.986320
4.760000	321.977339
4.770000	332.711397
4.780000	344.088247
4.790000	355.339350
4.800000	369.444602
4.810000	385.525037
4.820000	405.042232
4.830000	430.615263
4.840000	459.860657
4.850000	495.955135
4.860000	538.236083
4.870000	585.861896
4.880000	637.844986
4.890000	688.322304
4.900000	746.395186
4.910000	811.322363
4.920000	889.197324
4.930000	972.852310
4.940000	1062.586087
4.950000	1156.274854
4.960000	1252.876868
4.970000	1356.276428
4.980000	1489.786291
4.990000	1674.169385
5.000000	1937.614259
5.010000	2308.627788
5.020000	2675.287511
5.030000	2955.398555
5.040000	3074.211643
5.050000	3115.501518
5.060000	3124.259067
5.070000	3113.746816
5.080000	3064.445577
5.090000	2923.462532
5.100000	2523.546348
5.110000	1583.615105
5.120000	7.817282
5.130000	-2293.536853
5.140000	-4844.929478
5.150000	-7439.431029
5.160000	-8758.089027
5.170000	-9149.688573
5.180000	-8342.130286
5.190000	-6797.544203
5.200000	-4555.529785
5.210000	-2979.722880
5.220000	-1587.414224
5.230000	-371.465169
5.240000	641.621778
5.250000	1507.043949
5.260000	2409.165230
5.270000	3367.991772
5.280000	4218.089365
5.290000	4827.254073
5.300000	5235.041638
5.310000	5533.215977
5.320000	5752.047684
5.330000	5867.584715
5.340000	5921.790256
5.350000	5872.276955
5.360000	5752.963908
5.370000	5554.404536
5.380000	5416.434939
5.390000	5398.197394
5.400000	5429.436989
5.410000	5415.475734
5.420000	5153.026074
5.430000	4445.657656
5.440000	3253.041225
5.450000	1566.836286
5.460000	-150.170249
5.470000	-1851.179392
5.480000	-3308.355611
5.490000	-4428.347047
5.500000	-5117.944905
5.510000	-5446.775863
5.520000	-5510.201649
5.530000	-5448.115616
5.540000	-5266.546606
5.550000	-5041.102910
5.560000	-4847.014146
5.570000	-4713.755314
5.580000	-4635.509321
5.590000	-4599.847886
5.600000	-4613.515880
5.610000	-4638.276002
5.620000	-4670.744262
5.630000	-4735.239945
5.640000	-4841.392315
5.650000	-4958.887785
5.660000	-5069.868403
5.670000	-5188.751621
5.680000	-5286.352243
5.690000	-5333.743807
5.700000	-5316.002277
5.710000	-5252.290748
5.720000	-5169.467944
5.730000	-5063.881716
5.740000	-4936.741423
5.750000	-4778.905314
5.760000	-4599.860362
5.770000	-4391.340985
5.780000	-4163.490537
5.790000	-3932.587327
5.800000	-3720.262351
5.810000	-3548.628356
5.820000	-3409.076219
5.830000	-3308.504791
5.840000	-3219.254337
5.850000	-3126.542096
5.860000	-3022.576807
5.870000	-2930.789932
5.880000	-2874.690541
5.890000	-2838.052607
5.900000	-2791.558528
5.910000	-2711.787907
5.920000	-2623.013472
5.930000	-2538.615439
5.940000	-2471.923258
5.950000	-2412.164572
5.960000	-2344.943694
5.970000	-2269.203729
5.980000	-2197.119965
5.990000	-2135.346638
6.000000	-2083.394941
6.010000	-2042.278058
6.020000	-2011.449403
6.030000	-1981.969565
6.040000	-1937.933894
6.050000	-1886.172017
6.060000	-1828.184918
6.070000	-1779.861140
6.080000	-1743.511780
6.090000	-1714.644001
6.100000	-1681.931585
6.110000	-1641.558474
6.120000	-1613.527056
6.130000	-1589.504624
6.140000	-1557.554706
6.150000	-1495.530707
6.160000	-1408.765028
6.170000	-1318.038967
6.180000	-1234.053280
6.190000	-1161.301657
6.200000	-1096.758210
6.210000	-1044.019045
6.220000	-997.206135
6.230000	-948.165029
6.240000	-907.807099
6.250000	-884.737839
6.260000	-873.134071
6.270000	-849.025585
6.280000	-805.271180
6.290000	-754.463910
6.300000	-702.151106
6.310000	-653.997177
6.320000	-613.786269
6.330000	-586.292677
6.340000	-555.790412
6.350000	-513.030354
6.360000	-459.246836
6.370000	-413.573107
6.380000	-368.719027
6.390000	-319.542523
6.400000	-277.322838
6.410000	-246.913224
6.420000	-215.295580
6.430000	-165.356442
6.440000	-105.421035
6.450000	-45.887274
6.460000	17.078266
6.470000	85.831094
6.480000	154.810007
6.490000	220.476793
6.500000	284.812938
6.510000	353.055051
6.520000	418.373937
6.530000	490.938791
6.540000	561.808826
6.550000	634.450566
6.560000	699.804181
6.570000	758.584967
6.580000	803.708127
6.590000	828.986081
6.600000	839.575040
6.610000	846.001311
6.620000	853.694873
6.630000	859.260098
6.640000	870.447325
6.650000	883.757530
6.660000	896.138076
6.670000	893.830153
6.680000	886.832862
6.690000	876.819540
6.700000	877.835435
6.710000	887.037183
6.720000	894.761416
6.730000	889.526129
6.740000	873.000635
6.750000	848.631221
6.760000	817.512135
6.770000	782.687880
6.780000	757.666048
6.790000	748.338089
6.800000	750.741487
6.810000	757.260972
6.820000	757.760151
6.830000	750.825405
6.840000	740.411923
6.850000	732.681690
6.860000	724.324230
6.870000	729.205793
6.880000	752.166471
6.890000	790.330842
6.900000	824.586994
6.910000	845.105000
6.920000	852.326744
6.930000	851.851730
6.940000	840.668638
6.950000	819.568748
6.960000	789.638564
6.970000	759.267084
6.980000	724.202400
6.990000	683.938365
7.000000	644.413952
7.010000	610.570942
7.020000	591.936148
7.030000	581.122459
7.040000	583.459339
7.050000	588.931904
7.060000	593.967632
7.070000	592.703127
7.080000	586.464401
7.090000	572.098100
7.100000	552.949056
7.110000	526.447514
7.120000	503.107644
7.130000	483.073753
7.140000	470.917671
7.150000	465.992237
7.160000	462.353696
7.170000	460.569781
7.180000	460.095132
7.190000	462.127870
7.200000	461.796274
7.210000	461.349179
7.220000	459.799472
7.230000	458.221038
7.240000	444.745957
7.250000	435.482507
7.260000	438.650816
7.270000	468.741841
7.280000	510.455091
7.290000	543.636344
7.300000	561.277899
7.310000	571.221313
7.320000	579.746686
7.330000	573.737190
7.340000	553.570632
7.350000	528.596377
7.360000	517.071617
7.370000	504.685922
7.380000	490.262380
7.390000	481.119737
7.400000	486.446439
7.410000	503.843774
7.420000	514.240639
7.430000	519.281190
7.440000	519.689339
7.450000	517.713698
7.460000	511.117164
7.470000	505.493026
7.480000	501.524014
7.490000	500.600675
7.500000	496.236132
7.510000	492.732049
7.520000	494.610135
7.530000	498.503554
7.540000	502.985111
7.550000	502.927722
7.560000	500.376450
7.570000	503.031257
7.580000	505.395884
7.590000	511.158188
7.600000	515.390321
7.610000	521.975143
7.620000	525.358485
7.630000	521.797206
7.640000	516.685697
7.650000	506.261883
7.660000	487.015171
7.670000	451.384146
7.680000	421.762769
7.690000	414.492769
7.700000	442.838695
7.710000	475.817103
7.720000	501.638372
7.730000	513.827522
7.740000	525.162871
7.750000	527.118487
7.760000	521.722530
7.770000	514.425467
7.780000	508.951170
7.790000	502.054132
7.800000	491.523912
7.810000	485.051682
7.820000	482.082791
7.830000	487.740704
7.840000	487.931853
7.850000	489.163021
7.860000	490.437437
7.870000	499.954806
7.880000	505.565080
7.890000	502.779325
7.900000	504.753280
7.910000	512.583216
7.920000	522.942223
7.930000	522.038316
7.940000	508.178071
7.950000	497.222359
7.960000	493.062155
7.970000	500.423522
7.980000	504.908920
7.990000	506.346001
8.000000	505.106463
8.010000	509.640321
8.020000	515.953176
8.030000	520.285665
8.040000	518.482875
8.050000	511.295576
8.060000	503.708983
8.070000	494.974869
8.080000	487.295335
8.090000	477.993244
8.100000	469.916353
8.110000	460.015249
8.120000	447.898163
8.130000	445.758979
8.140000	462.558580
8.150000	508.193090
8.160000	556.808941
8.170000	601.367329
8.180000	639.427365
8.190000	671.238037
8.200000	695.063060
8.210000	698.435634
8.220000	691.450718
8.230000	683.989603
8.240000	679.845573
8.250000	673.208067
8.260000	663.947186
8.270000	658.135000
8.280000	667.088248
8.290000	676.349791
8.300000	685.292877
8.310000	686.237722
8.320000	693.250002
8.330000	699.427754
8.340000	700.574497
8.350000	697.993077
8.360000	692.257419
8.370000	692.609538
8.380000	683.232410
8.390000	670.314230
8.400000	654.887925
8.410000	642.058341
8.420000	630.554380
8.430000	622.841378
8.440000	616.904064
8.450000	618.006816
8.460000	625.600388
8.470000	640.873162
8.480000	659.644962
8.490000	675.095440
8.500000	694.758995
8.510000	716.989381
8.520000	742.911026
8.530000	766.561084
8.540000	788.779133
8.550000	801.472475
8.560000	814.393968
8.570000	824.379587
8.580000	845.420600
8.590000	877.947609
8.600000	922.479100
8.610000	968.517132
8.620000	1018.605303
8.630000	1064.756403
8.640000	1100.768530
8.650000	1115.347247
8.660000	1118.689781
8.670000	1118.630693
8.680000	1121.639795
8.690000	1128.932301
8.700000	1132.263161
8.710000	1130.285589
8.720000	1124.928317
8.730000	1132.043300
8.740000	1135.538631
8.750000	1136.882172
8.760000	1123.142360
8.770000	1104.818388
8.780000	1080.747064
8.790000	1054.467202
8.800000	1022.699396
8.810000	990.171026
8.820000	965.027459
8.830000	948.221422
8.840000	924.677805
8.850000	892.340519
8.860000	860.726179
8.870000	831.470842
8.880000	795.778727
8.890000	755.997881
8.900000	719.210329
8.910000	694.897501
8.920000	672.285558
8.930000	658.211347
8.940000	650.033871
8.950000	653.246571
8.960000	655.097693
8.970000	657.019621
8.980000	658.855929
8.990000	647.121412
9.000000	624.022512
9.010000	596.601631
9.020000	596.956285
9.030000	617.003086
9.040000	645.579748
9.050000	667.758896
9.060000	678.595202
9.070000	681.568962
9.080000	667.607160
9.090000	642.784814
9.100000	597.941315
9.110000	548.097650
9.120000	494.267418
9.130000	437.774941
9.140000	378.619998
9.150000	331.856872
9.160000	306.318622
9.170000	299.938503
9.180000	291.326981
9.190000	229.635193
9.200000	160.964089
9.210000	102.949335
9.220000	99.702713
9.230000	96.687823
9.240000	84.928255
9.250000	81.860467
9.260000	84.459033
9.270000	95.744311
9.280000	100.634511
9.290000	102.706979
9.300000	98.818931
9.310000	93.718544
9.320000	88.687542
9.330000	80.411016
9.340000	76.613161
9.350000	90.478327
9.360000	134.897636
9.370000	193.491391
9.380000	251.211734
9.390000	300.550948
9.400000	344.580490
9.410000	377.611860
9.420000	392.303266
9.430000	398.411442
9.440000	395.021582
9.450000	402.293562
9.460000	404.666245
9.470000	412.604758
9.480000	417.950484
9.490000	425.976703
9.500000	442.593454
9.510000	457.661341
9.520000	474.630312
9.530000	481.994584
9.540000	485.069502
9.550000	489.685153
9.560000	494.845633
9.570000	503.074183
9.580000	501.601662
9.590000	498.207988
9.600000	495.698796
9.610000	494.690308
9.620000	502.836213
9.630000	510.813376
