Time(s)	GREEN_denoised_wiener
0.000000	370.967018
0.010000	574.409732
0.020000	611.148315
0.030000	650.413391
0.040000	694.170919
0.050000	740.111464
0.060000	787.905155
0.070000	836.179570
0.080000	885.684813
0.090000	937.287613
0.100000	988.160629
0.110000	1038.443457
0.120000	1084.331940
0.130000	1131.331198
0.140000	1179.193775
0.150000	1229.597206
0.160000	1282.757891
0.170000	1340.239851
0.180000	1387.316835
0.190000	1384.520736
0.200000	1310.632045
0.210000	1175.593297
0.220000	1023.413509
0.230000	890.350516
0.240000	796.857431
0.250000	745.430861
0.260000	722.964181
0.270000	715.882171
0.280000	716.459146
0.290000	728.069341
0.300000	748.978675
0.310000	770.943778
0.320000	782.193538
0.330000	778.209698
0.340000	762.468457
0.350000	742.524784
0.360000	727.117783
0.370000	721.868983
0.380000	730.800241
0.390000	749.560891
0.400000	775.524648
0.410000	806.290466
0.420000	840.288217
0.430000	877.728304
0.440000	917.417793
0.450000	957.199840
0.460000	990.905839
0.470000	1012.374020
0.480000	1028.131160
0.490000	1043.246416
0.500000	1066.401743
0.510000	1094.120537
0.520000	1120.032605
0.530000	1142.041055
0.540000	1163.713446
0.550000	1198.021576
0.560000	1248.067765
0.570000	1293.304133
0.580000	1292.064138
0.590000	1222.006214
0.600000	1101.204345
0.610000	970.135698
0.620000	852.330243
0.630000	759.598259
0.640000	699.810274
0.650000	670.396781
0.660000	660.966467
0.670000	661.560476
0.680000	679.199617
0.690000	710.726200
0.700000	742.433440
0.710000	759.585066
0.720000	765.077979
0.730000	769.827889
0.740000	769.709450
0.750000	764.776738
0.760000	761.385742
0.770000	769.429108
0.780000	784.716785
0.790000	804.445000
0.800000	831.088321
0.810000	867.153252
0.820000	903.787200
0.830000	938.236394
0.840000	973.192100
0.850000	1010.340762
0.860000	1047.275994
0.870000	1083.139192
0.880000	1121.728724
0.890000	1161.946448
0.900000	1207.884206
0.910000	1260.767211
0.920000	1314.707740
0.930000	1362.270846
0.940000	1401.900736
0.950000	1442.155091
0.960000	1487.434657
0.970000	1528.019061
0.980000	1536.939205
0.990000	1489.573630
1.000000	1387.532757
1.010000	1261.892214
1.020000	1144.477578
1.030000	1059.538646
1.040000	1011.382385
1.050000	993.837155
1.060000	994.617347
1.070000	1008.501433
1.080000	1034.543163
1.090000	1063.822326
1.100000	1086.143392
1.110000	1094.830193
1.120000	1091.777188
1.130000	1075.170615
1.140000	1054.450672
1.150000	1032.835425
1.160000	1016.807292
1.170000	1007.492379
1.180000	1009.847300
1.190000	1028.487269
1.200000	1053.184749
1.210000	1078.165257
1.220000	1105.213147
1.230000	1140.524866
1.240000	1180.216000
1.250000	1215.204976
1.260000	1246.915107
1.270000	1281.899195
1.280000	1327.950253
1.290000	1378.218434
1.300000	1423.643828
1.310000	1457.541280
1.320000	1485.701333
1.330000	1513.191041
1.340000	1539.738971
1.350000	1567.508169
1.360000	1602.446895
1.370000	1642.796551
1.380000	1658.067518
1.390000	1617.742315
1.400000	1515.076730
1.410000	1371.755279
1.420000	1219.100682
1.430000	1085.079769
1.440000	988.084879
1.450000	932.685291
1.460000	902.663431
1.470000	884.615767
1.480000	875.921262
1.490000	883.554695
1.500000	901.792072
1.510000	914.779412
1.520000	907.979191
1.530000	886.369501
1.540000	859.489679
1.550000	839.276080
1.560000	831.291630
1.570000	834.806732
1.580000	844.721983
1.590000	854.639935
1.600000	867.148838
1.610000	884.442910
1.620000	908.879358
1.630000	941.210384
1.640000	980.573366
1.650000	1019.593574
1.660000	1053.574004
1.670000	1080.616058
1.680000	1109.902345
1.690000	1144.919152
1.700000	1186.852937
1.710000	1229.496145
1.720000	1268.434962
1.730000	1306.719102
1.740000	1346.973572
1.750000	1389.893452
1.760000	1435.465864
1.770000	1483.689053
1.780000	1523.882298
1.790000	1520.368380
1.800000	1443.600182
1.810000	1302.436696
1.820000	1134.679946
1.830000	984.136094
1.840000	869.637906
1.850000	797.078933
1.860000	757.833820
1.870000	740.958746
1.880000	737.644446
1.890000	747.803532
1.900000	771.729299
1.910000	796.550837
1.920000	810.086876
1.930000	802.908681
1.940000	784.097081
1.950000	759.190727
1.960000	731.366867
1.970000	707.748473
1.980000	696.904279
1.990000	704.895107
2.000000	729.346415
2.010000	760.949366
2.020000	795.394393
2.030000	830.934880
2.040000	864.361333
2.050000	892.174671
2.060000	914.926560
2.070000	941.690444
2.080000	976.395645
2.090000	1016.772584
2.100000	1059.443812
2.110000	1102.439440
2.120000	1145.075080
2.130000	1183.676367
2.140000	1213.614048
2.150000	1237.174645
2.160000	1262.409897
2.170000	1296.242887
2.180000	1339.761461
2.190000	1373.825982
2.200000	1362.636336
2.210000	1283.011459
2.220000	1143.498053
2.230000	987.524410
2.240000	854.913498
2.250000	764.207829
2.260000	712.831805
2.270000	682.407320
2.280000	665.672055
2.290000	663.853474
2.300000	681.075534
2.310000	710.490024
2.320000	734.000570
2.330000	738.023334
2.340000	724.183658
2.350000	702.461109
2.360000	685.921978
2.370000	675.744886
2.380000	669.861928
2.390000	669.914621
2.400000	679.347819
2.410000	701.289687
2.420000	727.005873
2.430000	752.547849
2.440000	778.210734
2.450000	806.011087
2.460000	837.947754
2.470000	872.662498
2.480000	909.215165
2.490000	944.836640
2.500000	977.678029
2.510000	1010.214081
2.520000	1042.992183
2.530000	1077.114784
2.540000	1112.824193
2.550000	1148.194893
2.560000	1183.512770
2.570000	1220.795379
2.580000	1264.054232
2.590000	1309.219523
2.600000	1330.045746
2.610000	1294.470414
2.620000	1193.942984
2.630000	1044.294498
2.640000	888.084935
2.650000	765.281159
2.660000	700.018162
2.670000	681.003664
2.680000	685.083673
2.690000	659.808948
2.700000	617.488662
2.710000	605.203050
2.720000	645.317452
2.730000	699.253141
2.740000	710.251375
2.750000	699.336957
2.760000	699.369574
2.770000	716.497522
2.780000	740.925770
2.790000	736.398869
2.800000	682.002556
2.810000	550.091843
2.820000	361.019609
2.830000	110.858218
2.840000	-208.503089
2.850000	-644.346275
2.860000	-1205.604554
2.870000	-1930.940829
2.880000	-2727.595332
2.890000	-3660.765064
2.900000	-5115.287429
2.910000	-7240.668632
2.920000	-9167.462443
2.930000	-10613.493035
2.940000	-11696.051289
2.950000	-12750.190640
2.960000	-13865.271539
2.970000	-14844.375655
2.980000	-15489.451315
2.990000	-15949.800264
3.000000	-16249.714201
3.010000	-16404.840236
3.020000	-16407.499548
3.030000	-16338.010397
3.040000	-16300.238761
3.050000	-16300.468990
3.060000	-16283.699917
3.070000	-16200.165951
3.080000	-16046.847071
3.090000	-15844.485970
3.100000	-15612.214342
3.110000	-15389.753732
3.120000	-15176.027299
3.130000	-14974.591750
3.140000	-14791.404070
3.150000	-14666.079029
3.160000	-14579.509210
3.170000	-14495.742442
3.180000	-14394.545910
3.190000	-14314.454879
3.200000	-14249.680956
3.210000	-14168.983208
3.220000	-14042.370859
3.230000	-13926.633513
3.240000	-13841.508072
3.250000	-13784.437023
3.260000	-13668.626969
3.270000	-13475.974093
3.280000	-13175.253162
3.290000	-12791.206568
3.300000	-12280.765110
3.310000	-11579.996868
3.320000	-10532.367585
3.330000	-8954.639507
3.340000	-6893.438228
3.350000	-4543.375248
3.360000	-2302.694123
3.370000	-140.556149
3.380000	2023.695332
3.390000	3890.515435
3.400000	5135.149022
3.410000	5172.482299
3.420000	5005.919833
3.430000	4848.602850
3.440000	4743.911454
3.450000	4635.608282
3.460000	4560.987212
3.470000	4480.899734
3.480000	4422.075250
3.490000	4343.505151
3.500000	4264.497608
3.510000	4164.170788
3.520000	4072.565690
3.530000	3977.895966
3.540000	3902.570652
3.550000	3833.368085
3.560000	3788.174343
3.570000	3755.608237
3.580000	3746.021245
3.590000	3747.973808
3.600000	3767.770544
3.610000	3784.453192
3.620000	3797.767076
3.630000	3798.767398
3.640000	3798.679327
3.650000	3785.546528
3.660000	3765.839030
3.670000	3743.517166
3.680000	3734.230776
3.690000	3736.308345
3.700000	3745.150751
3.710000	3750.622053
3.720000	3751.300504
3.730000	3747.815322
3.740000	3748.680572
3.750000	3754.530312
3.760000	3767.275525
3.770000	3774.084179
3.780000	3738.686776
3.790000	3632.541219
3.800000	3454.723755
3.810000	3240.983419
3.820000	3031.324733
3.830000	2853.946695
3.840000	2721.103252
3.850000	2626.080358
3.860000	2557.759956
3.870000	2503.434383
3.880000	2461.004958
3.890000	2423.669062
3.900000	2387.485791
3.910000	2341.780936
3.920000	2281.545576
3.930000	2209.812642
3.940000	2133.514821
3.950000	2059.410277
3.960000	1993.716635
3.970000	1937.896536
3.980000	1889.811192
3.990000	1843.943758
4.000000	1804.169380
4.010000	1774.229362
4.020000	1756.095695
4.030000	1745.739029
4.040000	1742.940570
4.050000	1747.825272
4.060000	1754.010730
4.070000	1759.835151
4.080000	1761.653618
4.090000	1758.096951
4.100000	1752.556066
4.110000	1751.280559
4.120000	1761.709865
4.130000	1784.360686
4.140000	1812.760774
4.150000	1838.017899
4.160000	1855.073360
4.170000	1869.623204
4.180000	1892.987340
4.190000	1924.448779
4.200000	1940.091636
4.210000	1902.491977
4.220000	1783.476745
4.230000	1593.898435
4.240000	1371.860095
4.250000	1159.907805
4.260000	985.459908
4.270000	855.452893
4.280000	761.944781
4.290000	690.907804
4.300000	633.036439
4.310000	588.984486
4.320000	561.395243
4.330000	538.617519
4.340000	505.674449
4.350000	452.527572
4.360000	387.935991
4.370000	325.381886
4.380000	267.098505
4.390000	214.833979
4.400000	169.190891
4.410000	137.237419
4.420000	120.201396
4.430000	117.236560
4.440000	123.135222
4.450000	133.841399
4.460000	146.007428
4.470000	158.723269
4.480000	173.490493
4.490000	191.208282
4.500000	212.578378
4.510000	235.959453
4.520000	259.605796
4.530000	280.982169
4.540000	298.576965
4.550000	313.954830
4.560000	331.497925
4.570000	353.531112
4.580000	378.350977
4.590000	403.716291
4.600000	431.827147
4.610000	466.183169
4.620000	506.237544
4.630000	526.193244
4.640000	482.879975
4.650000	347.857392
4.660000	138.930235
4.670000	-93.440758
4.680000	-302.748494
4.690000	-467.859539
4.700000	-582.184249
4.710000	-652.698797
4.720000	-690.012672
4.730000	-708.263234
4.740000	-715.873685
4.750000	-713.520803
4.760000	-709.803652
4.770000	-712.823650
4.780000	-730.111475
4.790000	-754.799147
4.800000	-778.125732
4.810000	-796.499907
4.820000	-806.851913
4.830000	-808.584037
4.840000	-799.950938
4.850000	-782.385638
4.860000	-757.425064
4.870000	-724.555826
4.880000	-685.278336
4.890000	-644.441550
4.900000	-608.508435
4.910000	-575.676351
4.920000	-540.767088
4.930000	-497.612300
4.940000	-447.750147
4.950000	-395.257831
4.960000	-339.087772
4.970000	-283.285354
4.980000	-229.452718
4.990000	-180.683698
5.000000	-132.496269
5.010000	-81.116088
5.020000	-30.592766
5.030000	21.104078
5.040000	77.284088
5.050000	138.955074
5.060000	178.052224
5.070000	154.745535
5.080000	53.860503
5.090000	-100.048483
5.100000	-255.617202
5.110000	-379.250279
5.120000	-455.168837
5.130000	-487.865435
5.140000	-487.426204
5.150000	-467.513464
5.160000	-438.363222
5.170000	-399.487109
5.180000	-356.671888
5.190000	-321.162829
5.200000	-306.005248
5.210000	-309.818009
5.220000	-320.995607
5.230000	-330.497978
5.240000	-338.695548
5.250000	-345.192235
5.260000	-346.736697
5.270000	-335.555776
5.280000	-308.805740
5.290000	-269.616060
5.300000	-222.558395
5.310000	-176.366741
5.320000	-136.647402
5.330000	-103.446400
5.340000	-68.055924
5.350000	-24.877466
5.360000	20.830228
5.370000	66.356989
5.380000	110.713655
5.390000	153.920794
5.400000	194.921391
5.410000	230.807476
5.420000	267.816232
5.430000	311.020303
5.440000	364.037109
5.450000	426.553055
5.460000	484.886008
5.470000	510.042508
5.480000	475.407542
5.490000	383.278151
5.500000	268.352189
5.510000	166.852778
5.520000	99.924218
5.530000	66.703090
5.540000	56.138399
5.550000	58.895581
5.560000	71.373122
5.570000	100.121416
5.580000	142.588972
5.590000	191.674880
5.600000	237.136982
5.610000	269.572099
5.620000	290.055885
5.630000	301.483754
5.640000	314.004806
5.650000	334.062650
5.660000	361.279733
5.670000	391.309372
5.680000	420.903723
5.690000	453.922307
5.700000	493.874088
5.710000	542.879410
5.720000	595.505663
5.730000	647.856658
5.740000	700.499390
5.750000	755.521940
5.760000	814.509551
5.770000	873.523822
5.780000	931.546788
5.790000	987.879581
5.800000	1044.277705
5.810000	1100.584293
5.820000	1155.025650
5.830000	1207.315146
5.840000	1259.803475
5.850000	1317.409597
5.860000	1377.918818
5.870000	1436.187005
5.880000	1471.349203
5.890000	1465.665090
5.900000	1414.842484
5.910000	1334.557838
5.920000	1252.061221
5.930000	1186.121465
5.940000	1145.614121
5.950000	1128.349862
5.960000	1127.516636
5.970000	1135.940049
5.980000	1149.791594
5.990000	1171.578018
6.000000	1201.758430
6.010000	1229.883977
6.020000	1244.754925
6.030000	1242.575760
6.040000	1230.146434
6.050000	1215.303384
6.060000	1206.573243
6.070000	1210.058155
6.080000	1223.344194
6.090000	1238.499021
6.100000	1252.496919
6.110000	1267.656568
6.120000	1288.357670
6.130000	1313.501790
6.140000	1340.584293
6.150000	1370.392794
6.160000	1404.516858
6.170000	1444.989077
6.180000	1486.466876
6.190000	1523.289166
6.200000	1554.468040
6.210000	1584.977563
6.220000	1618.170293
6.230000	1652.692177
6.240000	1686.576935
6.250000	1721.122072
6.260000	1757.356059
6.270000	1799.935382
6.280000	1851.169069
6.290000	1899.751837
6.300000	1920.986028
6.310000	1894.621423
6.320000	1821.568861
6.330000	1719.244254
6.340000	1609.872963
6.350000	1511.898227
6.360000	1435.529440
6.370000	1385.579149
6.380000	1356.532764
6.390000	1339.626455
6.400000	1329.253489
6.410000	1326.734932
6.420000	1330.007133
6.430000	1330.200327
6.440000	1317.467091
6.450000	1294.074708
6.460000	1267.650856
6.470000	1242.315236
6.480000	1219.870729
6.490000	1201.262560
6.500000	1192.480280
6.510000	1193.903633
6.520000	1200.116394
6.530000	1208.260865
6.540000	1218.135578
6.550000	1228.658088
6.560000	1241.538136
6.570000	1255.088306
6.580000	1271.326477
6.590000	1285.876505
6.600000	1303.181180
6.610000	1320.353302
6.620000	1329.397162
6.630000	1330.561294
6.640000	1335.018265
6.650000	1351.805092
6.660000	1377.981358
6.670000	1407.749136
6.680000	1435.653352
6.690000	1460.412458
6.700000	1483.373561
6.710000	1497.092469
6.720000	1470.736864
6.730000	1378.493416
6.740000	1229.235732
6.750000	1061.014598
6.760000	906.760429
6.770000	782.863361
6.780000	695.295970
6.790000	640.391548
6.800000	602.838528
6.810000	569.965751
6.820000	541.453534
6.830000	524.264903
6.840000	515.078327
6.850000	499.237374
6.860000	463.076705
6.870000	409.292054
6.880000	351.475356
6.890000	303.718190
6.900000	268.211137
6.910000	245.843634
6.920000	233.304662
6.930000	225.666982
6.940000	217.766272
6.950000	213.216235
6.960000	219.606989
6.970000	236.444526
6.980000	256.797656
6.990000	270.698493
7.000000	279.051921
7.010000	286.663293
7.020000	300.344867
7.030000	320.643766
7.040000	343.992437
7.050000	366.321831
7.060000	379.661303
7.070000	389.067394
7.080000	401.700701
7.090000	426.181420
7.100000	458.068379
7.110000	471.600739
7.120000	435.116725
7.130000	327.077763
7.140000	164.300003
7.150000	-17.697905
7.160000	-182.819507
7.170000	-310.487557
7.180000	-398.628181
7.190000	-452.268706
7.200000	-480.754355
7.210000	-488.676083
7.220000	-482.191093
7.230000	-471.400862
7.240000	-467.270408
7.250000	-479.763396
7.260000	-508.294887
7.270000	-552.099866
7.280000	-604.945738
7.290000	-663.753342
7.300000	-713.539188
7.310000	-746.401845
7.320000	-756.781590
7.330000	-749.388013
7.340000	-731.006086
7.350000	-704.339629
7.360000	-675.550328
7.370000	-643.916174
7.380000	-612.081234
7.390000	-578.458765
7.400000	-545.267166
7.410000	-513.977447
7.420000	-484.761240
7.430000	-455.468361
7.440000	-425.237692
7.450000	-395.277354
7.460000	-364.687637
7.470000	-333.067217
7.480000	-298.446327
7.490000	-263.516483
7.500000	-253.580599
7.510000	-303.639406
7.520000	-433.654127
7.530000	-618.285345
7.540000	-810.315207
7.550000	-974.946575
7.560000	-1096.677323
7.570000	-1178.306305
7.580000	-1226.699030
7.590000	-1254.998543
7.600000	-1270.018793
7.610000	-1272.991054
7.620000	-1267.661227
7.630000	-1264.985950
7.640000	-1277.958643
7.650000	-1307.597478
7.660000	-1344.878125
7.670000	-1381.193251
7.680000	-1411.457156
7.690000	-1430.104350
7.700000	-1435.363346
7.710000	-1428.340174
7.720000	-1415.267178
7.730000	-1398.549116
7.740000	-1378.816491
7.750000	-1355.070652
7.760000	-1329.023692
7.770000	-1301.573759
7.780000	-1274.216364
7.790000	-1247.056894
7.800000	-1221.061919
7.810000	-1195.185016
7.820000	-1168.892723
7.830000	-1143.301494
7.840000	-1118.370817
7.850000	-1098.079446
7.860000	-1075.135017
7.870000	-1045.850986
7.880000	-1006.883790
7.890000	-981.345427
7.900000	-1006.321115
7.910000	-1098.433768
7.920000	-1241.986360
7.930000	-1392.426126
7.940000	-1517.669032
7.950000	-1604.453261
7.960000	-1654.041233
7.970000	-1676.487398
7.980000	-1681.729173
7.990000	-1677.498064
8.000000	-1664.714179
8.010000	-1644.491546
8.020000	-1625.702608
8.030000	-1616.130637
8.040000	-1618.659324
8.050000	-1628.396583
8.060000	-1638.592273
8.070000	-1643.312553
8.080000	-1637.508537
8.090000	-1621.891657
8.100000	-1596.737332
8.110000	-1566.462269
8.120000	-1531.601997
8.130000	-1493.347598
8.140000	-1452.778983
8.150000	-1407.870055
8.160000	-1361.280857
8.170000	-1310.690530
8.180000	-1257.771737
8.190000	-1204.155260
8.200000	-1149.902333
8.210000	-1097.269695
8.220000	-1044.665674
8.230000	-991.028534
8.240000	-937.076481
8.250000	-882.426546
8.260000	-825.793287
8.270000	-763.459299
8.280000	-701.511377
8.290000	-666.522272
8.300000	-681.860881
8.310000	-748.496859
8.320000	-839.773895
8.330000	-922.759843
8.340000	-979.700471
8.350000	-1006.698998
8.360000	-1010.293383
8.370000	-997.944589
8.380000	-975.852951
8.390000	-946.482917
8.400000	-909.707941
8.410000	-869.334118
8.420000	-832.874712
8.430000	-805.145698
8.440000	-783.989634
8.450000	-764.917690
8.460000	-745.409618
8.470000	-721.317703
8.480000	-689.464253
8.490000	-651.362077
8.500000	-606.811819
8.510000	-558.377825
8.520000	-504.444499
8.530000	-446.364463
8.540000	-386.040902
8.550000	-323.307095
8.560000	-261.608370
8.570000	-198.527567
8.580000	-135.479768
8.590000	-72.370089
8.600000	-9.644975
8.610000	51.827785
8.620000	111.566307
8.630000	171.407999
8.640000	231.148493
8.650000	292.704427
8.660000	357.774342
8.670000	428.045625
8.680000	502.437927
8.690000	565.058679
8.700000	599.479778
8.710000	595.134766
8.720000	560.287475
8.730000	517.297550
8.740000	482.126098
8.750000	465.160708
8.760000	464.981819
8.770000	480.073638
8.780000	504.542725
8.790000	537.384373
8.800000	577.822470
8.810000	622.072219
8.820000	662.477450
8.830000	694.488287
8.840000	719.535699
8.850000	738.958092
8.860000	758.326709
8.870000	779.806817
8.880000	807.511813
8.890000	840.363823
8.900000	877.754539
8.910000	919.980100
8.920000	966.050967
8.930000	1013.316156
8.940000	1061.077540
8.950000	1108.376710
8.960000	1157.171091
8.970000	1205.485851
8.980000	1251.658632
8.990000	1298.333689
9.000000	1345.198652
9.010000	1393.246101
9.020000	1438.787184
9.030000	1483.234264
9.040000	1526.433518
9.050000	1570.290542
9.060000	1617.812348
9.070000	1669.068560
9.080000	1721.915231
9.090000	1760.539484
9.100000	1772.090337
9.110000	1747.418290
9.120000	1694.042558
9.130000	1629.054994
9.140000	1570.061393
9.150000	1526.735365
9.160000	1500.456476
9.170000	1488.804561
9.180000	1488.247988
9.190000	1499.284519
9.200000	1518.094207
9.210000	1539.828410
9.220000	1556.665873
9.230000	1561.441223
9.240000	1558.335988
9.250000	1549.449090
9.260000	1542.422248
9.270000	1539.844136
9.280000	1541.903100
9.290000	1549.977084
9.300000	1560.438278
9.310000	1573.856401
9.320000	1588.034119
9.330000	1604.146656
9.340000	1622.696523
9.350000	1641.497996
9.360000	1660.767374
9.370000	1680.918435
9.380000	1702.908303
9.390000	1726.738184
9.400000	1750.445783
9.410000	1774.967838
9.420000	1801.051337
9.430000	1826.591561
9.440000	1854.071357
9.450000	1885.616124
9.460000	1921.488022
9.470000	1953.017848
9.480000	1958.269860
9.490000	1916.491003
9.500000	1822.830118
9.510000	1694.760101
9.520000	1562.827449
9.530000	1445.731014
9.540000	1353.869521
9.550000	1285.068106
9.560000	1233.635811
9.570000	1195.476607
9.580000	1168.808633
9.590000	1155.294551
9.600000	1145.016094
9.610000	1127.176318
9.620000	1094.967198
9.630000	1051.818669
9.640000	1004.660147
9.650000	960.192387
9.660000	923.079253
9.670000	896.627212
9.680000	879.550324
9.690000	871.462158
9.700000	868.743232
9.710000	870.033752
9.720000	872.996954
9.730000	878.677849
9.740000	884.637363
9.750000	892.061197
9.760000	901.337912
9.770000	913.842610
9.780000	927.089567
9.790000	939.019923
9.800000	952.248464
9.810000	967.252107
9.820000	986.807418
9.830000	1007.527429
9.840000	1030.772465
9.850000	1054.185243
9.860000	1079.808607
9.870000	1094.192482
9.880000	1069.196006
9.890000	977.593461
9.900000	818.713847
9.910000	627.482659
9.920000	440.292437
9.930000	280.392073
9.940000	154.882586
9.950000	61.999306
9.960000	-6.489937
9.970000	-61.011476
9.980000	-104.788411
9.990000	-134.283169
10.000000	-159.069455
10.010000	-192.177996
10.020000	-241.283169
10.030000	-300.650452
10.040000	-360.099540
10.050000	-415.421249
10.060000	-462.866187
10.070000	-501.148229
10.080000	-526.910296
10.090000	-540.836521
10.100000	-544.908577
10.110000	-544.485089
10.120000	-540.178544
10.130000	-532.418259
10.140000	-522.068526
10.150000	-510.304816
10.160000	-496.907582
10.170000	-481.143238
10.180000	-463.704201
10.190000	-446.940224
10.200000	-429.444876
10.210000	-411.028617
10.220000	-389.468388
10.230000	-367.084931
10.240000	-343.440115
10.250000	-315.089130
10.260000	-282.712996
10.270000	-248.387326
10.280000	-241.016741
10.290000	-290.311918
10.300000	-415.248857
10.310000	-596.422619
10.320000	-790.039180
10.330000	-961.183233
10.340000	-1090.832342
10.350000	-1182.298033
10.360000	-1241.927003
10.370000	-1280.384836
10.380000	-1304.638617
10.390000	-1314.412487
10.400000	-1315.327456
10.410000	-1314.071042
10.420000	-1324.330436
10.430000	-1347.658115
10.440000	-1380.615141
10.450000	-1417.200499
10.460000	-1448.521157
10.470000	-1470.385281
10.480000	-1479.392386
10.490000	-1477.882414
10.500000	-1472.906678
10.510000	-1466.663201
10.520000	-1459.713643
10.530000	-1445.388137
10.540000	-1422.499846
10.550000	-1392.752013
10.560000	-1358.585894
10.570000	-1326.759034
10.580000	-1297.619092
10.590000	-1270.060275
10.600000	-1237.936772
10.610000	-1202.680762
10.620000	-1168.226523
10.630000	-1134.589105
10.640000	-1096.132791
10.650000	-1052.811582
10.660000	-1006.677003
10.670000	-960.334492
10.680000	-910.504017
10.690000	-874.212192
10.700000	-880.329287
10.710000	-949.366030
10.720000	-1069.364510
10.730000	-1207.762432
10.740000	-1331.363834
10.750000	-1421.497917
10.760000	-1474.369877
10.770000	-1494.889836
10.780000	-1495.362077
10.790000	-1477.217720
10.800000	-1445.329529
10.810000	-1401.168687
10.820000	-1358.295897
10.830000	-1326.073779
10.840000	-1307.209576
10.850000	-1303.274601
10.860000	-1308.067340
10.870000	-1316.443671
10.880000	-1315.870054
10.890000	-1301.933516
10.900000	-1274.649955
10.910000	-1236.394742
10.920000	-1194.073735
10.930000	-1152.147214
10.940000	-1113.457555
10.950000	-1073.510531
10.960000	-1028.808279
10.970000	-981.185829
10.980000	-933.124602
10.990000	-883.481480
11.000000	-830.736680
11.010000	-775.412670
11.020000	-722.657860
11.030000	-671.289329
11.040000	-620.208589
11.050000	-566.456649
11.060000	-510.063079
11.070000	-453.258680
11.080000	-392.864485
11.090000	-335.382178
11.100000	-296.652856
11.110000	-297.146136
11.120000	-340.021195
11.130000	-409.485316
11.140000	-480.658276
11.150000	-534.132989
11.160000	-562.956111
11.170000	-568.095385
11.180000	-559.237277
11.190000	-538.663240
11.200000	-508.811079
11.210000	-470.852898
11.220000	-428.684042
11.230000	-392.685115
11.240000	-367.833308
11.250000	-354.127864
11.260000	-343.584575
11.270000	-331.202458
11.280000	-315.970172
11.290000	-297.568710
11.300000	-271.299878
11.310000	-236.903001
11.320000	-198.597454
11.330000	-157.183175
11.340000	-113.516836
11.350000	-66.746681
11.360000	-20.068399
11.370000	27.413613
11.380000	77.762769
11.390000	129.945218
11.400000	182.974179
11.410000	235.522962
11.420000	288.572627
11.430000	343.482736
11.440000	400.549435
11.450000	456.480893
11.460000	511.918904
11.470000	568.530673
11.480000	630.009692
11.490000	684.253100
11.500000	714.804831
11.510000	710.038703
11.520000	677.369110
11.530000	633.567110
11.540000	592.977422
11.550000	567.138760
11.560000	557.609521
11.570000	563.755835
11.580000	579.611997
11.590000	607.113203
11.600000	646.662426
11.610000	694.845813
11.620000	739.742109
11.630000	773.977089
11.640000	797.561805
11.650000	816.511467
11.660000	835.096864
11.670000	855.761184
11.680000	882.022100
11.690000	913.387306
11.700000	948.332109
11.710000	983.730156
11.720000	1019.371431
11.730000	1055.128040
11.740000	1094.809878
11.750000	1137.234013
11.760000	1179.298341
11.770000	1219.065284
11.780000	1259.856822
11.790000	1302.612383
11.800000	1340.449650
11.810000	1370.225698
11.820000	1398.458398
11.830000	1432.230049
11.840000	1474.177847
11.850000	1522.612176
11.860000	1577.291007
11.870000	1635.711224
11.880000	1677.411362
11.890000	1688.885941
11.900000	1662.270476
11.910000	1611.176267
11.920000	1554.534172
11.930000	1505.507394
11.940000	1474.513630
11.950000	1458.190627
11.960000	1451.210952
11.970000	1448.598050
11.980000	1451.982938
11.990000	1465.736128
12.000000	1485.788146
12.010000	1503.919138
12.020000	1513.988649
12.030000	1518.849677
12.040000	1521.913415
12.050000	1526.168344
12.060000	1533.557814
12.070000	1544.204386
12.080000	1560.597622
12.090000	1581.953533
12.100000	1606.356260
12.110000	1631.757421
12.120000	1657.507003
12.130000	1683.952128
12.140000	1711.713047
12.150000	1739.863597
12.160000	1769.311588
12.170000	1800.494342
12.180000	1832.627102
12.190000	1865.513449
12.200000	1897.993122
12.210000	1929.921561
12.220000	1962.749455
12.230000	1998.048977
12.240000	2037.558239
12.250000	2071.529857
12.260000	2081.728389
12.270000	2050.396383
12.280000	1978.333484
12.290000	1880.685919
12.300000	1777.669057
12.310000	1686.015383
12.320000	1613.027820
12.330000	1560.712304
12.340000	1523.079532
12.350000	1496.797659
12.360000	1483.859892
12.370000	1480.246731
12.380000	1478.343474
12.390000	1466.397057
12.400000	1441.897911
12.410000	1410.949345
12.420000	1379.162131
12.430000	1350.875429
12.440000	1326.458882
12.450000	1308.182971
12.460000	1296.459559
12.470000	1290.194861
12.480000	1288.836318
12.490000	1292.248595
12.500000	1298.916080
12.510000	1307.341928
12.520000	1316.034816
12.530000	1326.816057
12.540000	1339.853438
12.550000	1355.661620
12.560000	1372.034447
12.570000	1388.882227
12.580000	1405.248336
12.590000	1420.471595
12.600000	1438.508871
12.610000	1459.416882
12.620000	1482.800791
12.630000	1486.333877
12.640000	1445.116900
12.650000	1345.311807
12.660000	1199.869768
12.670000	1041.038533
12.680000	892.962117
12.690000	772.105173
12.700000	679.706245
12.710000	611.516262
12.720000	556.791305
12.730000	512.306017
12.740000	473.563466
12.750000	436.119081
12.760000	390.678037
12.770000	334.304574
12.780000	270.163558
12.790000	205.187170
12.800000	148.006391
12.810000	97.060308
12.820000	50.867200
12.830000	11.627206
12.840000	-17.252476
12.850000	-36.802665
12.860000	-49.361100
12.870000	-54.210285
12.880000	-51.124662
12.890000	-42.947365
12.900000	-31.206424
12.910000	-16.003117
12.920000	-0.620292
12.930000	13.622376
12.940000	25.975815
12.950000	33.917295
12.960000	39.257342
12.970000	42.882414
12.980000	53.231573
12.990000	69.827560
13.000000	89.535574
13.010000	83.371331
13.020000	18.163585
13.030000	-115.016920
13.040000	-287.437681
13.050000	-457.035389
13.060000	-599.421772
13.070000	-705.430724
13.080000	-782.453838
13.090000	-837.829181
13.100000	-883.836848
13.110000	-916.521178
13.120000	-935.568752
13.130000	-945.900528
13.140000	-963.003398
13.150000	-997.273691
13.160000	-1045.408950
13.170000	-1094.630085
13.180000	-1137.505837
13.190000	-1171.343523
13.200000	-1200.299607
13.210000	-1227.065043
13.220000	-1251.765801
13.230000	-1272.795293
13.240000	-1283.900066
13.250000	-1283.553364
13.260000	-1271.720600
13.270000	-1260.026285
13.280000	-1250.531675
13.290000	-1241.506237
13.300000	-1224.007687
13.310000	-1200.703447
13.320000	-1172.832429
13.330000	-1142.924129
13.340000	-1115.683677
13.350000	-1095.164145
13.360000	-1077.200732
13.370000	-1050.406616
13.380000	-1013.769144
13.390000	-982.049175
13.400000	-986.740840
13.410000	-1049.355527
13.420000	-1167.672446
13.430000	-1311.276742
13.440000	-1449.964131
13.450000	-1560.243088
13.460000	-1632.989156
13.470000	-1668.262382
13.480000	-1676.738226
13.490000	-1667.973984
13.500000	-1645.165683
13.510000	-1617.732340
13.520000	-1599.635739
13.530000	-1600.175128
13.540000	-1616.770844
13.550000	-1639.295289
13.560000	-1656.935924
13.570000	-1665.131551
13.580000	-1668.157939
13.590000	-1676.685094
13.600000	-1688.377664
13.610000	-1691.914419
13.620000	-1678.304609
13.630000	-1650.544501
13.640000	-1616.279158
13.650000	-1579.198883
13.660000	-1541.284489
13.670000	-1501.881809
13.680000	-1458.320359
13.690000	-1410.608455
13.700000	-1367.750911
13.710000	-1340.376468
13.720000	-1323.174850
13.730000	-1300.821057
13.740000	-1264.320500
13.750000	-1220.346568
13.760000	-1181.854852
13.770000	-1147.537905
13.780000	-1119.436944
13.790000	-1115.478282
13.800000	-1147.039990
13.810000	-1219.775396
13.820000	-1313.611686
13.830000	-1406.105482
13.840000	-1476.895416
13.850000	-1510.154495
13.860000	-1520.302175
13.870000	-1522.913443
13.880000	-1528.735901
13.890000	-1524.647179
13.900000	-1504.228498
13.910000	-1480.140545
13.920000	-1467.769234
13.930000	-1469.639325
13.940000	-1467.627404
13.950000	-1456.882101
13.960000	-1434.866196
13.970000	-1406.185475
13.980000	-1379.824699
13.990000	-1357.175708
14.000000	-1334.811032
14.010000	-1301.853224
14.020000	-1255.861618
14.030000	-1200.254573
14.040000	-1139.957404
14.050000	-1087.384199
14.060000	-1047.406821
14.070000	-1013.189311
14.080000	-970.877897
14.090000	-916.395493
14.100000	-857.756345
14.110000	-805.315540
14.120000	-758.980131
14.130000	-711.255886
14.140000	-654.243355
14.150000	-586.588010
14.160000	-515.236426
14.170000	-448.296950
14.180000	-404.298315
14.190000	-401.043997
14.200000	-444.367325
14.210000	-512.087329
14.220000	-574.455340
14.230000	-610.862111
14.240000	-620.971940
14.250000	-614.036011
14.260000	-602.202497
14.270000	-592.234331
14.280000	-578.437927
14.290000	-554.804072
14.300000	-524.738035
14.310000	-497.762632
14.320000	-476.725016
14.330000	-458.743855
14.340000	-441.752484
14.350000	-429.779919
14.360000	-422.472527
14.370000	-417.180800
14.380000	-403.542350
14.390000	-374.294330
14.400000	-332.678329
14.410000	-284.786161
14.420000	-238.188674
14.430000	-194.297875
14.440000	-157.744485
14.450000	-129.836916
14.460000	-104.984291
14.470000	-74.737541
14.480000	-36.609729
14.490000	-2.379760
14.500000	26.424086
14.510000	53.289742
14.520000	90.112450
14.530000	136.557289
14.540000	179.731468
14.550000	219.157592
14.560000	253.647367
14.570000	292.418819
14.580000	321.465328
14.590000	322.300430
14.600000	290.621773
14.610000	239.529534
14.620000	193.442500
14.630000	154.330341
14.640000	121.556260
14.650000	94.097107
14.660000	78.658430
14.670000	77.485633
14.680000	89.385324
14.690000	114.512190
14.700000	144.389666
14.710000	170.172380
14.720000	184.700107
14.730000	190.828374
14.740000	195.323073
14.750000	200.440587
14.760000	211.590122
14.770000	226.667741
14.780000	244.829694
14.790000	264.863093
14.800000	288.379716
14.810000	311.345778
14.820000	331.236869
14.830000	349.810016
14.840000	373.075639
14.850000	402.899612
14.860000	435.535874
14.870000	469.632798
14.880000	504.635443
14.890000	538.666293
14.900000	565.360086
14.910000	579.005776
14.920000	585.420704
14.930000	596.332586
14.940000	621.446976
14.950000	660.603616
14.960000	707.761852
14.970000	752.166554
14.980000	771.683763
14.990000	753.058928
15.000000	694.943512
15.010000	617.649347
15.020000	539.503107
15.030000	475.870340
15.040000	427.661779
15.050000	392.387507
15.060000	363.782328
15.070000	337.214802
15.080000	318.236544
15.090000	301.985919
15.100000	285.000416
15.110000	258.381303
15.120000	216.078027
15.130000	165.118575
15.140000	112.795712
15.150000	64.489989
15.160000	15.458365
15.170000	-29.472829
15.180000	-58.888021
15.190000	-69.485024
15.200000	-67.287069
15.210000	-60.196050
15.220000	-55.043468
15.230000	-53.920970
15.240000	-53.478455
15.250000	-45.994036
15.260000	-36.308052
15.270000	-28.759118
15.280000	-24.488882
15.290000	-25.553343
15.300000	-31.355676
15.310000	-45.385328
15.320000	-58.547729
15.330000	-69.932900
15.340000	-71.747268
15.350000	-64.195449
15.360000	-41.623676
15.370000	-8.177823
15.380000	4.732172
15.390000	-30.843504
15.400000	-120.877711
15.410000	-232.762597
15.420000	-340.197575
15.430000	-435.759476
15.440000	-523.575049
15.450000	-605.442458
15.460000	-674.621511
15.470000	-722.145035
15.480000	-739.026900
15.490000	-729.910624
15.500000	-704.137363
15.510000	-669.697930
15.520000	-628.255790
15.530000	-575.159816
15.540000	-505.732644
15.550000	-420.661507
15.560000	-327.252651
15.570000	-237.200120
15.580000	-155.111294
15.590000	-84.426857
15.600000	-24.650343
15.610000	26.326387
15.620000	67.778490
15.630000	99.389861
15.640000	119.847134
15.650000	136.787243
15.660000	155.552241
15.670000	177.817427
15.680000	205.567845
15.690000	238.818620
15.700000	279.565414
15.710000	323.445644
15.720000	367.543686
15.730000	411.389548
15.740000	454.498846
15.750000	498.315771
15.760000	522.705186
15.770000	501.201815
15.780000	421.260384
15.790000	300.815618
15.800000	173.502831
15.810000	60.706645
15.820000	-27.307647
15.830000	-89.784089
15.840000	-132.825864
15.850000	-169.315601
15.860000	-206.016022
15.870000	-237.502312
15.880000	-259.564778
15.890000	-276.400628
15.900000	-301.159893
15.910000	-338.630998
15.920000	-384.083799
15.930000	-434.220150
15.940000	-481.684657
15.950000	-519.164090
15.960000	-539.306654
15.970000	-548.834501
15.980000	-551.274258
15.990000	-546.515871
16.000000	-529.248418
16.010000	-500.903158
16.020000	-467.255130
16.030000	-428.629314
16.040000	-386.619042
16.050000	-340.369007
16.060000	-293.014053
16.070000	-251.138185
16.080000	-218.420970
16.090000	-192.577399
16.100000	-170.511946
16.110000	-150.372848
16.120000	-151.012471
16.130000	-189.515991
16.140000	-271.834827
16.150000	-376.603044
16.160000	-475.323060
16.170000	-558.427414
16.180000	-622.179155
16.190000	-667.282348
16.200000	-692.715394
16.210000	-702.168286
16.220000	-698.600866
16.230000	-680.058469
16.240000	-654.196977
16.250000	-634.649140
16.260000	-631.467150
16.270000	-643.225337
16.280000	-659.730111
16.290000	-672.823808
16.300000	-676.682638
16.310000	-669.783719
16.320000	-654.662406
16.330000	-630.416748
16.340000	-600.336037
16.350000	-566.729223
16.360000	-533.696510
16.370000	-505.390211
16.380000	-479.387071
16.390000	-452.396739
16.400000	-418.752128
16.410000	-380.438410
16.420000	-337.124715
16.430000	-294.844548
16.440000	-261.515891
16.450000	-250.946699
16.460000	-274.580164
16.470000	-334.368798
16.480000	-418.619391
16.490000	-502.433477
16.500000	-566.686408
16.510000	-601.201075
16.520000	-613.480069
16.530000	-612.650962
16.540000	-609.622852
16.550000	-600.738133
16.560000	-582.777193
16.570000	-564.869301
16.580000	-552.932513
16.590000	-549.667816
16.600000	-550.744417
16.610000	-556.822312
16.620000	-563.216954
16.630000	-559.970673
16.640000	-542.378633
16.650000	-513.147135
16.660000	-476.552061
16.670000	-435.994988
16.680000	-391.723640
16.690000	-344.517465
16.700000	-296.571951
16.710000	-253.388209
16.720000	-215.077656
16.730000	-177.920301
16.740000	-136.249557
16.750000	-86.462609
16.760000	-31.443494
16.770000	18.303600
16.780000	41.663202
16.790000	26.090123
16.800000	-22.515667
16.810000	-82.081495
16.820000	-132.034218
16.830000	-165.960570
16.840000	-183.905406
16.850000	-188.848940
16.860000	-185.448768
16.870000	-175.396394
16.880000	-161.996789
16.890000	-145.936549
16.900000	-132.557148
16.910000	-121.794403
16.920000	-113.449344
16.930000	-104.309179
16.940000	-91.340223
16.950000	-73.159671
16.960000	-46.891172
16.970000	-14.687805
16.980000	21.896040
16.990000	60.117657
17.000000	99.693878
17.010000	140.594698
17.020000	182.495466
17.030000	224.408152
17.040000	266.973440
17.050000	310.225527
17.060000	353.455299
17.070000	398.054937
17.080000	443.605450
17.090000	491.563100
17.100000	542.426905
17.110000	583.375605
17.120000	598.915607
17.130000	578.877644
17.140000	532.800334
17.150000	477.074046
17.160000	425.687654
17.170000	389.604970
17.180000	369.222420
17.190000	361.804063
17.200000	360.756998
17.210000	366.031833
17.220000	378.973071
17.230000	397.595082
17.240000	415.856254
17.250000	428.839961
17.260000	437.768458
17.270000	444.766427
17.280000	454.032414
17.290000	466.697470
17.300000	482.305287
17.310000	496.631713
17.320000	509.269129
17.330000	524.258929
17.340000	543.240723
17.350000	566.563878
17.360000	593.891968
17.370000	625.886690
17.380000	661.888288
17.390000	699.219578
17.400000	733.562628
17.410000	764.245244
17.420000	794.263376
17.430000	828.292084
17.440000	867.638326
17.450000	911.349724
17.460000	952.681253
17.470000	973.058973
17.480000	959.423627
17.490000	912.824804
17.500000	849.559235
17.510000	785.273725
17.520000	731.702486
17.530000	695.393632
17.540000	674.508102
17.550000	662.853817
17.560000	651.659026
17.570000	643.029762
17.580000	638.494399
17.590000	638.221490
17.600000	638.672588
17.610000	634.762106
17.620000	627.554273
17.630000	618.657622
17.640000	612.463804
17.650000	612.237035
17.660000	618.051687
17.670000	627.831102
17.680000	641.331948
17.690000	660.786088
17.700000	685.291159
17.710000	712.424557
17.720000	737.933099
17.730000	763.433665
17.740000	791.933462
17.750000	823.790184
17.760000	858.954140
17.770000	895.830634
17.780000	934.668124
17.790000	971.882198
17.800000	1006.744986
17.810000	1039.625191
17.820000	1071.846268
17.830000	1093.693037
17.840000	1088.951571
17.850000	1048.468839
17.860000	979.122822
17.870000	900.300931
17.880000	830.313051
17.890000	776.123801
17.900000	732.491689
17.910000	694.636528
17.920000	663.374274
17.930000	642.512697
17.940000	635.611376
17.950000	640.394677
17.960000	647.851787
17.970000	646.959567
17.980000	630.123344
17.990000	605.255402
18.000000	582.088206
18.010000	569.236419
18.020000	568.723161
18.030000	569.870691
18.040000	570.068349
18.050000	569.534074
18.060000	576.790952
18.070000	591.193473
18.080000	608.524868
18.090000	628.551520
18.100000	645.598128
18.110000	662.286556
18.120000	678.016647
18.130000	701.400908
18.140000	730.092310
18.150000	759.863904
18.160000	790.532779
18.170000	822.014088
18.180000	853.992748
18.190000	866.463535
18.200000	841.478250
18.210000	773.633853
18.220000	682.384967
18.230000	595.513174
18.240000	527.273850
18.250000	480.379956
18.260000	447.487452
18.270000	424.608136
18.280000	409.056649
18.290000	402.867799
18.300000	403.631989
18.310000	402.461179
18.320000	392.230175
18.330000	372.089624
18.340000	347.864341
18.350000	326.405022
18.360000	308.164888
18.370000	292.066649
18.380000	275.143824
18.390000	261.765144
18.400000	256.473101
18.410000	259.468051
18.420000	267.809894
18.430000	281.862645
18.440000	303.165664
18.450000	328.927559
18.460000	356.203024
18.470000	384.013016
18.480000	412.926240
18.490000	441.440849
18.500000	471.339662
18.510000	504.884304
18.520000	539.420340
18.530000	554.626442
18.540000	527.507325
18.550000	445.744664
18.560000	325.017739
18.570000	195.582555
18.580000	80.855433
18.590000	-6.931107
18.600000	-70.669488
18.610000	-113.098993
18.620000	-144.536770
18.630000	-165.561919
18.640000	-176.057498
18.650000	-182.030590
18.660000	-192.575866
18.670000	-215.819328
18.680000	-246.380097
18.690000	-279.265659
18.700000	-307.168056
18.710000	-329.387121
18.720000	-342.606040
18.730000	-348.178848
18.740000	-343.357081
18.750000	-332.648384
18.760000	-318.761278
18.770000	-303.440253
18.780000	-284.479821
18.790000	-261.896967
18.800000	-238.865989
18.810000	-214.000316
18.820000	-189.254033
18.830000	-162.752723
18.840000	-135.643488
18.850000	-107.159857
18.860000	-77.027813
18.870000	-44.559572
18.880000	-8.404236
18.890000	20.680001
18.900000	16.516006
18.910000	-43.732437
18.920000	-160.162685
18.930000	-305.397667
18.940000	-445.485102
18.950000	-558.758624
18.960000	-641.853298
18.970000	-701.142033
18.980000	-746.560510
18.990000	-784.846075
19.000000	-813.572151
19.010000	-831.549959
19.020000	-842.928401
19.030000	-858.936738
19.040000	-884.597883
19.050000	-915.294141
19.060000	-946.932726
19.070000	-972.641310
19.080000	-989.943852
19.090000	-995.985113
19.100000	-992.298168
19.110000	-981.997852
19.120000	-966.646260
19.130000	-948.677807
19.140000	-927.985630
19.150000	-904.690073
19.160000	-879.993083
19.170000	-851.691519
19.180000	-820.674310
19.190000	-787.357021
19.200000	-753.357597
19.210000	-720.354847
19.220000	-687.031539
19.230000	-652.686637
19.240000	-615.701951
19.250000	-575.019001
19.260000	-532.044879
19.270000	-487.348178
19.280000	-454.756711
19.290000	-459.374175
19.300000	-519.448925
19.310000	-626.994019
19.320000	-750.408877
19.330000	-862.959843
19.340000	-952.407933
19.350000	-1017.287896
19.360000	-1062.757824
19.370000	-1096.622527
19.380000	-1124.768414
19.390000	-1145.602571
19.400000	-1154.436436
19.410000	-1156.609398
19.420000	-1160.779447
19.430000	-1171.938654
19.440000	-1186.765406
19.450000	-1198.256860
19.460000	-1203.428063
19.470000	-1202.583024
19.480000	-1196.423996
19.490000	-1186.242904
19.500000	-1170.410574
19.510000	-1149.574271
19.520000	-1124.061400
19.530000	-1092.900415
19.540000	-1058.386087
19.550000	-1020.886026
19.560000	-982.379825
19.570000	-943.866759
19.580000	-906.037046
19.590000	-868.174473
19.600000	-828.020714
19.610000	-786.153825
19.620000	-743.335229
19.630000	-699.460967
19.640000	-653.978496
19.650000	-607.100007
19.660000	-557.948377
19.670000	-507.072373
19.680000	-457.587853
19.690000	-428.082910
19.700000	-437.223012
19.710000	-491.388299
19.720000	-574.123835
19.730000	-658.660195
19.740000	-729.717500
19.750000	-780.951028
19.760000	-815.999423
19.770000	-837.566568
19.780000	-851.283092
19.790000	-861.171159
19.800000	-866.547059
19.810000	-867.771592
19.820000	-867.810899
19.830000	-869.697998
19.840000	-873.391821
19.850000	-872.599152
19.860000	-867.649240
19.870000	-856.150861
19.880000	-838.238001
19.890000	-813.692381
19.900000	-781.147421
19.910000	-745.240568
19.920000	-707.036898
19.930000	-669.115802
19.940000	-629.904206
19.950000	-589.651622
19.960000	-547.757767
19.970000	-503.508720
19.980000	-456.266124
19.990000	-407.024553
20.000000	-355.424671
20.010000	-302.531197
20.020000	-251.241472
20.030000	-201.348853
20.040000	-151.039713
20.050000	-98.151052
20.060000	-45.503458
20.070000	6.735908
20.080000	61.055651
20.090000	113.955669
20.100000	150.265644
20.110000	153.856086
20.120000	124.202142
20.130000	75.480882
20.140000	24.831125
20.150000	-17.227801
20.160000	-47.541734
20.170000	-65.257398
20.180000	-74.241802
20.190000	-77.264541
20.200000	-73.244835
20.210000	-63.257460
20.220000	-54.243484
20.230000	-53.898267
20.240000	-59.525722
20.250000	-70.857519
20.260000	-94.471519
20.270000	-128.103553
20.280000	-169.394434
20.290000	-213.319288
20.300000	-251.284213
20.310000	-263.480531
20.320000	-241.180377
20.330000	-197.677849
20.340000	-140.368903
20.350000	-75.847830
20.360000	-14.876710
20.370000	31.674424
20.380000	73.698741
20.390000	124.566157
20.400000	184.932901
20.410000	245.457758
20.420000	304.215121
20.430000	367.733968
20.440000	442.859960
20.450000	530.355580
20.460000	623.847667
20.470000	720.349314
20.480000	816.196688
20.490000	905.701006
20.500000	968.536037
20.510000	992.104796
20.520000	979.282414
20.530000	946.243306
20.540000	909.728861
20.550000	872.375236
20.560000	835.203343
20.570000	797.535274
20.580000	766.398725
20.590000	749.396921
20.600000	752.623612
20.610000	773.268044
20.620000	801.864429
20.630000	828.505770
20.640000	849.156123
20.650000	862.786770
20.660000	873.831424
20.670000	885.098831
20.680000	900.211399
20.690000	919.103443
20.700000	940.958895
20.710000	966.482043
20.720000	992.064584
20.730000	1021.919048
20.740000	1054.190747
20.750000	1088.397166
20.760000	1120.344259
20.770000	1152.264005
20.780000	1187.204606
20.790000	1222.152298
20.800000	1258.114273
20.810000	1293.404973
20.820000	1329.404295
20.830000	1365.357202
20.840000	1402.070834
20.850000	1443.022458
20.860000	1478.406710
20.870000	1491.040050
20.880000	1468.127347
20.890000	1409.799285
20.900000	1334.604802
20.910000	1258.257041
20.920000	1193.447004
20.930000	1143.395230
20.940000	1107.318041
20.950000	1083.236684
20.960000	1067.892149
20.970000	1061.795113
20.980000	1060.158355
20.990000	1060.399600
21.000000	1053.781002
21.010000	1041.404468
21.020000	1024.443869
21.030000	1008.795656
21.040000	997.472151
21.050000	991.554858
21.060000	990.536027
21.070000	995.023719
21.080000	1005.974081
21.090000	1020.521928
21.100000	1036.787970
21.110000	1054.731592
21.120000	1075.645195
21.130000	1097.638786
21.140000	1119.878183
21.150000	1142.922588
21.160000	1167.818532
21.170000	1194.576136
21.180000	1224.468173
21.190000	1257.933105
21.200000	1285.462754
21.210000	1287.969230
21.220000	1251.510135
21.230000	1175.413662
21.240000	1078.984089
21.250000	983.568589
21.260000	903.142517
21.270000	841.734077
21.280000	797.990536
21.290000	767.929866
21.300000	749.882239
21.310000	742.162751
21.320000	742.810123
21.330000	743.080412
21.340000	734.441786
21.350000	716.055520
21.360000	691.454891
21.370000	667.742978
21.380000	649.162459
21.390000	638.461754
21.400000	633.892865
21.410000	634.551129
21.420000	642.332336
21.430000	653.994186
21.440000	668.144431
21.450000	682.802916
21.460000	697.327230
21.470000	714.654911
21.480000	733.865933
21.490000	757.549440
21.500000	784.760884
21.510000	814.810340
21.520000	844.347246
21.530000	855.730420
21.540000	831.298354
21.550000	761.704504
21.560000	661.011284
21.570000	554.406363
21.580000	462.074042
21.590000	392.439174
21.600000	343.805261
21.610000	312.495814
21.620000	295.233183
21.630000	290.920387
21.640000	295.681749
21.650000	302.698151
21.660000	302.149680
21.670000	291.857503
21.680000	272.652806
21.690000	251.393327
21.700000	232.174587
21.710000	221.294430
21.720000	217.701734
21.730000	222.560151
21.740000	234.580330
21.750000	251.180156
21.760000	270.819268
21.770000	291.155085
21.780000	315.430318
21.790000	341.805804
21.800000	370.402808
21.810000	401.813511
21.820000	436.730905
21.830000	475.174332
21.840000	503.709983
21.850000	500.867306
21.860000	449.053564
21.870000	353.309253
21.880000	240.811039
21.890000	136.096665
21.900000	54.562402
21.910000	-1.466547
21.920000	-35.016042
21.930000	-54.693922
21.940000	-63.896057
21.950000	-62.227157
21.960000	-54.440205
21.970000	-49.422126
21.980000	-55.968201
21.990000	-72.907541
22.000000	-96.808191
22.010000	-129.392368
22.020000	-169.292001
22.030000	-210.851444
22.040000	-241.743897
22.050000	-259.992404
22.060000	-269.532536
22.070000	-274.454673
22.080000	-271.956840
22.090000	-258.904333
22.100000	-238.386920
22.110000	-207.660356
22.120000	-172.496480
22.130000	-134.060185
22.140000	-93.262170
22.150000	-50.114743
22.160000	-7.025336
22.170000	10.442503
22.180000	-16.093740
22.190000	-92.290625
22.200000	-195.075596
22.210000	-298.341477
22.220000	-387.081029
22.230000	-466.441136
22.240000	-540.410429
22.250000	-597.492438
22.260000	-622.724838
22.270000	-610.898744
22.280000	-582.772467
22.290000	-563.646436
22.300000	-569.122711
22.310000	-598.679433
22.320000	-642.443864
22.330000	-689.372806
22.340000	-734.779727
22.350000	-772.726982
22.360000	-803.463809
22.370000	-826.076170
22.380000	-838.476517
22.390000	-840.763517
22.400000	-833.489592
22.410000	-820.124959
22.420000	-802.832111
22.430000	-781.480090
22.440000	-756.844053
22.450000	-729.501886
22.460000	-698.519317
22.470000	-662.523550
22.480000	-620.864566
22.490000	-575.888366
22.500000	-528.541144
22.510000	-491.621154
22.520000	-485.908643
22.530000	-518.652684
22.540000	-576.555852
22.550000	-635.657970
22.560000	-681.565944
22.570000	-710.362196
22.580000	-719.918008
22.590000	-713.752544
22.600000	-698.282187
22.610000	-676.805364
22.620000	-648.974260
22.630000	-615.198373
22.640000	-582.689990
22.650000	-554.251103
22.660000	-527.730806
22.670000	-500.976035
22.680000	-478.796470
22.690000	-461.360791
22.700000	-445.860037
22.710000	-431.423791
22.720000	-417.932087
22.730000	-403.488502
22.740000	-386.678883
22.750000	-365.892924
22.760000	-341.772275
22.770000	-313.968528
22.780000	-283.877846
22.790000	-252.383598
22.800000	-216.313303
22.810000	-174.812876
22.820000	-129.430012
22.830000	-79.912011
22.840000	-28.562020
22.850000	25.322018
22.860000	69.261201
22.870000	88.206944
22.880000	74.094749
22.890000	34.459047
22.900000	-10.713312
22.910000	-46.645782
22.920000	-68.224012
22.930000	-77.112141
22.940000	-77.752064
22.950000	-75.256878
22.960000	-66.266857
22.970000	-52.091261
22.980000	-32.788512
22.990000	-16.291045
23.000000	-5.640652
23.010000	-3.166262
23.020000	-4.485225
23.030000	-6.389048
23.040000	-4.003040
23.050000	1.694130
23.060000	9.467005
23.070000	19.436123
23.080000	31.591639
23.090000	47.838179
23.100000	64.355213
23.110000	78.899088
23.120000	89.440422
23.130000	104.977856
23.140000	131.504802
23.150000	172.035724
23.160000	220.197202
23.170000	270.081864
23.180000	311.197186
23.190000	339.131402
23.200000	348.848671
23.210000	336.503940
23.220000	302.498059
23.230000	249.869809
23.240000	193.833483
23.250000	142.869619
23.260000	106.156431
23.270000	86.504051
23.280000	73.428147
23.290000	52.111701
23.300000	16.040956
23.310000	-16.561253
23.320000	-20.676279
23.330000	1.007486
23.340000	28.877628
23.350000	40.886998
23.360000	40.151276
23.370000	38.106493
23.380000	40.726887
23.390000	50.967828
23.400000	66.604903
23.410000	87.484649
23.420000	110.457656
23.430000	134.991456
23.440000	161.629327
23.450000	188.808274
23.460000	211.774527
23.470000	220.592982
23.480000	210.582775
23.490000	199.420875
23.500000	213.062028
23.510000	261.519746
23.520000	329.787146
23.530000	392.237188
23.540000	425.165104
23.550000	415.297324
23.560000	365.568104
23.570000	295.717291
23.580000	220.604518
23.590000	151.106278
23.600000	94.945369
23.610000	58.471064
23.620000	38.238697
23.630000	24.464286
23.640000	18.541709
23.650000	18.426850
23.660000	22.491118
23.670000	21.012244
23.680000	11.438415
23.690000	-1.738353
23.700000	-15.975175
23.710000	-25.168234
23.720000	-29.762682
23.730000	-30.287808
23.740000	-28.242510
23.750000	-22.757398
23.760000	-10.405365
23.770000	4.394546
23.780000	20.082520
23.790000	31.846915
23.800000	45.241368
23.810000	60.928146
23.820000	78.372360
23.830000	96.315960
23.840000	116.152338
23.850000	140.682478
23.860000	157.197692
23.870000	148.344013
23.880000	99.224033
23.890000	19.380044
23.900000	-72.751361
23.910000	-158.944202
23.920000	-232.451517
23.930000	-292.979610
23.940000	-340.846995
23.950000	-379.383795
23.960000	-407.257035
23.970000	-424.151675
23.980000	-435.042697
23.990000	-447.287384
24.000000	-466.518430
24.010000	-489.761110
24.020000	-514.022622
24.030000	-536.597649
24.040000	-554.220809
24.050000	-565.134034
24.060000	-569.453353
24.070000	-569.372170
24.080000	-566.714424
24.090000	-560.966921
24.100000	-552.006425
24.110000	-540.928365
24.120000	-527.658708
24.130000	-511.251053
24.140000	-491.343046
24.150000	-470.612681
24.160000	-448.382225
24.170000	-423.336751
24.180000	-402.140978
24.190000	-406.800741
24.200000	-452.579120
24.210000	-537.916557
24.220000	-640.658848
24.230000	-741.070618
24.240000	-826.790543
24.250000	-894.280735
24.260000	-944.299298
24.270000	-981.867924
24.280000	-1011.839711
24.290000	-1029.126684
24.300000	-1038.105077
24.310000	-1044.421300
24.320000	-1056.744515
24.330000	-1075.057893
24.340000	-1095.071440
24.350000	-1114.398989
24.360000	-1128.424891
24.370000	-1133.776183
24.380000	-1133.829595
24.390000	-1128.844218
24.400000	-1119.936073
24.410000	-1107.944255
24.420000	-1093.407824
24.430000	-1077.411882
24.440000	-1057.235198
24.450000	-1033.922578
24.460000	-1008.762607
24.470000	-982.798600
24.480000	-955.652072
24.490000	-927.375054
24.500000	-898.909847
24.510000	-868.977881
24.520000	-835.531252
24.530000	-798.953060
24.540000	-775.896278
24.550000	-788.976805
24.560000	-849.930190
24.570000	-943.625439
24.580000	-1042.294647
24.590000	-1127.999558
24.600000	-1192.718053
24.610000	-1239.435510
24.620000	-1268.164776
24.630000	-1286.256304
24.640000	-1295.627799
24.650000	-1295.433922
24.660000	-1290.136327
24.670000	-1286.314794
24.680000	-1291.344309
24.690000	-1300.526269
24.700000	-1310.586451
24.710000	-1318.769225
24.720000	-1323.528441
24.730000	-1322.706821
24.740000	-1314.835091
24.750000	-1301.348276
24.760000	-1284.172071
24.770000	-1263.012376
24.780000	-1238.874450
24.790000	-1210.364795
24.800000	-1180.282988
24.810000	-1149.071780
24.820000	-1115.380694
24.830000	-1079.142764
24.840000	-1041.508593
24.850000	-1003.907729
24.860000	-966.993935
24.870000	-929.359626
24.880000	-892.512892
24.890000	-853.825444
24.900000	-811.726372
24.910000	-765.317725
24.920000	-725.663644
24.930000	-714.529990
24.940000	-741.257028
24.950000	-800.725756
24.960000	-868.486839
24.970000	-926.628633
24.980000	-960.748405
24.990000	-973.934625
25.000000	-969.364907
25.010000	-957.949491
25.020000	-939.304297
25.030000	-910.644605
25.040000	-877.619954
25.050000	-844.354888
25.060000	-822.976531
25.070000	-813.049184
25.080000	-813.014781
25.090000	-819.756854
25.100000	-823.384975
25.110000	-817.825111
25.120000	-800.447620
25.130000	-771.249787
25.140000	-735.874514
25.150000	-696.011887
25.160000	-654.987045
25.170000	-613.113052
25.180000	-569.777227
25.190000	-524.226878
25.200000	-474.242608
25.210000	-419.691841
25.220000	-365.065600
25.230000	-311.826235
25.240000	-260.563449
25.250000	-207.959985
25.260000	-151.071906
25.270000	-91.114238
25.280000	-31.260986
25.290000	10.014753
25.300000	23.233741
25.310000	4.819567
25.320000	-30.895562
25.330000	-69.715368
25.340000	-101.708782
25.350000	-118.593193
25.360000	-120.215518
25.370000	-109.149187
25.380000	-92.070360
25.390000	-69.023294
25.400000	-41.598601
25.410000	-12.569290
25.420000	9.188263
25.430000	24.243037
25.440000	35.313925
25.450000	47.060765
25.460000	60.764221
25.470000	79.551324
25.480000	104.878197
25.490000	133.029793
25.500000	161.999489
25.510000	190.847658
25.520000	224.473791
25.530000	260.650095
25.540000	299.291968
25.550000	339.121079
25.560000	381.456272
25.570000	425.258414
25.580000	467.287859
25.590000	508.748446
25.600000	550.793627
25.610000	594.914213
25.620000	638.630454
25.630000	682.430581
25.640000	722.464962
25.650000	747.603692
25.660000	747.311649
25.670000	723.154384
25.680000	686.195900
25.690000	645.043598
25.700000	606.754951
25.710000	574.936174
25.720000	552.324903
25.730000	537.163465
25.740000	527.575363
25.750000	527.086864
25.760000	534.828785
25.770000	550.360237
25.780000	567.081180
25.790000	580.990392
25.800000	591.359292
25.810000	600.312192
25.820000	609.654083
25.830000	619.981972
25.840000	632.635948
25.850000	648.001229
25.860000	666.637455
25.870000	687.702860
25.880000	711.996747
25.890000	738.085351
25.900000	766.381819
25.910000	795.483940
25.920000	826.796054
25.930000	861.236346
25.940000	897.894112
25.950000	934.340452
25.960000	971.022957
25.970000	1007.131000
25.980000	1040.839252
25.990000	1072.284173
26.000000	1102.014242
26.010000	1137.815107
26.020000	1169.163810
26.030000	1182.362491
26.040000	1168.351587
26.050000	1131.639569
26.060000	1090.269250
26.070000	1050.911739
26.080000	1018.876436
26.090000	996.201785
26.100000	985.178099
26.110000	984.509349
26.120000	993.174797
26.130000	1006.835651
26.140000	1023.539467
26.150000	1039.518612
26.160000	1052.269472
26.170000	1060.232912
26.180000	1063.365926
26.190000	1063.982837
26.200000	1067.165995
26.210000	1072.747876
26.220000	1081.665478
26.230000	1093.204936
26.240000	1106.862259
26.250000	1122.693750
26.260000	1140.756078
26.270000	1162.216129
26.280000	1186.676255
26.290000	1211.429622
26.300000	1236.635217
26.310000	1262.006255
26.320000	1287.626340
26.330000	1313.948483
26.340000	1338.975407
26.350000	1365.602241
26.360000	1394.683708
26.370000	1428.290917
26.380000	1456.724654
26.390000	1465.999512
26.400000	1443.801926
26.410000	1392.112471
26.420000	1321.267278
26.430000	1248.275572
26.440000	1185.418133
26.450000	1138.118329
26.460000	1104.246727
26.470000	1079.988259
26.480000	1065.785461
26.490000	1062.223664
26.500000	1064.340673
26.510000	1065.486107
26.520000	1058.593032
26.530000	1044.802661
26.540000	1026.212859
26.550000	1006.154039
26.560000	987.863792
26.570000	973.533825
26.580000	965.212191
26.590000	960.933687
26.600000	960.596707
26.610000	965.033674
26.620000	973.340567
26.630000	984.831588
26.640000	997.110266
26.650000	1010.333589
26.660000	1024.576677
26.670000	1040.534086
26.680000	1057.736538
26.690000	1075.096041
26.700000	1096.272434
26.710000	1122.012823
26.720000	1149.828761
26.730000	1161.248173
26.740000	1139.084231
26.750000	1074.201053
26.760000	977.088820
26.770000	869.546664
26.780000	767.104310
26.790000	681.242385
26.800000	612.450615
26.810000	561.299097
26.820000	523.143130
26.830000	498.730911
26.840000	485.854237
26.850000	475.838095
26.860000	461.595921
26.870000	436.973800
26.880000	406.392350
26.890000	370.457803
26.900000	335.563185
26.910000	305.626589
26.920000	284.759195
26.930000	271.136781
26.940000	264.316437
26.950000	261.330536
26.960000	263.241637
26.970000	268.540506
26.980000	276.525387
26.990000	287.108215
27.000000	297.156547
27.010000	310.717797
27.020000	325.124466
27.030000	343.364493
27.040000	363.433297
27.050000	387.710899
27.060000	406.730297
27.070000	398.042060
27.080000	341.721010
27.090000	236.444125
27.100000	105.465401
27.110000	-26.798077
27.120000	-141.787398
27.130000	-233.054951
27.140000	-301.040829
27.150000	-350.639412
27.160000	-387.612299
27.170000	-411.188559
27.180000	-425.513534
27.190000	-437.394911
27.200000	-456.071635
27.210000	-485.570763
27.220000	-520.253961
27.230000	-555.400193
27.240000	-584.415821
27.250000	-606.898253
27.260000	-622.563242
27.270000	-630.045520
27.280000	-631.372428
27.290000	-627.843501
27.300000	-619.497795
27.310000	-605.960246
27.320000	-588.280564
27.330000	-570.071104
27.340000	-550.037176
27.350000	-526.501809
27.360000	-500.121335
27.370000	-471.921570
27.380000	-440.186236
27.390000	-404.667201
27.400000	-375.936254
27.410000	-379.442650
27.420000	-431.650772
27.430000	-527.147408
27.440000	-639.296614
27.450000	-742.845795
27.460000	-822.961111
27.470000	-875.898218
27.480000	-903.966016
27.490000	-917.630357
27.500000	-921.278395
27.510000	-912.668646
27.520000	-895.932815
27.530000	-879.042193
27.540000	-872.920225
27.550000	-874.368665
27.560000	-879.898707
27.570000	-884.349233
27.580000	-886.212726
27.590000	-882.651792
27.600000	-871.521093
27.610000	-853.287438
27.620000	-828.489026
27.630000	-801.259113
27.640000	-771.103855
27.650000	-737.222994
27.660000	-701.051307
27.670000	-662.843552
27.680000	-624.329489
27.690000	-584.784137
27.700000	-542.933018
27.710000	-499.724434
27.720000	-453.188885
27.730000	-404.667583
27.740000	-354.101406
27.750000	-313.972414
27.760000	-306.033359
27.770000	-340.238875
27.780000	-409.579483
27.790000	-488.782668
27.800000	-557.132338
27.810000	-603.012393
27.820000	-626.043715
27.830000	-629.245827
27.840000	-621.632644
27.850000	-602.781139
27.860000	-575.224192
27.870000	-542.647486
27.880000	-513.155777
27.890000	-495.175977
27.900000	-485.048782
27.910000	-479.700713
27.920000	-473.596347
27.930000	-462.891430
27.940000	-445.476690
27.950000	-421.416138
27.960000	-392.356072
27.970000	-358.598515
27.980000	-321.566562
27.990000	-283.444344
28.000000	-244.767214
28.010000	-204.279938
28.020000	-160.628937
28.030000	-115.451744
28.040000	-70.485587
28.050000	-24.944596
28.060000	24.002085
28.070000	75.892225
28.080000	127.487529
28.090000	165.038922
28.100000	175.313148
28.110000	153.213403
28.120000	111.526666
28.130000	69.745090
28.140000	40.058928
28.150000	27.596189
28.160000	30.243452
28.170000	45.117330
28.180000	67.762489
28.190000	53.467878
