Time(s)	RED_denoised_wiener
0.000000	611.863083
0.010000	1066.776718
0.020000	1411.445807
0.030000	1786.511558
0.040000	2162.193873
0.050000	2504.111786
0.060000	2814.255810
0.070000	3220.607971
0.080000	3624.915545
0.090000	3929.661249
0.100000	4195.233270
0.110000	4414.756603
0.120000	4682.391152
0.130000	4906.907907
0.140000	5183.294744
0.150000	5448.528563
0.160000	5683.892425
0.170000	5848.997787
0.180000	5936.825506
0.190000	6246.888294
0.200000	6583.312931
0.210000	6964.283901
0.220000	7115.917518
0.230000	7268.318569
0.240000	7472.286541
0.250000	7672.988737
0.260000	7850.011061
0.270000	7941.808857
0.280000	7897.028399
0.290000	7914.917293
0.300000	7989.751265
0.310000	8173.788577
0.320000	8256.023029
0.330000	8174.008193
0.340000	8142.330931
0.350000	8167.600056
0.360000	8290.009394
0.370000	8230.929353
0.380000	8051.569097
0.390000	7900.781909
0.400000	7861.565099
0.410000	7940.710259
0.420000	7950.312656
0.430000	7925.204498
0.440000	7747.596258
0.450000	7619.533478
0.460000	7499.167283
0.470000	7495.568561
0.480000	7439.934277
0.490000	6558.903216
0.500000	5582.123588
0.510000	4560.669078
0.520000	4253.218755
0.530000	4109.135203
0.540000	4017.485340
0.550000	4050.401843
0.560000	3718.173773
0.570000	3261.974831
0.580000	2819.878518
0.590000	2757.138482
0.600000	2877.341155
0.610000	2940.817720
0.620000	2928.377563
0.630000	3057.114612
0.640000	3376.923877
0.650000	3862.842129
0.660000	4237.747593
0.670000	4505.645481
0.680000	4701.627423
0.690000	5051.276438
0.700000	5417.816725
0.710000	5551.903216
0.720000	5497.115821
0.730000	5480.004675
0.740000	5473.356928
0.750000	5405.957753
0.760000	5220.274872
0.770000	5154.362019
0.780000	5043.392329
0.790000	4625.138172
0.800000	4189.331842
0.810000	3774.530463
0.820000	3637.509978
0.830000	3618.751872
0.840000	3692.695080
0.850000	3687.209612
0.860000	3542.494091
0.870000	3367.101611
0.880000	3225.142681
0.890000	3062.640681
0.900000	2899.298116
0.910000	2698.663051
0.920000	2620.295814
0.930000	2646.502162
0.940000	2867.225730
0.950000	3031.374156
0.960000	3068.955582
0.970000	3155.890378
0.980000	3186.547204
0.990000	3109.189274
1.000000	2815.952206
1.010000	2425.076261
1.020000	2164.959696
1.030000	1948.730097
1.040000	1816.280941
1.050000	1557.662778
1.060000	1395.086999
1.070000	1349.005277
1.080000	1448.881215
1.090000	2156.832261
1.100000	2847.317016
1.110000	3528.695300
1.120000	3617.087246
1.130000	3656.282676
1.140000	3759.635048
1.150000	3882.394943
1.160000	4101.475452
1.170000	4397.533906
1.180000	4737.568675
1.190000	4940.890140
1.200000	5109.727742
1.210000	5518.674418
1.220000	6114.607167
1.230000	6553.278674
1.240000	6575.004171
1.250000	6585.661985
1.260000	6670.804753
1.270000	6738.506848
1.280000	6613.658131
1.290000	5960.524029
1.300000	5317.524769
1.310000	4691.024342
1.320000	4501.137702
1.330000	4348.215073
1.340000	4246.828995
1.350000	4156.861599
1.360000	4020.075173
1.370000	3835.602304
1.380000	3628.995782
1.390000	3428.283576
1.400000	3254.830406
1.410000	3150.284731
1.420000	3097.432700
1.430000	2986.960747
1.440000	2824.610616
1.450000	2705.473557
1.460000	2583.992042
1.470000	2481.090517
1.480000	2367.823103
1.490000	2345.316378
1.500000	2332.069234
1.510000	2327.345745
1.520000	2295.466062
1.530000	2252.428704
1.540000	2190.708230
1.550000	2143.531827
1.560000	2177.615550
1.570000	2189.071135
1.580000	2133.923764
1.590000	2011.630966
1.600000	1959.510070
1.610000	1932.922026
1.620000	2053.448757
1.630000	2217.154370
1.640000	2571.637152
1.650000	2940.386862
1.660000	3511.716035
1.670000	3987.503256
1.680000	4380.199291
1.690000	5216.915981
1.700000	6112.725059
1.710000	6953.952588
1.720000	7083.301246
1.730000	7021.432690
1.740000	6870.266718
1.750000	6661.256516
1.760000	6493.620073
1.770000	6299.487636
1.780000	6001.477928
1.790000	5708.425208
1.800000	5595.711224
1.810000	5686.133988
1.820000	5840.353746
1.830000	5881.257793
1.840000	5822.369490
1.850000	5750.095556
1.860000	5751.899361
1.870000	5822.520617
1.880000	5911.143458
1.890000	5979.483450
1.900000	6011.282039
1.910000	6035.067215
1.920000	6145.430555
1.930000	6309.125540
1.940000	6412.514436
1.950000	6427.906539
1.960000	6397.273339
1.970000	6391.915487
1.980000	6345.130930
1.990000	6302.708078
2.000000	6283.720078
2.010000	6288.250322
2.020000	6303.405564
2.030000	6357.367494
2.040000	6499.942651
2.050000	6611.140565
2.060000	6697.613177
2.070000	6655.392055
2.080000	6616.042793
2.090000	6522.901963
2.100000	6394.784970
2.110000	6285.944262
2.120000	6188.120282
2.130000	6127.174834
2.140000	6004.872329
2.150000	5903.321296
2.160000	5856.910149
2.170000	5837.709681
2.180000	5824.709592
2.190000	5839.286604
2.200000	5847.759398
2.210000	5820.271712
2.220000	5664.364332
2.230000	5495.551127
2.240000	5316.378069
2.250000	5276.950856
2.260000	5286.106758
2.270000	5341.300809
2.280000	5376.029126
2.290000	5440.001783
2.300000	5464.654256
2.310000	5486.347640
2.320000	5408.600270
2.330000	5384.059175
2.340000	5280.440777
2.350000	5200.756323
2.360000	5063.442608
2.370000	5057.527156
2.380000	4990.054631
2.390000	3625.088182
2.400000	1841.124378
2.410000	-214.379613
2.420000	-1526.114480
2.430000	-2794.924451
2.440000	-4092.660528
2.450000	-5127.509822
2.460000	-6166.451953
2.470000	-7037.604991
2.480000	-7793.579650
2.490000	-8381.802101
2.500000	-8942.966786
2.510000	-9891.818249
2.520000	-10897.710664
2.530000	-10990.820479
2.540000	-10131.755897
2.550000	-9082.774511
2.560000	-8965.876630
2.570000	-9280.697399
2.580000	-9652.771930
2.590000	-10035.286225
2.600000	-10243.391317
2.610000	-10065.909741
2.620000	-9332.567117
2.630000	-8505.384313
2.640000	-7894.443625
2.650000	-7580.684430
2.660000	-7490.019410
2.670000	-7556.802918
2.680000	-7556.958638
2.690000	-7434.518398
2.700000	-7018.721155
2.710000	-6497.694763
2.720000	-6113.109113
2.730000	-6056.548452
2.740000	-6014.260476
2.750000	-5731.050748
2.760000	-5253.732152
2.770000	-4998.060216
2.780000	-4831.862393
2.790000	-3904.930649
2.800000	-2828.843561
2.810000	-1834.928938
2.820000	-1658.049501
2.830000	-1598.498362
2.840000	-1483.884542
2.850000	-1441.741828
2.860000	-1377.963919
2.870000	-1345.244381
2.880000	-1215.739453
2.890000	-1137.365799
2.900000	-1114.317821
2.910000	-1169.071107
2.920000	-1159.313361
2.930000	-1220.411610
2.940000	-1440.387472
2.950000	-1726.466893
2.960000	-2011.746719
2.970000	-2045.901862
2.980000	-1646.846236
2.990000	-836.786817
3.000000	-149.575927
3.010000	44.215778
3.020000	-139.867390
3.030000	-370.087429
3.040000	-483.190539
3.050000	-604.755538
3.060000	-745.438981
3.070000	-926.362657
3.080000	-1069.661809
3.090000	-1135.656904
3.100000	-1142.294477
3.110000	-1215.167686
3.120000	-1359.520109
3.130000	-1672.189513
3.140000	-1995.976772
3.150000	-2233.306478
3.160000	-2398.006725
3.170000	-2538.789154
3.180000	-2657.179555
3.190000	-2756.217693
3.200000	-2884.755796
3.210000	-3130.031774
3.220000	-3208.262291
3.230000	-3004.260703
3.240000	-2686.502143
3.250000	-2525.058725
3.260000	-2590.152245
3.270000	-2620.574689
3.280000	-2501.167459
3.290000	-2285.520498
3.300000	-2078.291670
3.310000	-1885.499812
3.320000	-1484.427741
3.330000	-944.590863
3.340000	-500.327928
3.350000	-254.300645
3.360000	-70.889688
3.370000	177.315364
3.380000	373.891553
3.390000	488.511585
3.400000	620.369980
3.410000	762.087571
3.420000	826.633144
3.430000	754.741016
3.440000	652.348940
3.450000	642.772096
3.460000	702.321897
3.470000	735.263888
3.480000	761.268084
3.490000	1004.972569
3.500000	1304.136602
3.510000	1500.340993
3.520000	1410.250248
3.530000	1189.284371
3.540000	1000.694239
3.550000	949.373930
3.560000	1048.189548
3.570000	1100.857402
3.580000	1024.629321
3.590000	883.039543
3.600000	794.180092
3.610000	727.104409
3.620000	571.134860
3.630000	421.354973
3.640000	216.277726
3.650000	86.749492
3.660000	-86.653533
3.670000	-210.660984
3.680000	-319.660359
3.690000	-405.682506
3.700000	-492.149890
3.710000	-580.709807
3.720000	-588.809509
3.730000	-475.588731
3.740000	-310.845931
3.750000	-76.969535
3.760000	58.865740
3.770000	216.023197
3.780000	243.418729
3.790000	354.264869
3.800000	396.882134
3.810000	622.523425
3.820000	779.204472
3.830000	1074.950787
3.840000	1194.993842
3.850000	1451.667692
3.860000	1553.021550
3.870000	1957.006529
3.880000	2112.170002
3.890000	2375.731783
3.900000	1765.862188
3.910000	-630.468287
3.920000	-4763.770327
3.930000	-8288.986995
3.940000	-10267.342095
3.950000	-10419.946685
3.960000	-8388.776373
3.970000	-3021.262573
3.980000	-8503.027287
3.990000	-28413.659057
4.000000	-38955.718572
4.010000	-45097.583746
4.020000	-49511.840267
4.030000	-52103.288447
4.040000	-53669.377101
4.050000	-52860.222871
4.060000	-49843.894804
4.070000	-44489.168427
4.080000	-36029.802766
4.090000	-26440.734772
4.100000	-15571.027352
4.110000	-7054.152810
4.120000	-2033.519766
4.130000	860.158737
4.140000	876.037559
4.150000	570.000256
4.160000	-1016.197212
4.170000	-1581.010976
4.180000	-1405.664140
4.190000	-711.246543
4.200000	-23442.894382
4.210000	-19473.130172
4.220000	-11926.433698
4.230000	-6844.301136
4.240000	-3767.154391
4.250000	-1379.932973
4.260000	-586.447057
4.270000	350.226682
4.280000	584.373426
4.290000	1467.629467
4.300000	1822.790912
4.310000	2511.509485
4.320000	2484.505277
4.330000	2659.338328
4.340000	2315.268018
4.350000	2323.756362
4.360000	2093.229820
4.370000	2379.092665
4.380000	2124.433937
4.390000	497.602238
4.400000	-776.785130
4.410000	-1207.385058
4.420000	-152.700132
4.430000	467.485792
4.440000	431.609968
4.450000	376.609969
4.460000	196.776974
4.470000	358.536775
4.480000	654.325275
4.490000	1075.242928
4.500000	1359.079444
4.510000	1752.583146
4.520000	2264.751344
4.530000	2657.149056
4.540000	1943.943617
4.550000	-500.387732
4.560000	-4843.862945
4.570000	-10213.311491
4.580000	-15318.850647
4.590000	-19752.648136
4.600000	-24095.007551
4.610000	-28741.064847
4.620000	-32950.796699
4.630000	-35680.395582
4.640000	-36240.973889
4.650000	-34234.269074
4.660000	-30525.697493
4.670000	-25381.045321
4.680000	-19768.808730
4.690000	-13599.839530
4.700000	-8411.279527
4.710000	-4673.441356
4.720000	-2441.616559
4.730000	-1457.733269
4.740000	-987.697914
4.750000	-232.227895
4.760000	1246.516245
4.770000	3122.136698
4.780000	4641.854244
4.790000	5314.518135
4.800000	5406.574617
4.810000	5509.096047
4.820000	5852.278606
4.830000	6086.392497
4.840000	5576.848077
4.850000	3740.815467
4.860000	632.153739
4.870000	-3546.696236
4.880000	-8016.964024
4.890000	-12512.285254
4.900000	-17538.168378
4.910000	-23820.094462
4.920000	-31333.603966
4.930000	-35568.987723
4.940000	-36733.811527
4.950000	-35773.914689
4.960000	-34546.354663
4.970000	-33302.740805
4.980000	-30994.965668
4.990000	-27932.261389
5.000000	-23761.719744
5.010000	-18873.244646
5.020000	-14162.464245
5.030000	-10488.175492
5.040000	-8034.613476
5.050000	-6469.756370
5.060000	-5352.727105
5.070000	-4542.084130
5.080000	-4031.463903
5.090000	-3451.327572
5.100000	-2352.222022
5.110000	-837.658202
5.120000	400.173646
5.130000	876.356850
5.140000	955.685252
5.150000	1122.153863
5.160000	1535.098810
5.170000	2087.017382
5.180000	2571.044599
5.190000	2909.379581
5.200000	3144.804823
5.210000	3365.689266
5.220000	3753.983371
5.230000	4208.387941
5.240000	4771.061867
5.250000	5236.250583
5.260000	5537.038834
5.270000	5626.691349
5.280000	5667.451336
5.290000	5736.097772
5.300000	5884.334152
5.310000	6023.329482
5.320000	6079.141191
5.330000	6115.494658
5.340000	6117.960906
5.350000	6202.584133
5.360000	6261.068972
5.370000	6343.351252
5.380000	6339.319001
5.390000	6313.518086
5.400000	6317.124062
5.410000	6404.624147
5.420000	6494.156434
5.430000	6522.387870
5.440000	6573.873354
5.450000	6732.432821
5.460000	6867.623209
5.470000	6916.957312
5.480000	6913.934355
5.490000	6955.959703
5.500000	7038.940446
5.510000	7043.624149
5.520000	7045.129999
5.530000	7025.353367
5.540000	7019.123592
5.550000	7029.993125
5.560000	7053.429171
5.570000	7110.040499
5.580000	7199.018814
5.590000	7302.053638
5.600000	7270.267921
5.610000	7122.884076
5.620000	6949.737387
5.630000	6809.994131
5.640000	6724.135178
5.650000	6670.694234
5.660000	6725.843705
5.670000	6793.300503
5.680000	6848.800421
5.690000	6901.385815
5.700000	6936.416793
5.710000	6937.528183
5.720000	6953.945495
5.730000	6981.927598
5.740000	6987.798133
5.750000	6930.048577
5.760000	6902.435576
5.770000	6936.415235
5.780000	6992.297860
5.790000	6977.727571
5.800000	6931.280129
5.810000	6910.522434
5.820000	6848.687889
5.830000	6777.691894
5.840000	6702.127366
5.850000	6694.156854
5.860000	6657.550702
5.870000	6572.614793
5.880000	6468.895079
5.890000	6359.817243
5.900000	6300.144730
5.910000	6249.218921
5.920000	6170.536639
5.930000	6090.259721
5.940000	6050.776246
5.950000	6080.066833
5.960000	6070.786100
5.970000	6021.308919
5.980000	5961.028391
5.990000	5929.729389
6.000000	5884.863620
6.010000	5867.868797
6.020000	5800.861877
6.030000	5754.576261
6.040000	5658.969100
6.050000	5569.459648
6.060000	5453.668853
6.070000	5336.335896
6.080000	5250.228913
6.090000	5177.914758
6.100000	5146.086202
6.110000	5141.562310
6.120000	5112.350574
6.130000	5044.831045
6.140000	4974.601325
6.150000	4938.957690
6.160000	4917.549001
6.170000	4843.480406
6.180000	4793.416832
6.190000	4540.697795
6.200000	4336.125721
6.210000	4151.346657
6.220000	4139.867469
6.230000	4149.357350
6.240000	4152.823751
6.250000	4220.507137
6.260000	4226.448252
6.270000	4179.903771
6.280000	4184.208287
6.290000	4270.647974
6.300000	4387.286825
6.310000	4416.092650
6.320000	4374.287094
6.330000	4378.696017
6.340000	4417.153048
6.350000	4474.846913
6.360000	4437.635769
6.370000	4367.706463
6.380000	4278.543818
6.390000	4260.002905
6.400000	4244.915745
6.410000	4228.366806
6.420000	4196.828461
6.430000	4188.438323
6.440000	4158.413721
6.450000	4125.586070
6.460000	4150.349170
6.470000	4170.634667
6.480000	4144.578454
6.490000	4029.587385
6.500000	3979.588039
6.510000	3925.836797
6.520000	3879.392788
6.530000	3889.100315
6.540000	3946.284203
6.550000	4015.870272
6.560000	3981.532339
6.570000	3963.537518
6.580000	3995.457384
6.590000	4048.282102
6.600000	4057.200829
6.610000	3996.050381
6.620000	3945.489338
6.630000	3945.960641
6.640000	3961.153548
6.650000	3962.479336
6.660000	3947.143186
6.670000	3930.636839
6.680000	3926.383033
6.690000	3913.289387
6.700000	3869.878927
6.710000	3852.747372
6.720000	3873.843742
6.730000	3922.067450
6.740000	3915.540058
6.750000	3808.078603
6.760000	3692.545087
6.770000	3538.010327
6.780000	3316.151580
6.790000	3044.663121
6.800000	2848.313864
6.810000	2791.746144
6.820000	2759.911633
6.830000	2668.509600
6.840000	2575.496385
6.850000	2563.270045
6.860000	2597.356909
6.870000	2629.255627
6.880000	2651.928528
6.890000	2676.889572
6.900000	2733.814287
6.910000	2819.698180
6.920000	2918.595735
6.930000	2997.056740
6.940000	2977.186591
6.950000	2981.564154
6.960000	3012.044182
6.970000	3105.766851
6.980000	3180.505665
6.990000	3269.886175
7.000000	3364.781489
7.010000	3439.892823
7.020000	3449.265616
7.030000	3419.363349
7.040000	3349.272777
7.050000	3312.302520
7.060000	3286.616614
7.070000	3252.177817
7.080000	3220.979447
7.090000	3082.313607
7.100000	3122.028744
7.110000	3162.105749
7.120000	3291.742125
7.130000	3280.282612
7.140000	3225.955075
7.150000	3233.406399
7.160000	3240.973545
7.170000	3227.570256
7.180000	3175.930763
7.190000	3198.016914
7.200000	3271.780707
7.210000	3354.667617
7.220000	3375.812815
7.230000	3411.983253
7.240000	3442.168667
7.250000	3482.659794
7.260000	3482.932263
7.270000	3534.985158
7.280000	3586.890685
7.290000	3629.016224
7.300000	3664.473027
7.310000	3683.934741
7.320000	3699.702384
7.330000	3658.259415
7.340000	3629.189401
7.350000	3615.653812
7.360000	3619.591128
7.370000	3593.162117
7.380000	3574.478754
7.390000	3568.829275
7.400000	3575.264074
7.410000	3551.296309
7.420000	3501.759102
7.430000	3486.493253
7.440000	3470.237486
7.450000	3455.036268
7.460000	3474.043946
7.470000	3542.438206
7.480000	3604.563134
7.490000	3631.152195
7.500000	3625.744264
7.510000	3683.020599
7.520000	3685.913453
7.530000	3693.274023
7.540000	3663.708001
7.550000	3649.016262
7.560000	3614.162357
7.570000	3604.543174
7.580000	3630.081794
7.590000	3618.739547
7.600000	3523.630265
7.610000	3403.451219
7.620000	3337.124921
7.630000	3325.838663
7.640000	3281.930112
7.650000	3244.794913
7.660000	3225.208439
7.670000	3268.396087
7.680000	3282.993789
7.690000	3141.445216
7.700000	2985.397718
7.710000	2855.427750
7.720000	2838.806025
7.730000	2793.321228
7.740000	2707.446256
7.750000	2672.033961
7.760000	2612.836137
7.770000	2628.422836
7.780000	2544.342648
7.790000	2136.540310
7.800000	1722.198871
7.810000	1368.499267
7.820000	1312.381108
7.830000	1195.681772
7.840000	1077.231628
7.850000	1037.779053
7.860000	1044.289133
7.870000	1091.470283
7.880000	1079.603278
7.890000	1105.214746
7.900000	1140.755766
7.910000	1182.869670
7.920000	1195.995365
7.930000	1208.206476
7.940000	1287.516636
7.950000	1340.603663
7.960000	1322.672879
7.970000	1329.553615
7.980000	1285.188390
7.990000	1319.231435
8.000000	1273.741683
8.010000	1347.046936
8.020000	1390.833532
8.030000	1413.448146
8.040000	1417.396222
8.050000	1397.646987
8.060000	1395.235200
8.070000	1372.109806
8.080000	1374.117222
8.090000	1462.759649
8.100000	1528.337786
8.110000	1562.160403
8.120000	1553.357234
8.130000	1591.640326
8.140000	1718.043927
8.150000	1905.064301
8.160000	2079.067563
8.170000	2191.351731
8.180000	2148.427821
8.190000	2062.327914
8.200000	2010.147694
8.210000	2109.869918
8.220000	2254.033158
8.230000	2432.461839
8.240000	2417.100826
8.250000	1873.205919
8.260000	431.182511
8.270000	-1726.425905
8.280000	-3708.684686
8.290000	-5828.260180
8.300000	-8248.707803
8.310000	-12156.471464
8.320000	-17200.146961
8.330000	-22888.995112
8.340000	-26646.207006
8.350000	-26428.230173
8.360000	-22692.200383
8.370000	-17654.566664
8.380000	-13695.248257
8.390000	-10946.792943
8.400000	-8610.326402
8.410000	-6568.808688
8.420000	-4680.922266
8.430000	-2501.909666
8.440000	-303.739537
8.450000	1166.430499
8.460000	1114.058496
8.470000	140.014554
8.480000	-1236.290080
8.490000	-2708.242902
8.500000	-3115.217587
8.510000	-2595.994646
8.520000	-1324.835391
8.530000	-811.675229
8.540000	-777.133128
8.550000	-383.417292
8.560000	264.717730
8.570000	966.981522
8.580000	1094.460522
8.590000	297.549229
8.600000	-1355.581578
8.610000	-2992.273259
8.620000	-3578.113292
8.630000	-2848.143754
8.640000	-1931.743375
8.650000	-1424.484221
8.660000	-1555.303290
8.670000	-1975.843292
8.680000	-2372.897955
8.690000	-2732.630150
8.700000	-2927.118822
8.710000	-2940.665424
8.720000	-2807.751667
8.730000	-2594.395416
8.740000	-2627.376076
8.750000	-2980.372858
8.760000	-3505.334657
8.770000	-3842.044618
8.780000	-3714.468691
8.790000	-3279.182649
8.800000	-2693.884364
8.810000	-2345.228545
8.820000	-2407.663319
8.830000	-3294.543828
8.840000	-4673.340596
8.850000	-5563.025298
8.860000	-5427.521002
8.870000	-3911.283990
8.880000	-2326.898060
8.890000	-1337.039623
8.900000	-1188.414840
8.910000	-1401.081915
8.920000	-1538.333045
8.930000	-1778.763748
8.940000	-2022.436009
8.950000	-2435.459607
8.960000	-2940.821377
8.970000	-3290.302235
8.980000	-3321.726895
8.990000	-3212.695382
9.000000	-3321.412547
9.010000	-3969.940115
9.020000	-4906.138716
9.030000	-5661.207432
9.040000	-5913.887815
9.050000	-6000.565381
9.060000	-6255.248047
9.070000	-6659.573113
9.080000	-7074.895406
9.090000	-7571.104280
9.100000	-8018.946296
9.110000	-8633.865780
9.120000	-9085.113675
9.130000	-8693.620246
9.140000	-7623.880574
9.150000	-6425.380958
9.160000	-5935.386231
9.170000	-5883.714468
9.180000	-5944.018201
9.190000	-6159.676755
9.200000	-6268.757584
9.210000	-6436.089794
9.220000	-6627.561785
9.230000	-6812.455946
9.240000	-6470.965649
9.250000	-5303.702961
9.260000	-3582.212201
9.270000	-2259.428454
9.280000	-1702.455754
9.290000	-975.848112
9.300000	-163.770464
9.310000	660.826653
9.320000	768.175463
9.330000	731.813360
9.340000	778.903375
9.350000	752.145115
9.360000	783.828679
9.370000	777.585182
9.380000	790.245428
9.390000	712.306730
9.400000	674.060101
9.410000	710.841101
9.420000	808.145822
9.430000	863.208630
9.440000	912.356781
9.450000	1033.434357
9.460000	1193.007231
9.470000	1274.845423
9.480000	1320.170488
9.490000	1339.587021
9.500000	1398.232411
9.510000	1390.609767
9.520000	1365.802954
9.530000	1392.103560
9.540000	1493.671474
9.550000	1629.839373
9.560000	1741.911427
9.570000	1844.531772
9.580000	1939.873138
9.590000	1961.459146
9.600000	1981.306257
9.610000	2078.497781
9.620000	2203.812975
9.630000	2263.507592
9.640000	2251.989392
9.650000	2286.616784
9.660000	2344.543172
9.670000	2382.767143
9.680000	2409.334412
9.690000	2475.133144
9.700000	2548.664709
9.710000	2532.417192
9.720000	2467.141450
9.730000	2374.081679
9.740000	2361.625525
9.750000	2311.559068
9.760000	2222.198882
9.770000	2117.209225
9.780000	2070.012633
9.790000	2073.743159
9.800000	2025.667927
9.810000	1972.793752
9.820000	1995.520852
9.830000	2102.420157
9.840000	2217.916261
9.850000	2304.257868
9.860000	2430.045002
9.870000	2630.445446
9.880000	2865.075038
9.890000	3050.958615
9.900000	3153.347183
9.910000	3179.697757
9.920000	3203.578003
9.930000	3270.470551
9.940000	3342.691529
9.950000	3385.362499
9.960000	3349.544854
9.970000	3318.730205
9.980000	3277.238081
9.990000	3236.284306
10.000000	3158.243233
10.010000	3105.559527
10.020000	3127.659074
10.030000	3185.371345
10.040000	3180.359146
10.050000	3166.715346
10.060000	3161.738445
10.070000	3198.215583
10.080000	3185.225055
10.090000	3138.121507
10.100000	3115.276959
10.110000	3131.688775
10.120000	3182.387810
10.130000	3190.505645
10.140000	3194.596029
10.150000	3178.285258
10.160000	3229.871910
10.170000	3284.089812
10.180000	3291.972472
10.190000	3261.831437
10.200000	3189.150706
10.210000	3170.296179
10.220000	3147.016757
10.230000	3135.076451
10.240000	3092.502878
10.250000	3062.870051
10.260000	3017.568810
10.270000	2990.279148
10.280000	2930.180064
10.290000	2852.647111
10.300000	2754.182827
10.310000	2641.151779
10.320000	2568.762281
10.330000	2512.546387
10.340000	2509.284959
10.350000	2448.979057
10.360000	2430.822929
10.370000	2410.123431
10.380000	2392.271517
10.390000	2311.511598
10.400000	2232.851255
10.410000	2207.299428
10.420000	2207.319472
10.430000	2186.138054
10.440000	2166.749012
10.450000	2116.593191
10.460000	2041.719728
10.470000	1955.502947
10.480000	1934.297274
10.490000	1920.143657
10.500000	1873.023277
10.510000	1765.584320
10.520000	1705.551408
10.530000	1703.521971
10.540000	1744.104525
10.550000	1755.734305
10.560000	1705.525437
10.570000	1657.640664
10.580000	1592.142068
10.590000	1547.800873
10.600000	1582.235614
10.610000	1591.608652
10.620000	1650.910542
10.630000	1585.821083
10.640000	1561.272497
10.650000	1599.395708
10.660000	1620.441529
10.670000	1655.026170
10.680000	1607.014273
10.690000	1597.002876
10.700000	1553.141868
10.710000	1530.410454
10.720000	1479.731952
10.730000	1442.146250
10.740000	1354.114586
10.750000	1303.042141
10.760000	1244.546498
10.770000	1242.311804
10.780000	1254.096809
10.790000	1309.854786
10.800000	1294.656582
10.810000	1271.960801
10.820000	1251.139890
10.830000	1302.973229
10.840000	1303.825972
10.850000	1262.083995
10.860000	1215.995452
10.870000	1197.577998
10.880000	1174.721443
10.890000	1118.813205
10.900000	1093.431188
10.910000	1066.515220
10.920000	1076.061767
10.930000	1059.000324
10.940000	1084.114087
10.950000	1039.046421
10.960000	984.699689
10.970000	823.045650
10.980000	679.286952
10.990000	609.575986
11.000000	632.824905
11.010000	699.302974
11.020000	775.458020
11.030000	875.544194
11.040000	932.248896
11.050000	872.483534
11.060000	779.515389
11.070000	706.719126
11.080000	583.819466
11.090000	250.750807
11.100000	-219.528233
11.110000	-615.128893
11.120000	-894.304037
11.130000	-1055.079799
11.140000	-1147.184978
11.150000	-1078.271438
11.160000	-932.181950
11.170000	-832.204674
11.180000	-728.003114
11.190000	-621.583873
11.200000	-509.111561
11.210000	-415.011814
11.220000	-372.549861
11.230000	-273.691690
11.240000	-139.985209
11.250000	-4.044214
11.260000	72.523111
11.270000	99.822421
11.280000	129.165688
11.290000	145.192574
11.300000	35.226506
11.310000	-71.421555
11.320000	-98.842713
11.330000	-37.201636
11.340000	14.804386
11.350000	-1.525230
11.360000	-40.917422
11.370000	-40.121704
11.380000	-66.320843
11.390000	-223.142758
11.400000	-532.826313
11.410000	-853.707006
11.420000	-928.007346
11.430000	-854.245427
11.440000	-688.735810
11.450000	-599.087300
11.460000	-542.886297
11.470000	-488.291496
11.480000	-451.837351
11.490000	-382.980234
11.500000	-293.964043
11.510000	-172.271891
11.520000	-82.307331
11.530000	-26.733705
11.540000	9.390267
11.550000	55.168180
11.560000	87.601833
11.570000	128.515843
11.580000	173.061740
11.590000	276.682970
11.600000	416.960591
11.610000	623.310862
11.620000	739.667325
11.630000	812.812143
11.640000	862.615315
11.650000	943.054528
11.660000	989.216432
11.670000	1023.181090
11.680000	1006.294884
11.690000	723.800343
11.700000	378.829698
11.710000	105.203374
11.720000	182.404280
11.730000	319.678779
11.740000	483.322312
11.750000	567.592646
11.760000	620.297272
11.770000	636.328572
11.780000	641.322932
11.790000	707.156621
11.800000	765.260160
11.810000	833.852539
11.820000	808.488829
11.830000	771.020662
11.840000	728.805595
11.850000	750.649089
11.860000	803.800459
11.870000	832.837769
11.880000	829.212071
11.890000	815.732735
11.900000	852.678898
11.910000	872.226963
11.920000	879.629674
11.930000	887.022128
11.940000	912.544433
11.950000	908.248717
11.960000	911.973194
11.970000	918.634576
11.980000	900.281738
11.990000	966.339100
12.000000	1001.580035
12.010000	1132.981042
12.020000	1120.140233
12.030000	1181.151950
12.040000	1289.296433
12.050000	1547.613043
12.060000	1741.512748
12.070000	1879.952669
12.080000	1907.482075
12.090000	1961.751260
12.100000	1918.659757
12.110000	1861.044158
12.120000	1798.895286
12.130000	1887.994042
12.140000	1982.223488
12.150000	2069.566048
12.160000	1998.420727
12.170000	2035.203843
12.180000	1974.906079
12.190000	2230.787916
12.200000	2360.621810
12.210000	2673.681293
12.220000	2666.014400
12.230000	2867.322633
12.240000	2856.703539
12.250000	3085.933452
12.260000	2983.152246
12.270000	3163.373617
12.280000	2986.722238
12.290000	1198.901125
12.300000	-11915.753583
12.310000	-18102.129217
12.320000	-23653.460272
12.330000	-28777.159078
12.340000	-33282.402885
12.350000	-35961.274534
12.360000	-36242.462770
12.370000	-34005.740272
12.380000	-30262.074933
12.390000	-25522.612379
12.400000	-20320.504368
12.410000	-15194.559544
12.420000	-11012.769244
12.430000	-7915.233412
12.440000	-5335.182320
12.450000	-2980.774292
12.460000	-1019.301249
12.470000	-319.686605
12.480000	-1306.643991
12.490000	-938.855910
12.500000	-231.905524
12.510000	1171.636832
12.520000	834.047316
12.530000	496.833462
12.540000	410.129809
12.550000	474.295732
12.560000	539.969227
12.570000	54.878698
12.580000	-890.865863
12.590000	-2411.872309
12.600000	-3916.866735
12.610000	-5121.904791
12.620000	-4730.857756
12.630000	-3538.449610
12.640000	-2380.062869
12.650000	-2099.118336
12.660000	-2151.892637
12.670000	-1974.498935
12.680000	-1792.991980
12.690000	-1632.092506
12.700000	-1275.862284
12.710000	-560.928385
12.720000	475.953836
12.730000	1490.962476
12.740000	1979.566040
12.750000	1736.580365
12.760000	633.628073
12.770000	-905.378622
12.780000	-2229.780225
12.790000	-3107.579934
12.800000	-4156.614415
12.810000	-6085.789114
12.820000	-8668.302313
12.830000	-11073.763451
12.840000	-13215.789198
12.850000	-15225.422984
12.860000	-16314.505206
12.870000	-15922.460395
12.880000	-14746.427349
12.890000	-13268.323914
12.900000	-11758.517753
12.910000	-9427.023036
12.920000	-7119.848047
12.930000	-4941.430383
12.940000	-3416.409229
12.950000	-2160.081982
12.960000	-968.206244
12.970000	496.560133
12.980000	1750.337686
12.990000	35.555561
13.000000	-2894.796595
13.010000	-5850.392865
13.020000	-6140.205852
13.030000	-5421.011252
13.040000	-4725.962276
13.050000	-4178.856919
13.060000	-3970.626176
13.070000	-3699.128260
13.080000	-3425.281308
13.090000	-3032.964204
13.100000	-2876.276886
13.110000	-2587.197139
13.120000	-1971.127196
13.130000	-830.464935
13.140000	254.845770
13.150000	904.442956
13.160000	1135.540223
13.170000	1157.510136
13.180000	1108.673025
13.190000	1212.446525
13.200000	1393.288839
13.210000	1665.936967
13.220000	1761.433522
13.230000	1900.749713
13.240000	2086.624101
13.250000	2233.968456
13.260000	2323.310705
13.270000	2385.977767
13.280000	2459.333495
13.290000	2554.904265
13.300000	2635.880209
13.310000	2705.265313
13.320000	2709.933120
13.330000	2724.974031
13.340000	2748.104163
13.350000	2790.719418
13.360000	2789.069673
13.370000	2783.085515
13.380000	2821.396752
13.390000	2876.916372
13.400000	2893.986443
13.410000	2861.211565
13.420000	2870.203478
13.430000	2947.340324
13.440000	2992.086294
13.450000	2937.911785
13.460000	2858.705670
13.470000	2867.275934
13.480000	2876.797419
13.490000	2860.828143
13.500000	2858.091879
13.510000	2910.748351
13.520000	2986.876247
13.530000	3037.650303
13.540000	3037.420549
13.550000	3027.767951
13.560000	2990.499794
13.570000	2918.282595
13.580000	2866.118788
13.590000	2822.317284
13.600000	2836.276793
13.610000	2827.367376
13.620000	2778.650232
13.630000	2744.655545
13.640000	2659.402387
13.650000	2567.625422
13.660000	2479.438301
13.670000	2407.983678
13.680000	2378.555510
13.690000	2334.165037
13.700000	2352.426012
13.710000	2362.991425
13.720000	2320.417461
13.730000	2306.220186
13.740000	2299.850019
13.750000	2341.003617
13.760000	2321.934555
13.770000	2324.365442
13.780000	2359.551265
13.790000	2385.641492
13.800000	2390.644420
13.810000	2292.453741
13.820000	2195.980996
13.830000	2184.938501
13.840000	2291.574585
13.850000	2419.134922
13.860000	2429.454679
13.870000	2395.646124
13.880000	2382.380319
13.890000	2403.754706
13.900000	2395.828778
13.910000	2412.591874
13.920000	2461.889358
13.930000	2535.792069
13.940000	2563.517807
13.950000	2548.604353
13.960000	2568.090210
13.970000	2583.508906
13.980000	2579.135337
13.990000	2548.516590
14.000000	2531.051447
14.010000	2499.085858
14.020000	2443.765629
14.030000	2353.060175
14.040000	2268.708589
14.050000	2223.759024
14.060000	2160.484588
14.070000	2141.538143
14.080000	2126.059851
14.090000	2189.052974
14.100000	2211.186081
14.110000	2164.905158
14.120000	2080.222910
14.130000	2043.665578
14.140000	2040.401554
14.150000	2007.046683
14.160000	1933.481020
14.170000	1849.960354
14.180000	1743.864861
14.190000	1438.512674
14.200000	1109.305426
14.210000	805.809509
14.220000	745.965664
14.230000	743.754472
14.240000	757.446919
14.250000	729.079966
14.260000	775.500487
14.270000	879.463079
14.280000	930.724936
14.290000	880.775769
14.300000	778.310103
14.310000	770.452918
14.320000	797.421464
14.330000	846.688037
14.340000	871.199873
14.350000	877.499253
14.360000	793.859220
14.370000	722.217039
14.380000	616.876340
14.390000	320.057240
14.400000	-46.240847
14.410000	-387.747803
14.420000	-489.595561
14.430000	-570.645883
14.440000	-710.803391
14.450000	-787.555787
14.460000	-800.915188
14.470000	-754.041442
14.480000	-760.898079
14.490000	-763.621578
14.500000	-714.140598
14.510000	-666.046649
14.520000	-614.788772
14.530000	-577.763650
14.540000	-552.948222
14.550000	-485.566668
14.560000	-438.661799
14.570000	-390.032373
14.580000	-338.663331
14.590000	-243.283558
14.600000	-64.900112
14.610000	66.104788
14.620000	148.656719
14.630000	258.141989
14.640000	366.034054
14.650000	482.057215
14.660000	495.854933
14.670000	506.320906
14.680000	601.085672
14.690000	759.060501
14.700000	915.638438
14.710000	972.148463
14.720000	1003.443430
14.730000	1013.484376
14.740000	1003.350192
14.750000	1088.912279
14.760000	1226.596072
14.770000	1472.725282
14.780000	1594.826470
14.790000	1665.821787
14.800000	1686.971736
14.810000	1789.386933
14.820000	1954.819068
14.830000	2054.093322
14.840000	2072.092520
14.850000	1995.584666
14.860000	1969.914875
14.870000	2003.480135
14.880000	2133.931397
14.890000	2236.376530
14.900000	2285.669442
14.910000	2283.460938
14.920000	2254.251495
14.930000	2189.903779
14.940000	2151.471806
14.950000	2162.692472
14.960000	2207.698469
14.970000	2252.881000
14.980000	2384.035068
14.990000	2502.344539
15.000000	2571.993488
15.010000	2586.337029
15.020000	2637.672521
15.030000	2695.440960
15.040000	2699.719776
15.050000	2741.742237
15.060000	2784.864625
15.070000	2812.547497
15.080000	2802.107963
15.090000	2764.560585
15.100000	2750.241136
15.110000	2742.839006
15.120000	2751.893553
15.130000	2830.685654
15.140000	2923.360802
15.150000	3016.429718
15.160000	3051.151278
15.170000	3070.567292
15.180000	3186.577923
15.190000	3284.195147
15.200000	3333.685220
15.210000	3307.274577
15.220000	3275.508425
15.230000	3323.840479
15.240000	3337.894609
15.250000	3333.542222
15.260000	3296.308478
15.270000	3297.924677
15.280000	3306.548033
15.290000	3338.883497
15.300000	3348.389746
15.310000	3337.418632
15.320000	3295.972369
15.330000	3248.823545
15.340000	3246.064910
15.350000	3257.781826
15.360000	3284.012219
15.370000	3302.784859
15.380000	3322.146523
15.390000	3337.189520
15.400000	3369.790908
15.410000	3395.569594
15.420000	3440.341558
15.430000	3484.258554
15.440000	3499.637550
15.450000	3494.478247
15.460000	3479.038318
15.470000	3474.492321
15.480000	3499.529123
15.490000	3515.110489
15.500000	3453.034900
15.510000	3372.840311
15.520000	3309.232329
15.530000	3318.387988
15.540000	3287.389883
15.550000	3286.529067
15.560000	3306.752016
15.570000	3384.884273
15.580000	3418.819600
15.590000	3333.399432
15.600000	3218.425081
15.610000	3063.389436
15.620000	3013.540878
15.630000	2997.532555
15.640000	3011.254825
15.650000	2991.926786
15.660000	2931.530202
15.670000	2902.952998
15.680000	2892.309071
15.690000	2706.561022
15.700000	2518.164349
15.710000	2353.840000
15.720000	2366.101673
15.730000	2353.548779
15.740000	2306.298826
15.750000	2281.507436
15.760000	2213.890703
15.770000	2188.274642
15.780000	2192.945587
15.790000	2262.228341
15.800000	2196.082017
15.810000	2088.045487
15.820000	1999.519129
15.830000	2021.999410
15.840000	2083.559988
15.850000	2111.335158
15.860000	2143.288110
15.870000	2171.593118
15.880000	2211.793491
15.890000	2217.392173
15.900000	2163.735433
15.910000	2174.306388
15.920000	2256.732504
15.930000	2375.807992
15.940000	2421.226690
15.950000	2462.170963
15.960000	2506.586060
15.970000	2560.560516
15.980000	2548.751748
15.990000	2541.378114
16.000000	2572.177081
16.010000	2627.089189
16.020000	2674.911646
16.030000	2671.452449
16.040000	2653.889088
16.050000	2638.776638
16.060000	2646.559612
16.070000	2694.439131
16.080000	2723.366051
16.090000	2726.922969
16.100000	2728.596174
16.110000	2777.817699
16.120000	2813.192928
16.130000	2809.480798
16.140000	2800.953572
16.150000	2818.132036
16.160000	2793.106973
16.170000	2734.320724
16.180000	2639.222550
16.190000	2577.364424
16.200000	2477.940858
16.210000	2443.537162
16.220000	2382.777135
16.230000	2373.489877
16.240000	2299.393374
16.250000	2296.446338
16.260000	2230.242480
16.270000	2164.252879
16.280000	1934.437773
16.290000	-505.474754
16.300000	-5715.065565
16.310000	-18594.019724
16.320000	-33040.521814
16.330000	-39259.873837
16.340000	-41289.075647
16.350000	-39078.188062
16.360000	-36111.187035
16.370000	-33004.339364
16.380000	-29043.692763
16.390000	-20420.298609
16.400000	-13513.947166
16.410000	-8814.135048
16.420000	-5775.087528
16.430000	-3791.661078
16.440000	-2678.638585
16.450000	-1921.667822
16.460000	-1312.080799
16.470000	-663.119828
16.480000	-182.658816
16.490000	-410.201422
16.500000	-1339.122412
16.510000	-2465.302323
16.520000	-3661.674131
16.530000	-5050.808194
16.540000	-7150.698018
16.550000	-9931.863254
16.560000	-13103.055866
16.570000	-16109.915262
16.580000	-17141.348226
16.590000	-14843.609501
16.600000	-10369.732629
16.610000	-6035.489948
16.620000	-3357.450663
16.630000	-1851.868170
16.640000	-1056.098620
16.650000	-769.014977
16.660000	-713.253614
16.670000	-778.336015
16.680000	-509.511675
16.690000	-82.102327
16.700000	301.775845
16.710000	383.930427
16.720000	295.085211
16.730000	132.157899
16.740000	2.711961
16.750000	-194.232026
16.760000	-410.963614
16.770000	-1179.257022
16.780000	-2640.610165
16.790000	-4569.984284
16.800000	-5797.369680
16.810000	-5027.742644
16.820000	-3599.068055
16.830000	-2422.033955
16.840000	-2418.168680
16.850000	-2518.897727
16.860000	-2458.846386
16.870000	-2243.876756
16.880000	-1751.875451
16.890000	-1614.628503
16.900000	-2067.851298
16.910000	-3033.218195
16.920000	-3882.349380
16.930000	-4731.886315
16.940000	-6133.072451
16.950000	-8470.126136
16.960000	-11402.835360
16.970000	-14525.213895
16.980000	-17319.652611
16.990000	-18195.046399
17.000000	-16971.036603
17.010000	-14617.060994
17.020000	-12381.208652
17.030000	-10674.464336
17.040000	-8830.107058
17.050000	-7352.101105
17.060000	-6050.114874
17.070000	-5016.863201
17.080000	-4210.098114
17.090000	-3712.980671
17.100000	-3308.265314
17.110000	-2656.436124
17.120000	-1444.510600
17.130000	-16.699869
17.140000	961.025750
17.150000	1347.478419
17.160000	1328.797113
17.170000	1346.362371
17.180000	1346.883079
17.190000	1399.591388
17.200000	1448.301736
17.210000	1414.103756
17.220000	1299.291124
17.230000	1088.584143
17.240000	951.472862
17.250000	886.615435
17.260000	914.068712
17.270000	898.911632
17.280000	821.674109
17.290000	763.177622
17.300000	799.295458
17.310000	891.159879
17.320000	986.914410
17.330000	1075.957251
17.340000	1185.340442
17.350000	1245.862431
17.360000	1341.561377
17.370000	1364.282257
17.380000	1391.001802
17.390000	1747.097164
17.400000	2140.126649
17.410000	2595.501520
17.420000	2683.051771
17.430000	2775.831999
17.440000	2838.242928
17.450000	2785.083086
17.460000	2746.082982
17.470000	2715.689553
17.480000	2776.894872
17.490000	2783.730812
17.500000	2815.056239
17.510000	2812.462000
17.520000	2833.604960
17.530000	2832.980023
17.540000	2897.589387
17.550000	3008.948319
17.560000	3083.135641
17.570000	3133.259535
17.580000	3139.669860
17.590000	3225.375343
17.600000	3304.043353
17.610000	3396.200350
17.620000	3418.883077
17.630000	3408.772527
17.640000	3420.191208
17.650000	3447.601621
17.660000	3483.917767
17.670000	3479.404254
17.680000	3455.264488
17.690000	3402.884940
17.700000	3382.227436
17.710000	3413.351823
17.720000	3463.475599
17.730000	3428.721660
17.740000	3354.900960
17.750000	3292.204089
17.760000	3309.479267
17.770000	3342.757880
17.780000	3333.844015
17.790000	3274.888280
17.800000	3209.456028
17.810000	3159.399464
17.820000	3132.470750
17.830000	3118.971816
17.840000	3118.287158
17.850000	3116.953243
17.860000	3087.844675
17.870000	3070.898410
17.880000	3073.092112
17.890000	3047.142537
17.900000	2988.238385
17.910000	2951.333838
17.920000	2902.925548
17.930000	2852.093411
17.940000	2787.341630
17.950000	2773.181274
17.960000	2730.817725
17.970000	2594.760019
17.980000	2433.784317
17.990000	2104.879494
18.000000	1853.273672
18.010000	1597.893192
18.020000	1574.424120
18.030000	1523.004223
18.040000	1510.932165
18.050000	1528.697273
18.060000	1540.494916
18.070000	1486.785993
18.080000	1400.773842
18.090000	1526.916975
18.100000	1662.955096
18.110000	1855.862336
18.120000	1922.635091
18.130000	2019.202872
18.140000	2059.114170
18.150000	2057.621401
18.160000	2069.835220
18.170000	2087.666006
18.180000	2125.083667
18.190000	2182.473914
18.200000	2235.064084
18.210000	2242.707775
18.220000	2239.049115
18.230000	2249.387742
18.240000	2253.712456
18.250000	2244.906272
18.260000	2246.931347
18.270000	2274.536713
18.280000	2354.320343
18.290000	2522.331005
18.300000	2666.440572
18.310000	2739.107870
18.320000	2703.729643
18.330000	2658.059494
18.340000	2682.443561
18.350000	2768.239600
18.360000	2933.704475
18.370000	3029.432526
18.380000	3059.861435
18.390000	3080.907180
18.400000	3099.023029
18.410000	3110.160274
18.420000	3156.117943
18.430000	3221.731065
18.440000	3246.896991
18.450000	3264.364489
18.460000	3305.145577
18.470000	3429.218460
18.480000	3463.227609
18.490000	3471.867203
18.500000	3461.958254
18.510000	3512.855995
18.520000	3596.868956
18.530000	3626.487780
18.540000	3597.147955
18.550000	3551.723514
18.560000	3571.673070
18.570000	3573.980778
18.580000	3596.336089
18.590000	3613.872355
18.600000	3690.716059
18.610000	3760.544541
18.620000	3744.199356
18.630000	3700.734579
18.640000	3661.076610
18.650000	3736.616447
18.660000	3802.107673
18.670000	3832.577043
18.680000	3839.040448
18.690000	3863.090673
18.700000	3833.130889
18.710000	3745.926755
18.720000	3697.628436
18.730000	3700.666460
18.740000	3748.540289
18.750000	3781.726213
18.760000	3849.549472
18.770000	3926.043540
18.780000	3989.032745
18.790000	3944.961112
18.800000	3864.429109
18.810000	3793.606373
18.820000	3818.395271
18.830000	3865.273621
18.840000	3882.547072
18.850000	3894.608006
18.860000	3904.096404
18.870000	3900.362256
18.880000	3912.209533
18.890000	3934.477697
18.900000	3991.189645
18.910000	4020.142133
18.920000	4029.481101
18.930000	4076.725912
18.940000	4117.274728
18.950000	4127.482133
18.960000	4090.868454
18.970000	4066.892853
18.980000	4078.138979
18.990000	4037.111437
19.000000	3905.988239
19.010000	3759.747549
19.020000	3702.356885
19.030000	3733.201539
19.040000	3699.745390
19.050000	3618.555754
19.060000	3569.074309
19.070000	3558.143561
19.080000	3525.316647
19.090000	3437.570142
19.100000	3388.000703
19.110000	3367.476442
19.120000	3350.732768
19.130000	3302.780152
19.140000	3181.200330
19.150000	3038.766305
19.160000	2899.341219
19.170000	2829.621218
19.180000	2821.693340
19.190000	2799.369774
19.200000	2774.700641
19.210000	2700.700661
19.220000	2624.375534
19.230000	2592.438460
19.240000	2627.389902
19.250000	2700.105357
19.260000	2728.995958
19.270000	2746.820315
19.280000	2735.193736
19.290000	2757.824450
19.300000	2774.835542
19.310000	2717.475957
19.320000	2608.787601
19.330000	2456.474918
19.340000	2392.802781
19.350000	2405.462548
19.360000	2478.525163
19.370000	2574.773568
19.380000	2548.997490
19.390000	2503.809824
19.400000	2438.227856
19.410000	2366.261148
19.420000	2269.073199
19.430000	2173.206921
19.440000	2127.012856
19.450000	2054.510217
19.460000	1968.560110
19.470000	1817.664898
19.480000	1586.900519
19.490000	1543.284529
19.500000	1690.873791
19.510000	1977.435846
19.520000	2114.549148
19.530000	2171.919413
19.540000	2246.311938
19.550000	2379.930707
19.560000	2505.783521
19.570000	2617.782431
19.580000	2705.580988
19.590000	2811.781578
19.600000	2844.675954
19.610000	2848.819088
19.620000	2886.815631
19.630000	3097.057570
19.640000	3488.924775
19.650000	3907.165329
19.660000	4183.650962
19.670000	4290.976269
19.680000	4291.270647
19.690000	4180.584187
19.700000	3999.321483
19.710000	3841.312334
19.720000	3686.697697
19.730000	3663.749081
19.740000	3626.285945
19.750000	3686.859692
19.760000	3656.673802
19.770000	3723.629571
19.780000	3701.656486
19.790000	3787.068977
19.800000	3733.372862
19.810000	3881.736269
19.820000	3826.983748
19.830000	4020.029825
19.840000	4098.299130
19.850000	4482.744709
19.860000	4696.749050
19.870000	5249.764808
19.880000	5612.941178
19.890000	6211.997751
19.900000	6347.297165
19.910000	6784.172740
19.920000	6707.561153
19.930000	7079.139941
19.940000	6694.785736
19.950000	6202.099000
19.960000	4047.534119
19.970000	2437.618209
19.980000	579.941904
19.990000	-1618.820129
20.000000	-18271.964894
20.010000	-13832.354262
20.020000	-7828.425003
20.030000	-3131.169325
20.040000	-657.775643
20.050000	1723.066854
20.060000	2201.506032
20.070000	2589.116894
20.080000	2007.597348
20.090000	-711.707088
20.100000	-3047.794865
20.110000	-3693.516940
20.120000	-843.776418
20.130000	1201.148717
20.140000	2187.869463
20.150000	3227.404430
20.160000	3343.288108
20.170000	3663.275985
20.180000	3262.235006
20.190000	3288.673157
20.200000	3167.274350
20.210000	3871.815586
20.220000	4162.053419
20.230000	4263.133636
20.240000	3420.622917
20.250000	2334.256661
20.260000	1120.063595
20.270000	399.572485
20.280000	-321.091513
20.290000	-1293.648835
20.300000	-3084.315975
20.310000	-4804.750657
20.320000	-5130.889234
20.330000	-4735.886826
20.340000	-4155.303350
20.350000	-3964.353925
20.360000	-3326.064008
20.370000	-1862.978209
20.380000	-178.750936
20.390000	1482.149314
20.400000	2375.618656
20.410000	2260.751248
20.420000	1365.699084
20.430000	275.419222
20.440000	-358.955846
20.450000	-418.628518
20.460000	54.023088
20.470000	637.355433
20.480000	1113.298016
20.490000	1320.228115
20.500000	1129.059491
20.510000	654.497723
20.520000	306.021393
20.530000	-87.773826
20.540000	-955.672536
20.550000	-3634.825723
20.560000	-7484.556194
20.570000	-10469.004145
20.580000	-10875.957099
20.590000	-7756.243090
20.600000	-4720.516410
20.610000	-3485.584615
20.620000	-4976.541685
20.630000	-7244.676403
20.640000	-9512.095642
20.650000	-12565.046682
20.660000	-16119.361558
20.670000	-19040.068179
20.680000	-20279.858932
20.690000	-21053.963820
20.700000	-21963.331506
20.710000	-23688.743428
20.720000	-25117.545172
20.730000	-26622.605430
20.740000	-27685.648782
20.750000	-28447.283065
20.760000	-28745.261465
20.770000	-29162.683491
20.780000	-29214.283355
20.790000	-26466.217251
20.800000	-21977.458716
20.810000	-18564.201291
20.820000	-17216.986705
20.830000	-16303.225920
20.840000	-15171.004486
20.850000	-14325.777020
20.860000	-13408.328470
20.870000	-13012.292926
20.880000	-12325.806445
20.890000	-10952.296904
20.900000	-9430.868161
20.910000	-8411.619231
20.920000	-8250.802554
20.930000	-8214.961198
20.940000	-7863.219290
20.950000	-7487.326878
20.960000	-6982.557945
20.970000	-6592.659857
20.980000	-6138.411014
20.990000	-5700.047484
21.000000	-5157.722425
21.010000	-4727.698630
21.020000	-4377.356413
21.030000	-4199.031544
21.040000	-3947.400617
21.050000	-3719.976065
21.060000	-3457.015223
21.070000	-3164.101297
21.080000	-2768.748982
21.090000	-2340.950359
21.100000	-1906.693298
21.110000	-1527.226579
21.120000	-1185.752442
21.130000	-968.781267
21.140000	-817.740020
21.150000	-725.803852
21.160000	-640.928008
21.170000	-544.909499
21.180000	-527.735428
21.190000	-523.574957
21.200000	-528.365770
21.210000	-497.113418
21.220000	-470.214891
21.230000	-506.351826
21.240000	-462.157611
21.250000	-378.410018
21.260000	-251.959171
21.270000	-157.326500
21.280000	-20.329401
21.290000	127.824992
21.300000	230.923658
21.310000	217.293860
21.320000	221.437362
21.330000	206.320496
21.340000	196.483617
21.350000	210.027408
21.360000	241.497668
21.370000	281.757892
21.380000	325.891521
21.390000	398.940059
21.400000	522.981156
21.410000	611.194908
21.420000	703.458403
21.430000	821.106304
21.440000	1062.188338
21.450000	1291.754239
21.460000	1483.928849
21.470000	1600.747790
21.480000	1761.481188
21.490000	2269.962707
21.500000	2777.289652
21.510000	3255.108071
21.520000	3342.569370
21.530000	3370.538844
21.540000	3374.758480
21.550000	3406.733934
21.560000	3471.207868
21.570000	3534.212427
21.580000	3595.808095
21.590000	3558.147018
21.600000	3531.372204
21.610000	3511.829263
21.620000	3559.171300
21.630000	3569.457503
21.640000	3601.480194
21.650000	3594.153494
21.660000	3650.303768
21.670000	3673.701366
21.680000	3701.894141
21.690000	3671.037536
21.700000	3600.781337
21.710000	3523.142535
21.720000	3426.283620
21.730000	3356.476660
21.740000	3330.775807
21.750000	3369.223087
21.760000	3411.786080
21.770000	3383.333291
21.780000	3307.807595
21.790000	3270.685489
21.800000	3275.343774
21.810000	3344.498107
21.820000	3393.659943
21.830000	3497.155131
21.840000	3573.623806
21.850000	3629.462213
21.860000	3683.364186
21.870000	3725.768119
21.880000	3790.634198
21.890000	3827.586128
21.900000	3836.452795
21.910000	3823.165185
21.920000	3809.058228
21.930000	3773.373374
21.940000	3726.494131
21.950000	3698.046184
21.960000	3742.075689
21.970000	3795.810179
21.980000	3827.822140
21.990000	3840.412355
22.000000	3816.594545
22.010000	3796.918177
22.020000	3763.284826
22.030000	3782.402532
22.040000	3782.339884
22.050000	3763.497711
22.060000	3734.162001
22.070000	3706.348421
22.080000	3693.399578
22.090000	3684.878807
22.100000	3674.058813
22.110000	3661.172906
22.120000	3631.755373
22.130000	3601.293385
22.140000	3572.159750
22.150000	3554.177864
22.160000	3524.216831
22.170000	3462.481042
22.180000	3379.767108
22.190000	3220.343615
22.200000	3116.909968
22.210000	3066.575058
22.220000	3139.661411
22.230000	3206.998940
22.240000	3271.181291
22.250000	3307.420311
22.260000	3366.313723
22.270000	3404.321409
22.280000	3411.275529
22.290000	3412.390142
22.300000	3418.267045
22.310000	3467.605258
22.320000	3440.224077
22.330000	3405.408638
22.340000	3385.786812
22.350000	3357.149842
22.360000	3357.586377
22.370000	3369.803902
22.380000	3417.228627
22.390000	3400.183229
22.400000	3347.285807
22.410000	3324.058960
22.420000	3342.256148
22.430000	3334.443820
22.440000	3276.069983
22.450000	3262.883884
22.460000	3277.296361
22.470000	3320.765796
22.480000	3265.222190
22.490000	3192.612067
22.500000	3184.867814
22.510000	3246.631503
22.520000	3260.228529
22.530000	3231.038869
22.540000	3164.638623
22.550000	3150.056484
22.560000	3131.698053
22.570000	3147.376033
22.580000	3207.392783
22.590000	3258.898443
22.600000	3243.781478
22.610000	3172.315844
22.620000	3129.748651
22.630000	3145.618172
22.640000	3290.531916
22.650000	3394.294410
22.660000	3498.932007
22.670000	3519.320658
22.680000	3484.677323
22.690000	3403.987771
22.700000	3305.503884
22.710000	3253.781468
22.720000	3230.795692
22.730000	3193.864670
22.740000	3170.636375
22.750000	3121.784759
22.760000	3111.447170
22.770000	3179.990591
22.780000	3254.629950
22.790000	3259.870126
22.800000	3104.114680
22.810000	3004.943353
22.820000	2980.059941
22.830000	3029.308667
22.840000	3054.074198
22.850000	3096.397993
22.860000	3152.966484
22.870000	3187.063068
22.880000	3181.912575
22.890000	3152.479207
22.900000	3121.876438
22.910000	2986.540954
22.920000	2827.338514
22.930000	2717.237453
22.940000	2674.304332
22.950000	2645.725213
22.960000	2566.888408
22.970000	2506.561343
22.980000	2464.262343
22.990000	2418.651582
23.000000	2383.040841
23.010000	2356.677223
23.020000	2328.095240
23.030000	2312.078228
23.040000	2313.423414
23.050000	2304.355556
23.060000	2319.219224
23.070000	2327.416087
23.080000	2368.166244
23.090000	2352.414942
23.100000	2323.766105
23.110000	2324.362764
23.120000	2309.077064
23.130000	2264.011624
23.140000	2204.414455
23.150000	2196.411043
23.160000	2221.126963
23.170000	2181.201213
23.180000	2108.799277
23.190000	2041.274064
23.200000	2037.129151
23.210000	2015.895710
23.220000	1979.948063
23.230000	1964.867727
23.240000	1966.581544
23.250000	1945.663769
23.260000	1869.820029
23.270000	1839.741430
23.280000	1856.365166
23.290000	1902.681356
23.300000	1902.323078
23.310000	1910.890443
23.320000	1908.979245
23.330000	1929.478295
23.340000	1886.207717
23.350000	1847.721324
23.360000	1788.405248
23.370000	1750.709824
23.380000	1752.758643
23.390000	1770.803472
23.400000	1815.423938
23.410000	1759.066127
23.420000	1657.137591
23.430000	1516.739375
23.440000	1421.936655
23.450000	1368.374536
23.460000	1302.803590
23.470000	1261.789268
23.480000	1239.751706
23.490000	1289.558841
23.500000	1294.091281
23.510000	1297.293152
23.520000	1244.345978
23.530000	1232.629208
23.540000	1241.791708
23.550000	1315.653231
23.560000	1407.832061
23.570000	1484.885802
23.580000	1706.907618
23.590000	2104.931506
23.600000	1968.778932
23.610000	806.739409
23.620000	-603.704398
23.630000	-864.257575
23.640000	669.228205
23.650000	2240.971689
23.660000	2184.220414
23.670000	319.097091
23.680000	-2940.346548
23.690000	-6376.764412
23.700000	-10132.176426
23.710000	-14056.021046
23.720000	-17680.670224
23.730000	-20400.770150
23.740000	-19415.340203
23.750000	-15195.407098
23.760000	-8812.062534
23.770000	-4393.732523
23.780000	-1820.669981
23.790000	-97.398995
23.800000	810.691559
23.810000	1312.406977
23.820000	1314.784283
23.830000	1327.976750
23.840000	1138.661852
23.850000	1142.990367
23.860000	907.027353
23.870000	516.196205
23.880000	277.765865
23.890000	-290.003407
23.900000	-1153.988634
23.910000	-2880.425065
23.920000	-5382.193248
23.930000	-8430.370582
23.940000	-12459.134490
23.950000	-16379.048757
23.960000	-19920.914569
23.970000	-21881.750091
23.980000	-20939.958498
23.990000	-16745.961085
24.000000	-8233.265869
24.010000	-3370.125921
24.020000	-705.867702
24.030000	698.949267
24.040000	689.688463
24.050000	610.207568
24.060000	6.372476
24.070000	-100.082266
24.080000	-712.775909
24.090000	-2719.409834
24.100000	-16957.162110
24.110000	-15343.977668
24.120000	-11174.339304
24.130000	-6158.358379
24.140000	-2660.443560
24.150000	-106.612722
24.160000	557.332926
24.170000	813.856394
24.180000	200.153085
24.190000	-1223.184662
24.200000	-3357.203336
24.210000	-5349.104720
24.220000	-5889.255392
24.230000	-4453.800867
24.240000	-2571.563995
24.250000	-363.249022
24.260000	435.738886
24.270000	1287.463872
24.280000	1222.073868
24.290000	1365.978429
24.300000	886.404504
24.310000	711.705987
24.320000	398.008040
24.330000	907.670258
24.340000	989.572355
24.350000	1251.780407
24.360000	446.745442
24.370000	85.839367
24.380000	-1329.310873
24.390000	-3856.615033
24.400000	-25423.148640
24.410000	-25212.656594
24.420000	-23931.277198
24.430000	-22221.484236
24.440000	-20562.106411
24.450000	-17668.435555
24.460000	-14640.452904
24.470000	-10879.355315
24.480000	-7975.446178
24.490000	-5295.802918
24.500000	-3748.639528
24.510000	-2441.271187
24.520000	-1866.270936
24.530000	-1268.946773
24.540000	-1014.611209
24.550000	-444.776086
24.560000	26.804878
24.570000	582.400005
24.580000	844.719513
24.590000	1150.907459
24.600000	1279.469286
24.610000	1458.686763
24.620000	1476.379488
24.630000	1558.038701
24.640000	1441.989187
24.650000	1258.170769
24.660000	926.727515
24.670000	696.243412
24.680000	526.377746
24.690000	509.720244
24.700000	497.069924
24.710000	658.446837
24.720000	810.163898
24.730000	989.152936
24.740000	1098.597691
24.750000	1282.227149
24.760000	1426.365539
24.770000	1467.146127
24.780000	1368.584845
24.790000	1263.570711
24.800000	1213.984471
24.810000	1274.684915
24.820000	1357.366675
24.830000	1350.110259
24.840000	1263.461436
24.850000	1145.347997
24.860000	1064.991254
24.870000	960.268404
24.880000	857.139916
24.890000	846.076405
24.900000	837.504641
24.910000	853.902882
24.920000	803.265793
24.930000	807.026587
24.940000	862.396898
24.950000	918.730113
24.960000	1019.163647
24.970000	1181.408648
24.980000	1436.344853
24.990000	1629.289249
25.000000	1600.557484
25.010000	1492.377660
25.020000	1406.704833
25.030000	1394.036808
25.040000	1437.378939
25.050000	1442.195166
25.060000	1435.766517
25.070000	1393.590223
25.080000	1352.033567
25.090000	1265.472388
25.100000	1083.332667
25.110000	880.745457
25.120000	749.723773
25.130000	662.067309
25.140000	478.522133
25.150000	177.090126
25.160000	-127.926263
25.170000	-276.382295
25.180000	-303.866768
25.190000	-387.865656
25.200000	-550.000419
25.210000	-701.667546
25.220000	-704.619013
25.230000	-532.063544
25.240000	-334.679711
25.250000	-238.011861
25.260000	-260.400662
25.270000	-296.575375
25.280000	-266.813163
25.290000	-177.998147
25.300000	-103.028365
25.310000	-115.711476
25.320000	-198.614360
25.330000	-273.545990
25.340000	-230.735012
25.350000	-128.129215
25.360000	-6.429683
25.370000	80.296130
25.380000	124.047458
25.390000	112.755593
25.400000	0.476855
25.410000	-89.608464
25.420000	-110.591260
25.430000	-57.041138
25.440000	-42.607793
25.450000	-77.477658
25.460000	-70.968627
25.470000	-6.405449
25.480000	43.804533
25.490000	48.730024
