Time(s)	RED_denoised_wiener
0.000000	-208.759142
0.010000	-283.235452
0.020000	-225.529945
0.030000	-169.707327
0.040000	-132.674819
0.050000	-111.445478
0.060000	-94.115571
0.070000	-63.823162
0.080000	-21.257128
0.090000	30.808041
0.100000	67.555941
0.110000	84.176577
0.120000	75.718224
0.130000	70.319485
0.140000	87.540982
0.150000	136.785747
0.160000	177.912800
0.170000	181.634169
0.180000	127.996488
0.190000	-2.496041
0.200000	-121.937513
0.210000	-199.428287
0.220000	-201.843654
0.230000	-196.948673
0.240000	-198.578832
0.250000	-188.022944
0.260000	-171.023903
0.270000	-140.036228
0.280000	-101.482296
0.290000	-60.019069
0.300000	-23.255985
0.310000	10.383355
0.320000	38.988004
0.330000	76.523862
0.340000	118.208866
0.350000	166.713760
0.360000	210.419956
0.370000	254.646872
0.380000	300.316212
0.390000	341.592555
0.400000	377.256826
0.410000	413.925319
0.420000	458.564507
0.430000	509.601275
0.440000	557.885231
0.450000	596.317257
0.460000	630.275150
0.470000	662.728750
0.480000	701.380719
0.490000	743.481375
0.500000	783.515719
0.510000	801.899565
0.520000	784.370052
0.530000	726.048754
0.540000	638.976579
0.550000	545.599406
0.560000	472.300630
0.570000	432.154032
0.580000	413.598032
0.590000	408.760287
0.600000	407.932365
0.610000	419.458573
0.620000	436.601530
0.630000	455.875850
0.640000	467.965205
0.650000	467.013620
0.660000	456.064776
0.670000	445.216009
0.680000	439.863803
0.690000	439.113940
0.700000	443.713944
0.710000	453.055200
0.720000	473.631088
0.730000	493.660874
0.740000	520.315331
0.750000	552.626344
0.760000	587.375976
0.770000	620.973803
0.780000	659.847576
0.790000	708.700387
0.800000	770.699238
0.810000	824.410767
0.820000	871.666572
0.830000	912.501725
0.840000	952.702281
0.850000	994.302018
0.860000	1025.419802
0.870000	1058.222106
0.880000	1088.479748
0.890000	1125.567387
0.900000	1151.853714
0.910000	1149.634352
0.920000	1113.985016
0.930000	1052.123912
0.940000	970.169546
0.950000	883.027517
0.960000	808.752961
0.970000	764.652952
0.980000	744.663046
0.990000	735.984394
1.000000	744.683084
1.010000	763.337224
1.020000	788.439266
1.030000	804.048253
1.040000	817.652429
1.050000	817.098243
1.060000	814.993449
1.070000	804.822491
1.080000	800.116573
1.090000	797.561108
1.100000	803.995141
1.110000	815.665101
1.120000	831.943674
1.130000	842.804896
1.140000	857.339897
1.150000	871.637723
1.160000	895.168503
1.170000	916.475589
1.180000	943.446299
1.190000	1058.581318
1.200000	1182.342174
1.210000	1288.563633
1.220000	1275.092857
1.230000	1217.765165
1.240000	1136.754526
1.250000	1032.309333
1.260000	933.893959
1.270000	841.169313
1.280000	785.184081
1.290000	745.953745
1.300000	726.602422
1.310000	711.752236
1.320000	710.486280
1.330000	716.239533
1.340000	726.112103
1.350000	730.774511
1.360000	725.816883
1.370000	714.061565
1.380000	693.574239
1.390000	677.789897
1.400000	656.332013
1.410000	643.652323
1.420000	635.771812
1.430000	638.942234
1.440000	647.244305
1.450000	659.979340
1.460000	680.126483
1.470000	701.724867
1.480000	723.086761
1.490000	748.553364
1.500000	773.087738
1.510000	803.815097
1.520000	833.114747
1.530000	867.515591
1.540000	893.152333
1.550000	921.686140
1.560000	949.213798
1.570000	984.625129
1.580000	1008.932001
1.590000	892.660634
1.600000	736.348579
1.610000	570.904851
1.620000	522.092280
1.630000	496.279727
1.640000	474.106518
1.650000	469.813410
1.660000	474.122644
1.670000	480.755108
1.680000	479.527786
1.690000	473.800365
1.700000	453.629375
1.710000	432.977551
1.720000	407.747577
1.730000	390.266007
1.740000	377.222267
1.750000	368.295386
1.760000	376.131890
1.770000	384.310847
1.780000	395.493106
1.790000	485.927537
1.800000	583.846827
1.810000	682.454977
1.820000	702.400158
1.830000	717.802749
1.840000	738.174760
1.850000	758.175026
1.860000	783.377883
1.870000	795.212761
1.880000	782.666767
1.890000	728.297734
1.900000	634.742249
1.910000	517.148402
1.920000	403.918678
1.930000	320.054144
1.940000	263.418191
1.950000	230.687449
1.960000	215.974684
1.970000	213.384618
1.980000	222.610274
1.990000	226.432278
2.000000	231.040295
2.010000	225.496223
2.020000	212.571155
2.030000	192.282312
2.040000	174.191123
2.050000	162.783877
2.060000	158.195072
2.070000	159.010305
2.080000	165.933807
2.090000	177.626603
2.100000	183.041207
2.110000	203.393359
2.120000	226.786016
2.130000	261.610704
2.140000	283.502232
2.150000	314.683893
2.160000	341.848585
2.170000	377.221437
2.180000	402.839423
2.190000	320.265185
2.200000	221.747727
2.210000	120.819627
2.220000	112.606855
2.230000	106.256479
2.240000	81.051658
2.250000	66.557633
2.260000	50.774989
2.270000	50.998424
2.280000	49.461023
2.290000	60.252203
2.300000	73.473152
2.310000	100.623222
2.320000	124.798894
2.330000	152.449827
2.340000	180.155459
2.350000	213.024276
2.360000	244.871911
2.370000	279.015544
2.380000	316.973961
2.390000	354.381000
2.400000	389.473325
2.410000	425.149235
2.420000	466.702385
2.430000	500.588655
2.440000	531.036321
2.450000	563.086169
2.460000	595.742670
2.470000	624.629853
2.480000	648.847142
2.490000	669.901848
2.500000	669.284787
2.510000	631.904492
2.520000	543.779851
2.530000	423.049496
2.540000	291.338398
2.550000	179.607147
2.560000	96.890158
2.570000	45.532953
2.580000	8.441478
2.590000	-29.483051
2.600000	-59.556079
2.610000	-70.105291
2.620000	-58.192309
2.630000	-39.059057
2.640000	-21.760047
2.650000	4.760333
2.660000	29.663095
2.670000	59.344501
2.680000	88.437794
2.690000	119.333600
2.700000	156.267610
2.710000	187.996658
2.720000	222.867462
2.730000	259.014319
2.740000	295.518989
2.750000	329.074247
2.760000	359.561186
2.770000	388.520394
2.780000	423.334170
2.790000	455.972031
2.800000	489.852833
2.810000	522.454657
2.820000	553.758748
2.830000	585.655973
2.840000	597.983935
2.850000	582.268963
2.860000	522.233649
2.870000	424.657629
2.880000	302.545862
2.890000	144.691577
2.900000	18.452015
2.910000	-67.725072
2.920000	-89.554088
2.930000	-104.656065
2.940000	-112.022165
2.950000	-116.225685
2.960000	-109.413029
2.970000	-107.818673
2.980000	-87.985708
2.990000	27.111016
3.000000	162.399125
3.010000	283.527522
3.020000	312.037499
3.030000	330.761423
3.040000	363.220411
3.050000	399.610944
3.060000	437.129403
3.070000	445.424695
3.080000	418.478152
3.090000	349.609253
3.100000	257.936749
3.110000	162.164688
3.120000	81.434921
3.130000	31.081059
3.140000	4.911725
3.150000	-8.646579
3.160000	-13.219179
3.170000	-5.317862
3.180000	9.996273
3.190000	28.048106
3.200000	40.236823
3.210000	42.462003
3.220000	32.517832
3.230000	14.260827
3.240000	4.870062
3.250000	5.717218
3.260000	14.245507
3.270000	24.531387
3.280000	40.347628
3.290000	63.038618
3.300000	87.464692
3.310000	117.269076
3.320000	148.927527
3.330000	182.875552
3.340000	215.744740
3.350000	250.196432
3.360000	289.260492
3.370000	327.524667
3.380000	365.489371
3.390000	404.551929
3.400000	446.415329
3.410000	485.922932
3.420000	521.379713
3.430000	558.342439
3.440000	593.013322
3.450000	625.467161
3.460000	655.674216
3.470000	687.295915
3.480000	712.329951
3.490000	711.119182
3.500000	668.357135
3.510000	584.678704
3.520000	470.770700
3.530000	356.983970
3.540000	268.862423
3.550000	204.905942
3.560000	168.324356
3.570000	140.792325
3.580000	127.206579
3.590000	120.334855
3.600000	123.473463
3.610000	135.888340
3.620000	147.068466
3.630000	151.476739
3.640000	146.692894
3.650000	137.438563
3.660000	125.328878
3.670000	114.426808
3.680000	109.318940
3.690000	116.104791
3.700000	131.969708
3.710000	150.123316
3.720000	170.991365
3.730000	197.165131
3.740000	232.032154
3.750000	264.182852
3.760000	294.121817
3.770000	323.218700
3.780000	355.233394
3.790000	393.936190
3.800000	431.995688
3.810000	471.025717
3.820000	508.092550
3.830000	543.804953
3.840000	578.869244
3.850000	614.264082
3.860000	648.985884
3.870000	681.065525
3.880000	710.118077
3.890000	735.209561
3.900000	762.947983
3.910000	775.964299
3.920000	762.803575
3.930000	708.718987
3.940000	614.042451
3.950000	491.515834
3.960000	362.646346
3.970000	252.663381
3.980000	171.548365
3.990000	121.462311
4.000000	87.074729
4.010000	67.305625
4.020000	47.568764
4.030000	36.884733
4.040000	21.002692
4.050000	9.532707
4.060000	-9.285891
4.070000	-29.100531
4.080000	-57.611177
4.090000	-84.683371
4.100000	-100.603351
4.110000	-101.949704
4.120000	-98.297910
4.130000	-90.860234
4.140000	-85.004861
4.150000	-67.721740
4.160000	-46.436537
4.170000	-6.859340
4.180000	34.043059
4.190000	85.404726
4.200000	121.757121
4.210000	165.128274
4.220000	198.024520
4.230000	251.646977
4.240000	290.436156
4.250000	341.331125
4.260000	370.340416
4.270000	426.903916
4.280000	471.659784
4.290000	543.683998
4.300000	595.064934
4.310000	678.731921
4.320000	722.115772
4.330000	772.097805
4.340000	716.051219
4.350000	643.006423
4.360000	443.763902
4.370000	268.281344
4.380000	10.427203
4.390000	-266.284918
4.400000	-2566.746482
4.410000	-2589.989167
4.420000	-2552.007830
4.430000	-2432.183545
4.440000	-2385.763767
4.450000	-2301.328403
4.460000	-2250.372126
4.470000	-2131.014217
4.480000	-2058.260423
4.490000	-1973.574713
4.500000	-1929.806380
4.510000	-1807.012748
4.520000	-1668.207345
4.530000	-1495.915923
4.540000	-1373.572024
4.550000	-1254.481936
4.560000	-1166.161102
4.570000	-1077.574709
4.580000	-1013.257366
4.590000	-1032.451016
4.600000	-1083.069706
4.610000	-1138.753460
4.620000	-1128.114145
4.630000	-1095.730475
4.640000	-1072.143032
4.650000	-1031.910341
4.660000	-997.995074
4.670000	-952.000411
4.680000	-931.023587
4.690000	-923.648201
4.700000	-929.774390
4.710000	-915.561428
4.720000	-891.003926
4.730000	-861.487220
4.740000	-836.938045
4.750000	-813.066287
4.760000	-784.227640
4.770000	-752.024654
4.780000	-715.202311
4.790000	-677.356125
4.800000	-642.538205
4.810000	-601.344122
4.820000	-564.957642
4.830000	-517.284367
4.840000	-476.832791
4.850000	-435.512395
4.860000	-403.452318
4.870000	-397.118992
4.880000	-420.064362
4.890000	-488.455045
4.900000	-578.260964
4.910000	-675.179592
4.920000	-749.109429
4.930000	-797.341442
4.940000	-819.326031
4.950000	-837.261443
4.960000	-839.144497
4.970000	-843.293984
4.980000	-825.542317
4.990000	-678.794919
5.000000	-510.559157
5.010000	-349.776438
5.020000	-307.497989
5.030000	-290.226048
5.040000	-286.692667
5.050000	-323.142109
5.060000	-386.141879
5.070000	-484.482806
5.080000	-585.507602
5.090000	-677.578335
5.100000	-731.522346
5.110000	-775.528671
5.120000	-799.796746
5.130000	-825.929324
5.140000	-831.648086
5.150000	-830.793366
5.160000	-824.829676
5.170000	-824.380186
5.180000	-830.348903
5.190000	-807.231378
5.200000	-770.037942
5.210000	-725.758304
5.220000	-696.131945
5.230000	-675.908905
5.240000	-644.548436
5.250000	-613.511897
5.260000	-582.296564
5.270000	-552.819366
5.280000	-522.730804
5.290000	-488.153795
5.300000	-455.223689
5.310000	-420.493037
5.320000	-384.090847
5.330000	-352.213373
5.340000	-336.002663
5.350000	-347.300014
5.360000	-403.293523
5.370000	-500.026240
5.380000	-615.900227
5.390000	-735.466954
5.400000	-818.469688
5.410000	-866.052229
5.420000	-877.063652
5.430000	-877.743491
5.440000	-876.973979
5.450000	-867.086603
5.460000	-854.286317
5.470000	-831.757789
5.480000	-811.347003
5.490000	-787.077032
5.500000	-758.787251
5.510000	-727.429493
5.520000	-690.581631
5.530000	-655.505180
5.540000	-611.690389
5.550000	-579.361693
5.560000	-546.072377
5.570000	-518.299691
5.580000	-478.417550
5.590000	-446.704393
5.600000	-414.712959
5.610000	-388.845546
5.620000	-358.657628
5.630000	-346.772918
5.640000	-370.616607
5.650000	-440.709772
5.660000	-536.184339
5.670000	-632.999398
5.680000	-705.107898
5.690000	-726.316472
5.700000	-714.847808
5.710000	-689.328853
5.720000	-666.610203
5.730000	-645.986878
5.740000	-611.691583
5.750000	-583.770107
5.760000	-543.359421
5.770000	-506.341907
5.780000	-459.306418
5.790000	-296.018181
5.800000	-124.534544
5.810000	31.177479
5.820000	55.961379
5.830000	32.892306
5.840000	-17.740232
5.850000	-113.521780
5.860000	-211.968209
5.870000	-313.077028
5.880000	-387.807376
5.890000	-445.762492
5.900000	-474.275915
5.910000	-486.208396
5.920000	-487.081080
5.930000	-481.007004
5.940000	-461.881200
5.950000	-438.536105
5.960000	-419.369370
5.970000	-421.444693
5.980000	-429.791680
5.990000	-443.413553
6.000000	-450.539389
6.010000	-453.108157
6.020000	-451.971963
6.030000	-444.146498
6.040000	-425.421868
6.050000	-395.883753
6.060000	-361.574999
6.070000	-330.646744
6.080000	-299.047638
6.090000	-265.770862
6.100000	-223.856432
6.110000	-180.285516
6.120000	-140.011639
6.130000	-99.796052
6.140000	-64.206405
6.150000	-27.964064
6.160000	5.557481
6.170000	38.198261
6.180000	73.642717
6.190000	110.997900
6.200000	143.695854
6.210000	173.136509
6.220000	202.738554
6.230000	239.937102
6.240000	274.717878
6.250000	284.354259
6.260000	259.051127
6.270000	189.758798
6.280000	93.441418
6.290000	-15.524588
6.300000	-107.473526
6.310000	-174.882429
6.320000	-215.416101
6.330000	-240.959120
6.340000	-258.357709
6.350000	-266.025263
6.360000	-264.651255
6.370000	-254.101233
6.380000	-243.649137
6.390000	-212.105097
6.400000	-166.402225
6.410000	-113.453268
6.420000	-76.210128
6.430000	-48.732577
6.440000	-13.329310
6.450000	27.255369
6.460000	69.874055
6.470000	103.545725
6.480000	131.440483
6.490000	159.167247
6.500000	194.671400
6.510000	232.410062
6.520000	263.886145
6.530000	291.675499
6.540000	322.772167
6.550000	360.590511
6.560000	396.618432
6.570000	432.192500
6.580000	470.128948
6.590000	504.430724
6.600000	508.911373
6.610000	465.686026
6.620000	379.416915
6.630000	267.303866
6.640000	170.316085
6.650000	92.147908
6.660000	44.566246
6.670000	19.600128
6.680000	17.167363
6.690000	23.343854
6.700000	27.440459
6.710000	35.797681
6.720000	61.061102
6.730000	78.813509
6.740000	85.068556
6.750000	71.147380
6.760000	61.163908
6.770000	45.386354
6.780000	38.992640
6.790000	96.398291
6.800000	176.223688
6.810000	264.484461
6.820000	303.333484
6.830000	335.847275
6.840000	361.656966
6.850000	383.886252
6.860000	411.329482
6.870000	439.221670
6.880000	468.351153
6.890000	496.215501
6.900000	532.741293
6.910000	566.150929
6.920000	596.164430
6.930000	624.426599
6.940000	650.583901
6.950000	657.324378
6.960000	629.678687
6.970000	562.585106
6.980000	475.175845
6.990000	383.841074
7.000000	317.376692
7.010000	274.684727
7.020000	251.238086
7.030000	239.189396
7.040000	241.131792
7.050000	253.012950
7.060000	271.364405
7.070000	284.150442
7.080000	298.988629
7.090000	294.880463
7.100000	294.069572
7.110000	278.504586
7.120000	276.616446
7.130000	270.005170
7.140000	276.267425
7.150000	286.103935
7.160000	298.279421
7.170000	310.873168
7.180000	329.985944
7.190000	444.542521
7.200000	536.463359
7.210000	591.503314
7.220000	537.120378
7.230000	491.661585
7.240000	480.863018
7.250000	478.350173
7.260000	493.377079
7.270000	503.959983
7.280000	531.350360
7.290000	548.444233
7.300000	561.088169
7.310000	554.880337
7.320000	547.588575
7.330000	536.267223
7.340000	530.130148
7.350000	527.298172
7.360000	531.695616
7.370000	535.304363
7.380000	546.982227
7.390000	560.610961
7.400000	580.973730
7.410000	604.235578
7.420000	626.640544
7.430000	659.576952
7.440000	692.923503
7.450000	728.626753
7.460000	757.517938
7.470000	787.732802
7.480000	821.103826
7.490000	859.180215
7.500000	895.677041
7.510000	927.979917
7.520000	962.951854
7.530000	997.093412
7.540000	1032.918785
7.550000	1064.191818
7.560000	1096.259811
7.570000	1121.931393
7.580000	1108.205546
7.590000	1046.747629
7.600000	947.543821
7.610000	837.285270
7.620000	739.883282
7.630000	659.443958
7.640000	610.593698
7.650000	580.201749
7.660000	564.338000
7.670000	552.282780
7.680000	557.824773
7.690000	572.310594
7.700000	585.983531
7.710000	594.361166
7.720000	590.811244
7.730000	583.126134
7.740000	564.607180
7.750000	547.952309
7.760000	538.390441
7.770000	532.428939
7.780000	536.207801
7.790000	547.891200
7.800000	565.699411
7.810000	580.005893
7.820000	594.568318
7.830000	610.453616
7.840000	634.794183
7.850000	661.538634
7.860000	691.044360
7.870000	723.630123
7.880000	755.957598
7.890000	784.059516
7.900000	806.550748
7.910000	833.192191
7.920000	862.117809
7.930000	892.332943
7.940000	918.678952
7.950000	943.165399
7.960000	963.566969
7.970000	982.349060
7.980000	1002.461115
7.990000	1007.149878
8.000000	974.345063
8.010000	902.678422
8.020000	793.908251
8.030000	668.595709
8.040000	553.157731
8.050000	466.829920
8.060000	421.055558
8.070000	406.008557
8.080000	433.682584
8.090000	482.764743
8.100000	553.704833
8.110000	600.394923
8.120000	636.893951
8.130000	634.910145
8.140000	627.920493
8.150000	607.979104
8.160000	597.698206
8.170000	571.582906
8.180000	514.170171
8.190000	383.781124
8.200000	193.792824
8.210000	-58.230896
8.220000	-329.860112
8.230000	-612.093098
8.240000	-885.383058
8.250000	-1147.403460
8.260000	-1344.196348
8.270000	-1528.029070
8.280000	-1642.646529
8.290000	-1661.856809
8.300000	-801.393334
8.310000	-745.731633
8.320000	-765.443565
8.330000	-828.459897
8.340000	-870.123164
8.350000	-922.123881
8.360000	-932.243604
8.370000	-958.428616
8.380000	-959.764225
8.390000	-920.808552
8.400000	-847.014325
8.410000	-785.642255
8.420000	-754.188458
8.430000	-733.715179
8.440000	-697.346910
8.450000	-678.626996
8.460000	-651.681942
8.470000	-623.636036
8.480000	-576.287488
8.490000	-526.080452
8.500000	-472.185950
8.510000	-435.257701
8.520000	-395.313432
8.530000	-363.527952
8.540000	-320.364116
8.550000	-285.246226
8.560000	-267.060326
8.570000	-280.655470
8.580000	-330.402467
8.590000	-407.369673
8.600000	-496.402460
8.610000	-576.075042
8.620000	-631.762968
8.630000	-662.827433
8.640000	-672.810340
8.650000	-675.282851
8.660000	-664.814432
8.670000	-642.765925
8.680000	-608.823015
8.690000	-534.514172
8.700000	-475.405000
8.710000	-413.737027
8.720000	-386.814291
8.730000	-340.718809
8.740000	-300.115625
8.750000	-258.959183
8.760000	-225.800053
8.770000	-179.795224
8.780000	-141.942523
8.790000	-248.958945
8.800000	-382.059812
8.810000	-515.053608
8.820000	-510.548363
8.830000	-489.200421
8.840000	-477.454937
8.850000	-464.922893
8.860000	-471.789020
8.870000	-474.869827
8.880000	-483.890436
8.890000	-488.104181
8.900000	-498.060688
8.910000	-502.622674
8.920000	-508.624028
8.930000	-507.108216
8.940000	-508.250351
8.950000	-500.878912
8.960000	-491.602638
8.970000	-473.289005
8.980000	-447.322128
8.990000	-410.029023
9.000000	-371.423023
9.010000	-327.407431
9.020000	-294.257009
9.030000	-257.712440
9.040000	-229.506172
9.050000	-191.947078
9.060000	-157.849550
9.070000	-124.148517
9.080000	-117.952870
9.090000	-228.196814
9.100000	-345.856181
9.110000	-443.145251
9.120000	-440.293704
9.130000	-421.888745
9.140000	-406.226098
9.150000	-364.513159
9.160000	-326.663286
9.170000	-276.019852
9.180000	-232.544536
9.190000	-188.794727
9.200000	-152.477473
9.210000	-118.210356
9.220000	-80.085631
9.230000	-41.327687
9.240000	-15.398485
9.250000	-21.136321
9.260000	-70.368575
9.270000	-152.559980
9.280000	-254.006363
9.290000	-343.946482
9.300000	-412.377478
9.310000	-449.342709
9.320000	-469.158141
9.330000	-476.722567
9.340000	-478.619540
9.350000	-465.735362
9.360000	-446.137452
9.370000	-422.409022
9.380000	-401.677037
9.390000	-396.105642
9.400000	-399.174358
9.410000	-416.845526
9.420000	-420.920087
9.430000	-418.023214
9.440000	-401.304212
9.450000	-391.953241
9.460000	-380.947257
9.470000	-369.252519
9.480000	-341.219721
9.490000	-224.738349
9.500000	-98.247211
9.510000	24.612360
9.520000	70.219227
9.530000	88.628187
9.540000	68.175017
9.550000	-3.365224
9.560000	-99.102694
9.570000	-200.054518
9.580000	-286.051213
9.590000	-351.457698
9.600000	-389.670937
9.610000	-412.919696
9.620000	-422.935486
9.630000	-425.733675
9.640000	-419.184435
9.650000	-408.574683
9.660000	-390.750076
9.670000	-385.485092
9.680000	-387.252529
9.690000	-402.768645
9.700000	-411.686709
9.710000	-415.451310
9.720000	-410.780371
9.730000	-402.829483
9.740000	-388.523623
9.750000	-369.893738
9.760000	-351.612717
9.770000	-330.608496
9.780000	-308.720263
9.790000	-277.299265
9.800000	-241.202905
9.810000	-208.336252
9.820000	-179.670865
9.830000	-153.703985
9.840000	-119.784417
9.850000	-83.119168
9.860000	-49.904423
9.870000	-23.195971
9.880000	4.668256
9.890000	33.368712
9.900000	63.908134
9.910000	87.904678
9.920000	107.841739
9.930000	130.115436
9.940000	137.374324
9.950000	109.984286
9.960000	26.566635
9.970000	-84.010850
9.980000	-181.879341
9.990000	-253.413078
10.000000	-300.034839
10.010000	-334.848757
10.020000	-349.131594
10.030000	-341.973609
10.040000	-328.272650
10.050000	-309.061097
10.060000	-293.102158
10.070000	-271.433618
10.080000	-240.947959
10.090000	-210.505717
10.100000	-180.102612
10.110000	-153.922343
10.120000	-123.221271
10.130000	-89.366071
10.140000	-47.321503
10.150000	-12.197438
10.160000	21.302183
10.170000	47.609408
10.180000	76.970872
10.190000	116.409146
10.200000	147.571794
10.210000	184.633663
10.220000	215.770261
10.230000	251.254672
10.240000	289.605752
10.250000	325.534707
10.260000	352.106381
10.270000	342.764015
10.280000	288.658981
10.290000	204.728824
10.300000	111.898363
10.310000	35.710150
10.320000	-15.906634
10.330000	-39.650406
10.340000	-44.407448
10.350000	-38.672065
10.360000	-23.884239
10.370000	-9.711511
10.380000	6.009773
10.390000	19.571386
10.400000	29.582117
10.410000	30.515056
10.420000	23.845989
10.430000	18.150682
10.440000	23.118873
10.450000	37.094596
10.460000	56.392461
10.470000	72.030403
10.480000	90.715743
10.490000	111.953191
10.500000	133.374139
10.510000	159.234594
10.520000	193.037714
10.530000	228.830764
10.540000	265.722754
10.550000	298.756820
10.560000	336.452684
10.570000	376.661603
10.580000	415.853668
10.590000	456.591452
10.600000	493.909120
10.610000	532.556608
10.620000	570.287455
10.630000	605.866781
10.640000	644.693049
10.650000	685.166906
10.660000	721.429578
10.670000	752.489824
10.680000	757.120071
10.690000	725.520456
10.700000	657.179179
10.710000	561.588443
10.720000	461.952594
10.730000	376.653262
10.740000	330.086033
10.750000	317.314448
10.760000	312.505766
10.770000	310.710098
10.780000	315.960696
10.790000	337.129646
10.800000	359.361145
10.810000	377.586844
10.820000	383.430018
10.830000	380.755249
10.840000	366.490833
10.850000	352.642795
10.860000	342.873192
10.870000	339.872200
10.880000	348.272143
10.890000	364.757761
10.900000	380.667789
10.910000	393.337895
10.920000	408.765380
10.930000	438.277541
10.940000	463.793790
10.950000	486.281139
10.960000	505.497225
10.970000	535.335285
10.980000	568.487525
10.990000	598.737557
11.000000	620.491361
11.010000	654.223283
11.020000	691.761732
11.030000	729.065587
11.040000	754.021850
11.050000	787.677564
11.060000	818.872111
11.070000	862.372694
11.080000	881.593264
11.090000	762.533797
11.100000	606.918839
11.110000	460.218963
11.120000	438.450051
11.130000	446.001401
11.140000	448.494600
11.150000	463.605268
11.160000	465.431218
11.170000	458.972396
11.180000	444.031908
11.190000	425.030511
11.200000	405.642138
11.210000	390.101708
11.220000	377.917542
11.230000	378.879246
11.240000	388.498443
11.250000	404.006161
11.260000	419.415098
11.270000	435.161915
11.280000	452.344699
11.290000	477.677487
11.300000	504.582114
11.310000	536.565006
11.320000	563.459478
11.330000	593.513858
11.340000	623.983990
11.350000	654.479761
11.360000	684.184490
11.370000	713.125046
11.380000	740.726971
11.390000	767.115783
11.400000	795.287424
11.410000	825.107899
11.420000	850.173850
11.430000	878.148386
11.440000	907.043377
11.450000	945.226793
11.460000	969.836466
11.470000	967.340020
11.480000	930.322067
11.490000	849.791140
11.500000	752.581461
11.510000	647.200485
11.520000	568.922761
11.530000	516.852028
11.540000	492.612347
11.550000	483.471988
11.560000	493.355337
11.570000	505.709840
11.580000	522.489763
11.590000	619.490910
11.600000	734.251328
11.610000	850.739509
11.620000	886.169340
11.630000	912.084902
11.640000	947.616091
11.650000	984.360484
11.660000	1024.764886
11.670000	1042.228294
11.680000	1034.987002
11.690000	985.390660
11.700000	901.952246
11.710000	800.577673
11.720000	702.268897
11.730000	630.776040
11.740000	574.826216
11.750000	548.046043
11.760000	527.953992
11.770000	529.421312
11.780000	523.965073
11.790000	532.267036
11.800000	531.190927
11.810000	539.897083
11.820000	525.608645
11.830000	514.021936
11.840000	483.898011
11.850000	472.307184
11.860000	451.007920
11.870000	459.444609
11.880000	449.543400
11.890000	473.188862
11.900000	473.779537
11.910000	512.588491
11.920000	519.653180
11.930000	573.727528
11.940000	592.414817
11.950000	673.357985
11.960000	708.942610
11.970000	825.293315
11.980000	883.070487
11.990000	911.391057
12.000000	-1365.458709
12.010000	-1313.560635
12.020000	-1242.698463
12.030000	-1137.031417
12.040000	-1136.197762
12.050000	-1104.419091
12.060000	-1123.635399
12.070000	-1090.638940
12.080000	-1094.943388
12.090000	-1061.080340
12.100000	-1046.959383
12.110000	-988.528748
12.120000	-954.682813
12.130000	-897.666023
12.140000	-859.997068
12.150000	-797.909475
12.160000	-757.902692
12.170000	-712.292900
12.180000	-677.272819
12.190000	-620.888344
12.200000	-568.812409
12.210000	-506.050202
12.220000	-458.810198
12.230000	-412.110874
12.240000	-379.231133
12.250000	-350.454158
12.260000	-358.782076
12.270000	-407.729368
12.280000	-502.684653
12.290000	-602.556971
12.300000	-701.029691
12.310000	-771.008018
12.320000	-816.474154
12.330000	-841.807780
12.340000	-858.953901
12.350000	-865.583051
12.360000	-858.780293
12.370000	-840.720755
12.380000	-825.655167
12.390000	-796.788694
12.400000	-766.291950
12.410000	-723.810634
12.420000	-693.372540
12.430000	-655.061419
12.440000	-615.876763
12.450000	-574.305358
12.460000	-531.738988
12.470000	-498.256666
12.480000	-456.542963
12.490000	-411.954047
12.500000	-385.072705
12.510000	-401.348880
12.520000	-460.549461
12.530000	-543.375705
12.540000	-630.376955
12.550000	-723.813442
12.560000	-795.137907
12.570000	-842.008016
12.580000	-864.924983
12.590000	-879.930364
12.600000	-876.658059
12.610000	-848.882718
12.620000	-812.804792
12.630000	-791.205298
12.640000	-787.918390
12.650000	-787.159646
12.660000	-792.103120
12.670000	-801.788437
12.680000	-809.624916
12.690000	-805.426610
12.700000	-794.876275
12.710000	-779.405803
12.720000	-753.461188
12.730000	-723.437264
12.740000	-698.072022
12.750000	-675.124753
12.760000	-646.686830
12.770000	-608.842774
12.780000	-572.027302
12.790000	-533.544326
12.800000	-499.411312
12.810000	-470.250674
12.820000	-445.144041
12.830000	-415.956819
12.840000	-382.250855
12.850000	-348.028101
12.860000	-319.383018
12.870000	-313.148466
12.880000	-336.842506
12.890000	-400.963245
12.900000	-489.916543
12.910000	-584.788432
12.920000	-661.997264
12.930000	-718.021529
12.940000	-769.820354
12.950000	-815.555750
12.960000	-848.315556
12.970000	-851.415806
12.980000	-836.240476
12.990000	-816.969449
13.000000	-800.832157
13.010000	-786.184509
13.020000	-771.443060
13.030000	-763.775922
13.040000	-771.074855
13.050000	-775.649227
13.060000	-773.095213
13.070000	-763.887911
13.080000	-755.820886
13.090000	-741.770737
13.100000	-724.258054
13.110000	-701.994665
13.120000	-678.392914
13.130000	-647.544320
13.140000	-611.901942
13.150000	-587.148052
13.160000	-558.344478
13.170000	-534.501700
13.180000	-496.393459
13.190000	-462.643161
13.200000	-427.392241
13.210000	-395.163360
13.220000	-363.722539
13.230000	-328.694263
13.240000	-309.467869
13.250000	-322.232643
13.260000	-376.210166
13.270000	-455.050060
13.280000	-532.273751
13.290000	-596.591466
13.300000	-639.694290
13.310000	-660.167063
13.320000	-659.471141
13.330000	-652.795260
13.340000	-631.196422
13.350000	-609.169015
13.360000	-577.537684
13.370000	-558.643458
13.380000	-545.144676
13.390000	-544.505617
13.400000	-547.719937
13.410000	-553.402001
13.420000	-549.612624
13.430000	-541.692036
13.440000	-525.826137
13.450000	-509.358458
13.460000	-484.008916
13.470000	-466.438661
13.480000	-435.432708
13.490000	-297.331359
13.500000	-144.378324
13.510000	-0.046153
13.520000	24.424261
13.530000	6.747543
13.540000	-50.991117
13.550000	-141.788579
13.560000	-225.324733
13.570000	-295.762241
13.580000	-338.309669
13.590000	-368.494840
13.600000	-384.589288
13.610000	-390.584974
13.620000	-380.182206
13.630000	-366.737069
13.640000	-351.081773
13.650000	-338.575714
13.660000	-324.293609
13.670000	-324.479416
13.680000	-327.769597
13.690000	-341.774939
13.700000	-345.506465
13.710000	-350.164694
13.720000	-336.832823
13.730000	-318.647749
13.740000	-297.800764
13.750000	-276.134541
13.760000	-245.412094
13.770000	-208.990629
13.780000	-175.708974
13.790000	-119.420830
13.800000	-75.845683
13.810000	-48.097761
13.820000	-56.699526
13.830000	-66.958731
13.840000	-64.945790
13.850000	-67.572843
13.860000	-57.766846
13.870000	-43.590496
13.880000	-24.565317
13.890000	-6.292090
13.900000	10.649726
13.910000	32.692262
13.920000	61.852962
13.930000	93.659407
13.940000	128.737784
13.950000	157.599984
13.960000	188.673323
13.970000	217.506997
13.980000	248.635642
13.990000	279.396638
14.000000	308.604707
14.010000	338.298112
14.020000	362.555178
14.030000	388.906759
14.040000	413.812417
14.050000	444.883493
14.060000	481.718722
14.070000	517.848243
14.080000	552.980288
14.090000	580.467436
14.100000	592.911961
14.110000	579.416116
14.120000	529.851777
14.130000	459.106458
14.140000	374.109612
14.150000	295.842188
14.160000	240.026715
14.170000	216.234982
14.180000	208.882259
14.190000	203.973253
14.200000	200.113767
14.210000	205.746805
14.220000	215.983826
14.230000	227.199229
14.240000	232.854860
14.250000	227.664302
14.260000	220.440730
14.270000	210.446152
14.280000	203.387542
14.290000	198.219592
14.300000	195.682959
14.310000	209.038012
14.320000	224.916054
14.330000	244.908563
14.340000	259.128891
14.350000	275.171950
14.360000	301.355420
14.370000	333.078449
14.380000	363.253931
14.390000	392.351395
14.400000	418.826148
14.410000	453.003057
14.420000	478.671808
14.430000	513.761682
14.440000	540.766875
14.450000	581.308036
14.460000	611.417192
14.470000	648.649090
14.480000	672.644219
14.490000	575.096290
14.500000	454.119408
14.510000	338.033184
14.520000	335.496821
14.530000	350.088544
14.540000	360.428916
14.550000	370.228222
14.560000	365.996006
14.570000	349.759588
14.580000	329.595605
14.590000	319.322778
14.600000	316.834339
14.610000	323.578762
14.620000	329.391023
14.630000	338.557769
14.640000	352.957906
14.650000	371.545700
14.660000	392.205618
14.670000	414.221385
14.680000	444.825879
14.690000	486.568390
14.700000	498.343892
14.710000	483.054047
14.720000	441.206574
14.730000	420.353618
14.740000	408.925033
14.750000	403.025882
14.760000	402.004128
14.770000	408.057818
14.780000	416.750288
14.790000	419.430243
14.800000	408.183980
14.810000	391.533418
14.820000	367.942423
14.830000	349.025188
14.840000	339.701719
14.850000	338.853038
14.860000	346.149275
14.870000	350.671319
14.880000	359.666330
14.890000	373.490363
14.900000	392.536592
14.910000	416.326868
14.920000	436.739126
14.930000	459.554902
14.940000	488.288850
14.950000	522.458779
14.960000	556.845786
14.970000	582.372345
14.980000	606.802662
14.990000	638.307435
15.000000	670.740678
15.010000	700.603642
15.020000	721.691822
15.030000	745.301854
15.040000	772.301630
15.050000	805.359017
15.060000	835.232768
15.070000	862.129526
15.080000	891.532479
15.090000	923.238513
15.100000	943.816631
15.110000	925.328429
15.120000	864.856945
15.130000	769.800775
15.140000	667.305579
15.150000	571.591686
15.160000	500.785651
15.170000	460.368546
15.180000	443.586099
15.190000	438.485073
15.200000	435.747696
15.210000	436.651236
15.220000	447.276310
15.230000	458.128400
15.240000	461.162637
15.250000	453.640483
15.260000	437.080948
15.270000	422.198056
15.280000	402.639226
15.290000	388.821799
15.300000	382.861414
15.310000	386.464395
15.320000	398.763106
15.330000	412.776702
15.340000	423.356256
15.350000	440.817833
15.360000	458.923539
15.370000	486.586762
15.380000	504.766810
15.390000	529.471298
15.400000	554.568526
15.410000	590.086040
15.420000	622.658383
15.430000	655.766007
15.440000	678.393946
15.450000	708.878667
15.460000	728.045110
15.470000	757.789310
15.480000	776.261178
15.490000	703.893023
15.500000	610.238285
15.510000	519.222748
15.520000	529.438325
15.530000	552.055418
15.540000	568.515603
15.550000	585.641882
15.560000	593.898544
15.570000	596.614116
15.580000	585.265878
15.590000	575.001473
15.600000	566.276133
15.610000	571.103679
15.620000	584.589542
15.630000	606.568289
15.640000	621.209156
15.650000	636.112966
15.660000	651.156409
15.670000	671.353747
15.680000	691.089595
15.690000	714.302361
15.700000	737.015761
15.710000	764.290302
15.720000	783.908766
15.730000	812.371191
15.740000	833.057987
15.750000	864.896664
15.760000	880.426516
15.770000	908.590197
15.780000	922.989278
15.790000	826.769532
15.800000	735.481149
15.810000	680.396188
15.820000	766.520733
15.830000	850.686137
15.840000	898.537163
15.850000	919.774791
15.860000	910.527061
15.870000	893.613878
15.880000	870.134125
15.890000	841.463580
15.900000	782.678503
15.910000	674.671824
15.920000	500.237013
15.930000	263.883156
15.940000	-7.587182
15.950000	-268.812023
15.960000	-505.425432
15.970000	-741.368001
15.980000	-956.620537
15.990000	-990.196859
16.000000	-937.513584
16.010000	-850.232907
16.020000	-880.677445
16.030000	-922.219042
16.040000	-931.008682
16.050000	-929.716454
16.060000	-915.264735
16.070000	-902.926750
16.080000	-888.797540
16.090000	-883.172415
16.100000	-875.603338
16.110000	-865.107637
16.120000	-842.383435
16.130000	-821.771862
16.140000	-796.102091
16.150000	-781.832200
16.160000	-762.729074
16.170000	-748.629151
16.180000	-733.644772
16.190000	-716.771638
16.200000	-695.555491
16.210000	-667.914361
16.220000	-640.823841
16.230000	-612.699863
16.240000	-587.440400
16.250000	-561.130584
16.260000	-528.386458
16.270000	-489.243244
16.280000	-446.005987
16.290000	-414.393494
16.300000	-379.542445
16.310000	-347.936808
16.320000	-306.693646
16.330000	-269.220434
16.340000	-241.158453
16.350000	-232.517827
16.360000	-250.617800
16.370000	-296.800896
16.380000	-374.418247
16.390000	-454.330469
16.400000	-520.925077
16.410000	-557.192254
16.420000	-581.197780
16.430000	-594.344622
16.440000	-602.820116
16.450000	-601.469137
16.460000	-587.117996
16.470000	-570.970042
16.480000	-554.392561
16.490000	-548.167296
16.500000	-545.623136
16.510000	-550.731178
16.520000	-558.499942
16.530000	-555.609812
16.540000	-542.752967
16.550000	-520.158346
16.560000	-496.032510
16.570000	-471.692664
16.580000	-445.642459
16.590000	-416.231450
16.600000	-386.938143
16.610000	-364.450786
16.620000	-336.186047
16.630000	-302.377222
16.640000	-267.785029
16.650000	-241.988947
16.660000	-218.344915
16.670000	-185.593531
16.680000	-158.648962
16.690000	-146.855161
16.700000	-162.968127
16.710000	-215.109877
16.720000	-300.596829
16.730000	-398.319935
16.740000	-480.546684
16.750000	-532.237596
16.760000	-565.243196
16.770000	-589.489496
16.780000	-605.252784
16.790000	-605.728243
16.800000	-595.633696
16.810000	-578.302909
16.820000	-563.037424
16.830000	-546.850285
16.840000	-539.148353
16.850000	-547.733106
16.860000	-560.544611
16.870000	-567.628279
16.880000	-563.292498
16.890000	-554.564989
16.900000	-544.369059
16.910000	-533.836733
16.920000	-515.094177
16.930000	-501.172521
16.940000	-472.068522
16.950000	-445.284607
16.960000	-413.982623
16.970000	-387.113323
16.980000	-359.197007
16.990000	-326.286148
17.000000	-295.448193
17.010000	-266.779687
17.020000	-235.693017
17.030000	-199.618580
17.040000	-160.623694
17.050000	-124.808304
17.060000	-96.890300
17.070000	-72.312247
17.080000	-61.537827
17.090000	-82.175445
17.100000	-137.819796
17.110000	-222.685780
17.120000	-313.727220
17.130000	-387.868864
17.140000	-436.680996
17.150000	-461.752220
17.160000	-476.673787
17.170000	-484.612950
17.180000	-481.987331
17.190000	-471.162594
17.200000	-457.314452
17.210000	-447.389573
17.220000	-449.985185
17.230000	-464.597239
17.240000	-478.962577
17.250000	-495.851751
17.260000	-502.569643
17.270000	-508.171417
17.280000	-503.465264
17.290000	-466.795442
17.300000	-442.213200
17.310000	-423.954407
17.320000	-438.721983
17.330000	-439.582708
17.340000	-431.712043
17.350000	-416.204528
17.360000	-396.045259
17.370000	-377.506572
17.380000	-365.378828
17.390000	-360.468660
17.400000	-361.042966
17.410000	-365.769280
17.420000	-364.687393
17.430000	-360.441724
17.440000	-349.986611
17.450000	-336.133889
17.460000	-314.268943
17.470000	-289.522876
17.480000	-267.221738
17.490000	-246.899085
17.500000	-223.498262
17.510000	-197.961307
17.520000	-165.428253
17.530000	-132.390643
17.540000	-99.009992
17.550000	-65.154838
17.560000	-31.262152
17.570000	4.084003
17.580000	35.465002
17.590000	61.331695
17.600000	83.867438
17.610000	108.587039
17.620000	127.230679
17.630000	118.137688
17.640000	69.620227
17.650000	-10.258364
17.660000	-96.611498
17.670000	-178.359682
17.680000	-230.806364
17.690000	-263.555615
17.700000	-269.288351
17.710000	-267.491968
17.720000	-256.044307
17.730000	-246.799891
17.740000	-233.082404
17.750000	-213.455096
17.760000	-193.806700
17.770000	-173.424767
17.780000	-151.529926
17.790000	-123.716777
17.800000	-91.267586
17.810000	-57.680198
17.820000	-20.654495
17.830000	18.347695
17.840000	52.946891
17.850000	82.393006
17.860000	110.228844
17.870000	144.118566
17.880000	177.808320
17.890000	208.522918
17.900000	236.064263
17.910000	271.962354
17.920000	309.272486
17.930000	341.740188
17.940000	349.112243
17.950000	326.229607
17.960000	272.300931
17.970000	195.413822
17.980000	109.843830
17.990000	23.250550
18.000000	-37.890773
18.010000	-75.319260
18.020000	-85.606761
18.030000	-90.620655
18.040000	-82.235679
18.050000	-74.979440
18.060000	-59.460604
18.070000	-43.714320
18.080000	-15.290695
18.090000	90.700206
18.100000	202.175188
18.110000	304.611811
18.120000	333.175338
18.130000	349.877733
18.140000	377.072621
18.150000	403.724805
18.160000	441.705804
18.170000	471.492095
18.180000	488.052027
18.190000	467.882009
18.200000	415.147725
18.210000	334.613831
18.220000	253.645874
18.230000	184.310788
18.240000	147.174629
18.250000	123.239783
18.260000	114.100752
18.270000	108.474324
18.280000	112.081262
18.290000	124.031830
18.300000	133.709616
18.310000	139.288140
18.320000	137.675925
18.330000	132.237043
18.340000	124.980140
18.350000	115.186851
18.360000	105.970037
18.370000	106.160955
18.380000	107.254339
18.390000	120.865772
18.400000	132.809987
18.410000	152.310521
18.420000	167.984772
18.430000	186.146367
18.440000	210.829212
18.450000	238.303565
18.460000	270.364926
18.470000	302.787076
18.480000	333.248813
18.490000	330.534251
18.500000	317.290413
18.510000	300.581817
18.520000	303.051403
18.530000	299.508017
18.540000	286.883243
18.550000	276.818112
18.560000	270.697147
18.570000	266.796641
18.580000	265.861536
18.590000	273.465538
18.600000	288.350999
18.610000	311.818695
18.620000	332.482913
18.630000	348.876448
18.640000	363.971097
18.650000	386.293592
18.660000	418.453884
18.670000	453.027414
18.680000	484.619868
18.690000	508.106309
18.700000	531.833897
18.710000	559.182645
18.720000	591.720737
18.730000	622.580298
18.740000	645.620758
18.750000	671.368271
18.760000	698.165216
18.770000	728.512251
18.780000	756.364136
18.790000	781.015507
18.800000	796.894304
18.810000	792.179550
18.820000	749.420288
18.830000	671.410467
18.840000	570.985107
18.850000	479.704053
18.860000	411.512764
18.870000	372.988591
18.880000	350.997444
18.890000	335.626441
18.900000	324.513959
18.910000	323.297320
18.920000	331.023395
18.930000	343.971579
18.940000	356.538600
18.950000	357.975934
18.960000	344.082635
18.970000	318.011285
18.980000	300.017726
18.990000	285.990404
19.000000	279.985891
19.010000	276.620844
19.020000	286.675642
19.030000	302.878833
19.040000	319.379695
19.050000	336.831690
19.060000	352.752072
19.070000	373.819912
19.080000	390.757420
19.090000	411.532227
19.100000	430.401764
19.110000	452.952232
19.120000	479.708703
19.130000	507.371477
19.140000	533.360612
19.150000	550.788463
19.160000	577.088802
19.170000	604.813161
19.180000	632.175165
19.190000	652.500287
19.200000	674.980855
19.210000	701.175416
19.220000	727.447802
19.230000	751.863961
19.240000	760.891511
19.250000	734.543268
19.260000	676.742585
19.270000	586.550779
19.280000	487.669419
19.290000	404.568339
19.300000	348.567929
19.310000	323.238921
19.320000	304.063444
19.330000	290.315513
19.340000	283.238207
19.350000	284.400012
19.360000	299.430976
19.370000	315.440329
19.380000	316.622260
19.390000	305.537445
19.400000	283.817177
19.410000	267.346390
19.420000	253.634130
19.430000	246.845950
19.440000	241.429882
19.450000	245.388048
19.460000	258.541630
19.470000	282.272718
19.480000	295.262462
19.490000	309.252774
19.500000	323.954648
19.510000	350.936273
19.520000	379.255693
19.530000	409.989944
19.540000	439.881801
19.550000	468.387837
19.560000	500.192169
19.570000	528.757947
19.580000	551.850518
19.590000	516.658433
19.600000	458.085529
19.610000	389.501973
19.620000	359.084785
19.630000	349.166424
19.640000	347.433617
19.650000	362.222235
19.660000	378.385704
19.670000	398.995604
19.680000	414.303200
19.690000	422.123468
19.700000	416.543943
19.710000	398.603671
19.720000	383.824134
19.730000	372.374466
19.740000	362.097113
19.750000	350.142289
19.760000	338.047486
19.770000	329.581330
19.780000	317.298560
19.790000	305.717807
19.800000	294.534035
19.810000	289.535073
19.820000	292.087823
19.830000	301.008857
19.840000	318.647904
19.850000	334.443498
19.860000	355.586124
19.870000	377.842538
19.880000	417.576412
19.890000	471.850453
19.900000	550.596988
19.910000	636.444700
19.920000	732.668642
19.930000	847.379644
19.940000	955.309071
19.950000	1024.957630
19.960000	1024.608756
19.970000	952.611070
19.980000	853.360809
19.990000	721.453302
20.000000	570.824562
20.010000	335.522772
20.020000	-56.133356
20.030000	-472.562705
20.040000	-798.624809
20.050000	-1063.449676
20.060000	-1281.928367
20.070000	-1467.841512
20.080000	-1612.321296
20.090000	-1579.884388
20.100000	-1234.336248
20.110000	-1097.116123
20.120000	-1041.814250
20.130000	-988.859767
20.140000	-904.190564
20.150000	-802.750842
20.160000	-665.152346
20.170000	-533.825060
20.180000	-425.724434
20.190000	-439.805021
20.200000	-477.434608
20.210000	-532.386461
20.220000	-514.261517
20.230000	-493.758528
20.240000	-468.235383
20.250000	-435.480400
20.260000	-400.578140
20.270000	-362.868906
20.280000	-331.296573
20.290000	-291.543039
20.300000	-251.425539
20.310000	-207.536294
20.320000	-169.607427
20.330000	-141.530552
20.340000	-109.758674
20.350000	-79.928298
20.360000	-53.583020
20.370000	-57.078741
20.380000	-99.711935
20.390000	-174.201951
20.400000	-258.151166
20.410000	-333.355387
20.420000	-386.957330
20.430000	-418.227919
20.440000	-429.792025
20.450000	-431.807325
20.460000	-424.953735
20.470000	-410.742254
20.480000	-378.435236
20.490000	-331.737136
20.500000	-291.317138
20.510000	-257.028837
20.520000	-228.886988
20.530000	-194.306951
20.540000	-161.535249
20.550000	-130.918073
20.560000	-97.189644
20.570000	-62.237231
20.580000	-34.216487
20.590000	-11.551731
20.600000	10.075294
20.610000	16.393631
20.620000	-12.337201
20.630000	-83.984490
20.640000	-176.690988
20.650000	-265.042612
20.660000	-331.757052
20.670000	-372.493057
20.680000	-396.885116
20.690000	-413.297127
20.700000	-424.020446
20.710000	-424.105417
20.720000	-413.192653
20.730000	-397.288951
20.740000	-381.386651
20.750000	-377.850798
20.760000	-384.231507
20.770000	-398.438660
20.780000	-405.733460
20.790000	-409.100515
20.800000	-408.251878
20.810000	-404.793162
20.820000	-391.104015
20.830000	-371.544571
20.840000	-351.986290
20.850000	-336.985147
20.860000	-312.844672
20.870000	-284.169016
20.880000	-252.721734
20.890000	-210.018005
20.900000	-203.111388
20.910000	-234.772199
20.920000	-311.872588
20.930000	-372.364157
20.940000	-411.484967
20.950000	-436.349347
20.960000	-450.448112
20.970000	-453.685509
20.980000	-442.429136
20.990000	-423.076911
21.000000	-400.433570
21.010000	-389.858514
21.020000	-392.760992
21.030000	-404.651977
21.040000	-416.102992
21.050000	-424.826613
21.060000	-425.130615
21.070000	-418.382358
21.080000	-401.842085
21.090000	-387.005736
21.100000	-369.538680
21.110000	-350.673076
21.120000	-326.249203
21.130000	-303.400234
21.140000	-279.294551
21.150000	-254.833230
21.160000	-222.011081
21.170000	-190.343379
21.180000	-164.075557
21.190000	-137.856309
21.200000	-108.508526
21.210000	-80.085001
21.220000	-48.281163
21.230000	-21.711849
21.240000	3.283864
21.250000	-8.140559
21.260000	-50.402881
21.270000	-115.592401
21.280000	-172.388236
21.290000	-154.644882
21.300000	-99.018946
21.310000	-28.021559
21.320000	4.233788
21.330000	28.805895
21.340000	60.077542
21.350000	93.217353
21.360000	129.909257
21.370000	165.581653
21.380000	199.722099
21.390000	228.907892
21.400000	258.529032
21.410000	285.179811
21.420000	313.661628
21.430000	321.346129
21.440000	294.789133
21.450000	230.175191
21.460000	146.615850
21.470000	68.989606
21.480000	9.042620
21.490000	-30.250674
21.500000	-59.933108
21.510000	-72.136407
21.520000	-79.328812
21.530000	-77.006372
21.540000	-73.791477
21.550000	-60.859385
21.560000	-40.315188
21.570000	-29.117613
21.580000	-31.167512
21.590000	-43.722131
21.600000	-59.705863
21.610000	-68.013565
21.620000	-65.965397
21.630000	-53.677446
21.640000	-36.270165
21.650000	-21.045530
21.660000	-6.248326
21.670000	19.581383
21.680000	44.343758
21.690000	71.552744
21.700000	92.537216
21.710000	119.549693
21.720000	150.659783
21.730000	178.833965
21.740000	209.785307
21.750000	245.743223
21.760000	272.834432
21.770000	304.695808
21.780000	328.779343
21.790000	264.428970
21.800000	176.424612
21.810000	79.659286
21.820000	65.915167
21.830000	52.377424
21.840000	40.270502
21.850000	37.748483
21.860000	43.567175
21.870000	55.417028
21.880000	64.145391
21.890000	78.434824
21.900000	91.648390
21.910000	113.464215
21.920000	135.735808
21.930000	155.808659
21.940000	177.808409
21.950000	205.451797
21.960000	234.157960
21.970000	261.065986
21.980000	285.479703
21.990000	340.071323
22.000000	362.172335
22.010000	345.865197
22.020000	275.470735
22.030000	214.509086
22.040000	180.608822
22.050000	166.048990
22.060000	167.390882
22.070000	170.525036
22.080000	181.192817
22.090000	189.256056
22.100000	204.347546
22.110000	211.217126
22.120000	217.195919
22.130000	205.744153
22.140000	197.444337
22.150000	186.496700
22.160000	189.050915
22.170000	189.125430
22.180000	203.378131
22.190000	302.533541
22.200000	412.271075
22.210000	520.743900
22.220000	548.274930
22.230000	570.009919
22.240000	594.726809
22.250000	617.200997
22.260000	643.172193
22.270000	644.930129
22.280000	620.651804
22.290000	558.260755
22.300000	478.852036
22.310000	394.529385
22.320000	327.709812
22.330000	281.373696
22.340000	264.212184
22.350000	255.432448
22.360000	256.404021
22.370000	256.085546
22.380000	265.284138
22.390000	278.655725
22.400000	289.120765
22.410000	289.854380
22.420000	279.266043
22.430000	263.702272
22.440000	250.708545
22.450000	242.161685
22.460000	244.122787
22.470000	250.547921
22.480000	261.179482
22.490000	268.874959
22.500000	278.896443
22.510000	297.497401
22.520000	322.883795
22.530000	342.382269
22.540000	366.894684
22.550000	389.844392
22.560000	425.588137
22.570000	448.488207
22.580000	473.684932
22.590000	538.818294
22.600000	568.094443
22.610000	546.272092
22.620000	447.766067
22.630000	355.982219
22.640000	300.580167
22.650000	259.506854
22.660000	239.429470
22.670000	223.255664
22.680000	218.301686
22.690000	217.587520
22.700000	224.156852
22.710000	230.846533
22.720000	235.647801
22.730000	225.697127
22.740000	210.822234
22.750000	193.481741
22.760000	177.621442
22.770000	166.885981
22.780000	163.704192
22.790000	168.905803
22.800000	176.721885
22.810000	184.888076
22.820000	200.049966
22.830000	224.143085
22.840000	246.294962
22.850000	263.705444
22.860000	277.836597
22.870000	301.918141
22.880000	328.606156
22.890000	351.751631
22.900000	376.022683
22.910000	402.859925
22.920000	427.371893
22.930000	443.247466
22.940000	457.707821
22.950000	479.922978
22.960000	504.285510
22.970000	528.890735
22.980000	551.143102
22.990000	576.495453
23.000000	599.585564
23.010000	616.384790
23.020000	611.611119
23.030000	568.550570
23.040000	487.630500
23.050000	383.033911
23.060000	286.310390
23.070000	203.058479
23.080000	157.319798
23.090000	135.591815
23.100000	127.950608
23.110000	120.391872
23.120000	122.256486
23.130000	133.109045
23.140000	143.481206
23.150000	140.426667
23.160000	130.034560
23.170000	112.337021
23.180000	92.544519
23.190000	115.297737
23.200000	157.476778
23.210000	212.913099
23.220000	246.270026
23.230000	271.604904
23.240000	302.001053
23.250000	331.517921
23.260000	370.717207
23.270000	410.315906
23.280000	464.102536
23.290000	523.992624
23.300000	597.134845
23.310000	671.554953
23.320000	751.817035
23.330000	816.650437
23.340000	844.769613
23.350000	818.024607
23.360000	754.758803
23.370000	677.011612
23.380000	607.351761
23.390000	554.228441
23.400000	509.834964
23.410000	444.987736
23.420000	267.022686
23.430000	-21.198112
23.440000	-337.757013
23.450000	-576.851238
23.460000	-812.694212
23.470000	-1123.127589
23.480000	-1469.814607
23.490000	-1740.269007
23.500000	-1942.394056
23.510000	-2072.597281
23.520000	-2137.173011
23.530000	-2131.632641
23.540000	-2073.415893
23.550000	-1976.729807
23.560000	-1874.781951
23.570000	-1781.511998
23.580000	-1700.190263
23.590000	-1621.999485
23.600000	-1541.680432
23.610000	-1478.292761
23.620000	-1417.484734
23.630000	-1355.354197
23.640000	-1299.393339
23.650000	-1248.799400
23.660000	-1189.672723
23.670000	-1112.664043
23.680000	-1043.789700
23.690000	-989.549049
23.700000	-925.896921
23.710000	-862.935477
23.720000	-833.474301
23.730000	-870.396716
23.740000	-950.973691
23.750000	-1030.873515
23.760000	-1080.254574
23.770000	-1093.157733
23.780000	-1085.002787
23.790000	-1061.156399
23.800000	-1040.196121
23.810000	-1017.166034
23.820000	-970.085062
23.830000	-883.268752
23.840000	-783.834099
23.850000	-714.824496
23.860000	-677.878768
23.870000	-663.425537
23.880000	-651.303835
23.890000	-649.179213
23.900000	-635.391283
23.910000	-609.400540
23.920000	-576.237048
23.930000	-542.368880
23.940000	-508.476685
23.950000	-463.715364
23.960000	-415.175414
23.970000	-373.147161
23.980000	-335.583474
23.990000	-299.987629
24.000000	-265.071445
24.010000	-229.905693
24.020000	-195.307504
24.030000	-162.234113
24.040000	-132.288656
24.050000	-99.618719
24.060000	-63.694433
24.070000	-46.140858
24.080000	-69.512788
24.090000	-60.374117
