Time(s)	GREEN_denoised_median
0.000000	-460.811830
0.010000	-460.811830
0.020000	-460.811830
0.030000	-424.409653
0.040000	-379.817352
0.050000	-322.391554
0.060000	-241.791595
0.070000	-149.416646
0.080000	-45.718359
0.090000	68.575809
0.100000	191.370317
0.110000	317.580145
0.120000	450.503003
0.130000	593.606827
0.140000	737.623477
0.150000	885.691240
0.160000	1034.751472
0.170000	1184.809489
0.180000	1332.897594
0.190000	1476.957397
0.200000	1625.099668
0.210000	1772.097544
0.220000	1915.338637
0.230000	2062.295938
0.240000	2202.559860
0.250000	2327.531484
0.260000	2327.531484
0.270000	2327.531484
0.280000	2146.036731
0.290000	1864.169902
0.300000	1584.530713
0.310000	1357.503997
0.320000	1195.959120
0.330000	1089.813221
0.340000	1025.416595
0.350000	983.145592
0.360000	983.145592
0.370000	983.145592
0.380000	1011.428234
0.390000	1048.057564
0.400000	1048.057564
0.410000	1048.057564
0.420000	1035.649799
0.430000	1004.126886
0.440000	979.010870
0.450000	979.010870
0.460000	979.010870
0.470000	1004.438571
0.480000	1048.765058
0.490000	1103.126297
0.500000	1164.584647
0.510000	1240.893095
0.520000	1322.406740
0.530000	1406.730668
0.540000	1493.285247
0.550000	1582.623336
0.560000	1677.221570
0.570000	1777.563602
0.580000	1874.184168
0.590000	1975.607395
0.600000	2070.145880
0.610000	2174.785063
0.620000	2283.098896
0.630000	2391.025298
0.640000	2511.154179
0.650000	2625.237810
0.660000	2734.319850
0.670000	2734.319850
0.680000	2734.319850
0.690000	2540.646907
0.700000	2233.962131
0.710000	1914.107503
0.720000	1635.378465
0.730000	1422.546953
0.740000	1267.765454
0.750000	1156.027281
0.760000	1072.212957
0.770000	1008.588995
0.780000	1008.588995
0.790000	1003.087461
0.800000	1002.705117
0.810000	1002.705117
0.820000	976.157440
0.830000	938.416492
0.840000	901.945637
0.850000	887.044728
0.860000	887.044728
0.870000	887.044728
0.880000	916.620289
0.890000	957.956676
0.900000	1011.556679
0.910000	1078.935710
0.920000	1152.532628
0.930000	1231.999222
0.940000	1316.572277
0.950000	1403.121235
0.960000	1493.691301
0.970000	1578.275455
0.980000	1663.922619
0.990000	1744.458936
1.000000	1811.212776
1.010000	1878.772111
1.020000	1935.496804
1.030000	1987.199218
1.040000	2043.858351
1.050000	2100.651810
1.060000	2161.309578
1.070000	2224.155785
1.080000	2224.155785
1.090000	2224.155785
1.100000	2183.370530
1.110000	1932.226009
1.120000	1607.188149
1.130000	1291.995639
1.140000	1025.949847
1.150000	833.791342
1.160000	705.682565
1.170000	615.608525
1.180000	562.346256
1.190000	562.346256
1.200000	562.346256
1.210000	594.551360
1.220000	594.551360
1.230000	594.551360
1.240000	573.292849
1.250000	520.741767
1.260000	467.425136
1.270000	426.921989
1.280000	400.588629
1.290000	400.588629
1.300000	400.588629
1.310000	413.411346
1.320000	440.203291
1.330000	481.708474
1.340000	526.601009
1.350000	577.106676
1.360000	628.042088
1.370000	687.605195
1.380000	752.515053
1.390000	817.160574
1.400000	881.065222
1.410000	943.778965
1.420000	1007.685948
1.430000	1076.463506
1.440000	1145.345903
1.450000	1217.231331
1.460000	1294.065282
1.470000	1294.065282
1.480000	1294.065282
1.490000	1158.789270
1.500000	898.738038
1.510000	598.818069
1.520000	324.739362
1.530000	109.818383
1.540000	-35.261237
1.550000	-131.207533
1.560000	-186.167596
1.570000	-186.167596
1.580000	-186.167596
1.590000	-155.143894
1.600000	-114.492304
1.610000	-114.492304
1.620000	-114.492304
1.630000	-151.728680
1.640000	-199.193235
1.650000	-243.374009
1.660000	-272.842606
1.670000	-272.842606
1.680000	-272.842606
1.690000	-259.607990
1.700000	-225.876098
1.710000	-173.191594
1.720000	-116.320438
1.730000	-45.652615
1.740000	33.248950
1.750000	121.961147
1.760000	215.856241
1.770000	311.633268
1.780000	417.549762
1.790000	514.283892
1.800000	616.390347
1.810000	728.962312
1.820000	839.235428
1.830000	952.744292
1.840000	1056.081536
1.850000	1056.081536
1.860000	1056.081536
1.870000	867.446157
1.880000	574.952056
1.890000	259.531528
1.900000	-13.977532
1.910000	-216.429978
1.920000	-361.975163
1.930000	-465.342495
1.940000	-533.902288
1.950000	-562.108373
1.960000	-562.108373
1.970000	-562.108373
1.980000	-520.511098
1.990000	-503.636421
2.000000	-503.636421
2.010000	-503.636421
2.020000	-535.938697
2.030000	-569.304501
2.040000	-578.147627
2.050000	-578.147627
2.060000	-578.147627
2.070000	-548.580184
2.080000	-501.646848
2.090000	-438.180630
2.100000	-367.122210
2.110000	-285.703019
2.120000	-197.569524
2.130000	-98.157417
2.140000	5.997890
2.150000	122.471932
2.160000	236.548847
2.170000	352.197143
2.180000	471.137950
2.190000	590.955084
2.200000	714.786174
2.210000	832.720824
2.220000	950.520843
2.230000	1066.509294
2.240000	1066.509294
2.250000	1066.509294
2.260000	953.008828
2.270000	669.221021
2.280000	351.008748
2.290000	68.194244
2.300000	-151.064441
2.310000	-307.871863
2.320000	-410.115500
2.330000	-474.922868
2.340000	-505.103648
2.350000	-505.103648
2.360000	-505.103648
2.370000	-462.830585
2.380000	-453.963567
2.390000	-453.963567
2.400000	-453.963567
2.410000	-488.542166
2.420000	-528.815143
2.430000	-560.316001
2.440000	-560.316001
2.450000	-560.316001
2.460000	-533.418546
2.470000	-495.845450
2.480000	-446.136967
2.490000	-378.554688
2.500000	-302.861836
2.510000	-221.207114
2.520000	-126.525727
2.530000	-27.868352
2.540000	71.862496
2.550000	180.534997
2.560000	291.244929
2.570000	401.986361
2.580000	512.666956
2.590000	620.464340
2.600000	731.146462
2.610000	842.955304
2.620000	946.638806
2.630000	1036.099022
2.640000	1036.099022
2.650000	1036.099022
2.660000	838.526034
2.670000	554.866985
2.680000	276.212273
2.690000	47.539920
2.700000	-114.146977
2.710000	-217.827438
2.720000	-275.483687
2.730000	-275.483687
2.740000	-275.483687
2.750000	-255.469839
2.760000	-198.053586
2.770000	-151.769209
2.780000	-151.769209
2.790000	-151.769209
2.800000	-180.434000
2.810000	-215.242347
2.820000	-239.543353
2.830000	-239.543353
2.840000	-239.543353
2.850000	-213.745850
2.860000	-179.615932
2.870000	-128.948129
2.880000	-66.642691
2.890000	-1.133889
2.900000	76.403923
2.910000	158.661748
2.920000	248.503933
2.930000	347.478967
2.940000	446.599945
2.950000	547.349619
2.960000	652.724530
2.970000	756.218322
2.980000	868.921328
2.990000	972.028523
3.000000	1007.543068
3.010000	1007.543068
3.020000	1007.543068
3.030000	776.428247
3.040000	479.172108
3.050000	180.170350
3.060000	-59.185558
3.070000	-248.260654
3.080000	-369.448230
3.090000	-457.815732
3.100000	-502.564643
3.110000	-502.564643
3.120000	-502.564643
3.130000	-476.371991
3.140000	-429.122338
3.150000	-429.122338
3.160000	-429.122338
3.170000	-476.820778
3.180000	-496.471525
3.190000	-542.064056
3.200000	-542.064056
3.210000	-542.064056
3.220000	-523.359445
3.230000	-523.143530
3.240000	-443.537825
3.250000	-427.793713
3.260000	-322.097600
3.270000	-296.101619
3.280000	-296.101619
3.290000	-296.101619
3.300000	-1244.453968
3.310000	-1244.767832
3.320000	-1244.767832
3.330000	-1244.767832
3.340000	-1180.978729
3.350000	-1162.172263
3.360000	-1064.296975
3.370000	-1019.478717
3.380000	-910.918806
3.390000	-841.375680
3.400000	-725.010317
3.410000	-644.723967
3.420000	-528.664840
3.430000	-437.424254
3.440000	-318.998523
3.450000	-224.396057
3.460000	-103.041956
3.470000	-17.667990
3.480000	95.272350
3.490000	197.791947
3.500000	314.769895
3.510000	413.103035
3.520000	461.065980
3.530000	461.065980
3.540000	461.065980
3.550000	228.438194
3.560000	-88.038834
3.570000	-407.275923
3.580000	-672.200438
3.590000	-872.108404
3.600000	-1014.402964
3.610000	-1115.958263
3.620000	-1194.599638
3.630000	-1254.763046
3.640000	-1260.986403
3.650000	-1260.986403
3.660000	-1274.575627
3.670000	-1274.575627
3.680000	-1260.986403
3.690000	-1255.321794
3.700000	-1174.060637
3.710000	-1080.782642
3.720000	-993.916421
3.730000	-892.783722
3.740000	-801.889311
3.750000	-693.634779
3.760000	-592.999762
3.770000	-487.375813
3.780000	-393.183217
3.790000	-288.003504
3.800000	-193.481079
3.810000	-85.498944
3.820000	14.101347
3.830000	123.120967
3.840000	217.575426
3.850000	217.575426
3.860000	217.575426
3.870000	71.755382
3.880000	-205.952869
3.890000	-488.008923
3.900000	-734.882628
3.910000	-902.755377
3.920000	-1039.056981
3.930000	-1108.268021
3.940000	-1171.490768
3.950000	-1171.490768
3.960000	-1171.490768
3.970000	-1136.547162
3.980000	-1111.035663
3.990000	-1111.035663
4.000000	-1111.035663
4.010000	-1111.541695
4.020000	-1175.916764
4.030000	-1177.294773
4.040000	-1183.411143
4.050000	-1183.411143
4.060000	-1183.411143
4.070000	-1117.758718
4.080000	-1112.938408
4.090000	-1000.138298
4.100000	60.063782
4.110000	219.105749
4.120000	279.353409
4.130000	428.668565
4.140000	498.671229
4.150000	640.114629
4.160000	723.225368
4.170000	862.237764
4.180000	930.464337
4.190000	930.464337
4.200000	930.464337
4.210000	754.144520
4.220000	441.444986
4.230000	167.049894
4.240000	-105.146009
4.250000	-276.667750
4.260000	-437.246539
4.270000	-514.933900
4.280000	-603.795569
4.290000	-628.167105
4.300000	-628.167105
4.310000	-628.167105
4.320000	-627.976213
4.330000	-627.976213
4.340000	-627.976213
4.350000	-634.418789
4.360000	-701.411187
4.370000	-708.139108
4.380000	-708.139108
4.390000	-708.139108
4.400000	27.774164
4.410000	174.502679
4.420000	251.169724
4.430000	391.035873
4.440000	472.874954
4.450000	600.195048
4.460000	679.046676
4.470000	798.866819
4.480000	885.778841
4.490000	1008.940523
4.500000	1102.148379
4.510000	1224.367233
4.520000	1270.971352
4.530000	1270.971352
4.540000	1270.971352
4.550000	1073.976204
4.560000	789.673074
4.570000	522.251358
4.580000	296.165310
4.590000	140.548893
4.600000	28.513214
4.610000	-42.076034
4.620000	-100.203071
4.630000	-109.115218
4.640000	-109.115218
4.650000	-109.115218
4.660000	-109.115218
4.670000	-109.115218
4.680000	-125.592008
4.690000	-180.798754
4.700000	-243.454927
4.710000	-289.043698
4.720000	-312.281257
4.730000	-312.281257
4.740000	-312.281257
4.750000	-287.482441
4.760000	-238.216631
4.770000	-171.683826
4.780000	-102.161666
4.790000	-21.814671
4.800000	66.874791
4.810000	161.063349
4.820000	255.915662
4.830000	368.010097
4.840000	472.853666
4.850000	571.035697
4.860000	678.844774
4.870000	779.981798
4.880000	881.911170
4.890000	984.918211
4.900000	1086.981267
4.910000	1206.921911
4.920000	1325.958117
4.930000	1423.895101
4.940000	1423.895101
4.950000	1423.895101
4.960000	1231.026478
4.970000	961.938785
4.980000	687.268608
4.990000	458.940856
5.000000	278.381752
5.010000	159.988192
5.020000	81.403516
5.030000	23.052658
5.040000	10.575213
5.050000	10.575213
5.060000	10.575213
5.070000	44.169601
5.080000	44.169601
5.090000	44.169601
5.100000	16.890918
5.110000	-22.708873
5.120000	-61.003156
5.130000	-71.414979
5.140000	-71.414979
5.150000	-71.414979
5.160000	-35.766598
5.170000	6.671665
5.180000	66.448661
5.190000	135.716014
5.200000	212.688729
5.210000	299.779972
5.220000	390.913480
5.230000	485.867930
5.240000	592.167341
5.250000	695.904778
5.260000	807.495669
5.270000	926.920539
5.280000	1048.816799
5.290000	1156.913715
5.300000	1177.555468
5.310000	1177.555468
5.320000	1177.555468
5.330000	958.799591
5.340000	692.121126
5.350000	430.780988
5.360000	223.681295
5.370000	61.609097
5.380000	-45.700317
5.390000	-88.467202
5.400000	-88.467202
5.410000	-88.467202
5.420000	-48.415030
5.430000	-11.476582
5.440000	45.110391
5.450000	99.396315
5.460000	186.798299
5.470000	256.035860
5.480000	362.784585
5.490000	443.352008
5.500000	569.146231
5.510000	656.245668
5.520000	795.993225
5.530000	880.596189
5.540000	1031.473398
5.550000	1110.236585
5.560000	1264.743037
5.570000	1329.018101
5.580000	1329.018101
5.590000	1329.018101
5.600000	29.712900
5.610000	-5.316506
5.620000	-5.316506
5.630000	-5.316506
5.640000	-5.316506
5.650000	-57.986795
5.660000	-75.898032
5.670000	-95.297394
5.680000	-95.297394
5.690000	-95.297394
5.700000	673.590858
5.710000	786.604784
5.720000	873.946664
5.730000	981.902712
5.740000	1072.069146
5.750000	1158.878320
5.760000	1158.878320
5.770000	1158.878320
5.780000	968.854724
5.790000	709.702521
5.800000	431.684887
5.810000	209.591548
5.820000	38.292722
5.830000	-77.495494
5.840000	-156.166314
5.850000	-181.604811
5.860000	-181.604811
5.870000	-181.604811
5.880000	-139.142450
5.890000	-120.550484
5.900000	-120.550484
5.910000	-120.550484
5.920000	-165.317490
5.930000	-209.439737
5.940000	-239.937909
5.950000	-240.257107
5.960000	-240.257107
5.970000	-240.257107
5.980000	-212.281998
5.990000	-172.147968
6.000000	-124.993934
6.010000	-60.003193
6.020000	6.210332
6.030000	84.207491
6.040000	166.355630
6.050000	254.434759
6.060000	345.478352
6.070000	434.647073
6.080000	528.622633
6.090000	632.845618
6.100000	733.703947
6.110000	829.064773
6.120000	829.064773
6.130000	829.064773
6.140000	666.820326
6.150000	397.382626
6.160000	102.034334
6.170000	-160.435259
6.180000	-364.857011
6.190000	-516.349657
6.200000	-620.764003
6.210000	-694.306442
6.220000	-699.557353
6.230000	-699.557353
6.240000	-699.557353
6.250000	-669.368368
6.260000	-669.368368
6.270000	-669.368368
6.280000	-711.315694
6.290000	-755.366864
6.300000	-796.260773
6.310000	-817.350902
6.320000	-817.350902
6.330000	-817.350902
6.340000	-792.412872
6.350000	-757.230012
6.360000	-706.513560
6.370000	-648.232273
6.380000	-581.608774
6.390000	-506.254379
6.400000	-420.720078
6.410000	-326.303251
6.420000	-228.863353
6.430000	-131.363826
6.440000	-31.010685
6.450000	69.540549
6.460000	171.833221
6.470000	276.421702
6.480000	379.644833
6.490000	452.977145
6.500000	452.977145
6.510000	452.977145
6.520000	245.195620
6.530000	-64.126223
6.540000	-396.912591
6.550000	-693.301869
6.560000	-927.135846
6.570000	-1105.591772
6.580000	-1239.391755
6.590000	-1343.917604
6.600000	-1427.652052
6.610000	-1481.217917
6.620000	-1489.625913
6.630000	-1493.262151
6.640000	-1494.935242
6.650000	-1513.000981
6.660000	-1553.606886
6.670000	-1605.360810
6.680000	-1656.971981
6.690000	-1693.736067
6.700000	-1694.825089
6.710000	-1694.825089
6.720000	-1694.825089
6.730000	-1661.606777
6.740000	-1618.294646
6.750000	-1559.052799
6.760000	-1492.830202
6.770000	-1410.474538
6.780000	-1323.447842
6.790000	-1231.890672
6.800000	-1136.091393
6.810000	-1039.340562
6.820000	-931.724187
6.830000	-824.875135
6.840000	-718.349298
6.850000	-617.450964
6.860000	-513.962714
6.870000	-409.078054
6.880000	-311.622470
6.890000	-207.667991
6.900000	-96.343389
6.910000	3.663090
6.920000	3.663090
6.930000	3.663090
6.940000	-21.705157
6.950000	-277.974398
6.960000	-598.252396
6.970000	-905.705297
6.980000	-1159.924635
6.990000	-1353.551875
7.000000	-1502.686153
7.010000	-1615.401200
7.020000	-1703.482585
7.030000	-1764.235392
7.040000	-1767.163677
7.050000	-1770.024300
7.060000	-1775.151511
7.070000	-1775.151511
7.080000	-1798.089987
7.090000	-1840.852737
7.100000	-1886.035225
7.110000	-1925.716761
7.120000	-1941.980914
7.130000	-1941.980914
7.140000	-1941.980914
7.150000	-1913.575923
7.160000	-1870.986089
7.170000	-1812.534733
7.180000	-1742.028451
7.190000	-1664.518828
7.200000	-1576.067715
7.210000	-1479.542926
7.220000	-1379.131620
7.230000	-1273.572773
7.240000	-1165.225869
7.250000	-1055.620420
7.260000	-944.334509
7.270000	-828.681262
7.280000	-715.488355
7.290000	-603.739283
7.300000	-490.655731
7.310000	-377.827312
7.320000	-272.857274
7.330000	-163.879151
7.340000	-48.100657
7.350000	71.035337
7.360000	186.630290
7.370000	297.950950
7.380000	297.950950
7.390000	297.950950
7.400000	104.853150
7.410000	-179.064698
7.420000	-476.483569
7.430000	-720.984104
7.440000	-919.033719
7.450000	-1057.863550
7.460000	-1160.695223
7.470000	-1226.689034
7.480000	-1277.369361
7.490000	-1277.369361
7.500000	-1277.369361
7.510000	-1263.298470
7.520000	-1263.298470
7.530000	-1263.298470
7.540000	-1313.801681
7.550000	-1351.410152
7.560000	-1400.336728
7.570000	-1401.965614
7.580000	-1401.965614
7.590000	-1401.965614
7.600000	-1391.299911
7.610000	-1326.223581
7.620000	-1293.902096
7.630000	-1203.999056
7.640000	-1157.032996
7.650000	-1043.200863
7.660000	-988.815872
7.670000	-857.684604
7.680000	-806.405307
7.690000	-656.249178
7.700000	412.765228
7.710000	571.910649
7.720000	632.185809
7.730000	632.185809
7.740000	632.185809
7.750000	494.496403
7.760000	220.508184
7.770000	5.474861
7.780000	-217.289792
7.790000	-343.072220
7.800000	-459.612115
7.810000	-502.195794
7.820000	-524.321587
7.830000	-524.321587
7.840000	-524.321587
7.850000	-464.469327
7.860000	-441.981064
7.870000	-441.981064
7.880000	-441.981064
7.890000	-468.762608
7.900000	-505.523037
7.910000	-511.400678
7.920000	-511.400678
7.930000	-511.400678
7.940000	-485.064376
7.950000	-439.029674
7.960000	-389.965925
7.970000	-329.576228
7.980000	-259.881348
7.990000	-175.086256
8.000000	-88.834504
8.010000	7.481086
8.020000	105.181721
8.030000	217.125038
8.040000	323.125248
8.050000	436.880715
8.060000	545.013667
8.070000	657.720996
8.080000	768.877705
8.090000	875.591195
8.100000	979.776575
8.110000	1089.500497
8.120000	1199.662062
8.130000	1315.461446
8.140000	1423.520441
8.150000	1483.608982
8.160000	1483.608982
8.170000	1483.608982
8.180000	1292.024981
8.190000	1045.976412
8.200000	802.826054
8.210000	611.347879
8.220000	468.512970
8.230000	381.776759
8.240000	311.098539
8.250000	295.275996
8.260000	295.275996
8.270000	295.275996
8.280000	331.826029
8.290000	378.295692
8.300000	378.295692
8.310000	378.295692
8.320000	362.023140
8.330000	342.060471
8.340000	318.812148
8.350000	318.812148
8.360000	318.812148
8.370000	361.937695
8.380000	383.736766
8.390000	460.544429
8.400000	1465.181918
8.410000	1588.822876
8.420000	1685.979636
8.430000	1791.889063
8.440000	1901.705635
8.450000	2002.973136
8.460000	2131.603676
8.470000	2215.800969
8.480000	2215.800969
8.490000	2215.800969
8.500000	1096.043016
8.510000	1089.108773
8.520000	1089.108773
8.530000	1089.523425
8.540000	1089.523425
8.550000	1089.108773
8.560000	1072.694899
8.570000	1020.579426
8.580000	1000.204183
8.590000	1000.204183
8.600000	1000.204183
8.610000	1022.297550
8.620000	1051.495501
8.630000	1110.326919
8.640000	1150.980778
8.650000	1234.700826
8.660000	1289.144393
8.670000	1402.561283
8.680000	1454.781257
8.690000	1585.180506
8.700000	2654.445358
8.710000	2801.370143
8.720000	2801.370143
8.730000	2801.370143
8.740000	2719.868261
8.750000	2522.810531
8.760000	2238.775035
8.770000	2026.586671
8.780000	1825.124931
8.790000	1714.798820
8.800000	1612.071882
8.810000	1574.445728
8.820000	1574.445728
8.830000	1574.445728
8.840000	1586.234313
8.850000	1640.593403
8.860000	1640.593403
8.870000	1640.593403
8.880000	1628.807517
8.890000	1597.745074
8.900000	1548.921017
8.910000	1528.668812
8.920000	1528.668812
8.930000	1528.668812
8.940000	1535.771366
8.950000	1566.018112
8.960000	1600.638113
8.970000	1637.336913
8.980000	1673.550717
8.990000	1715.726926
9.000000	1763.490901
9.010000	1828.195311
9.020000	1889.389731
9.030000	1959.800638
9.040000	2044.312653
9.050000	2143.439388
9.060000	2248.254864
9.070000	2362.156977
9.080000	2471.194176
9.090000	2576.961765
9.100000	2675.161531
9.110000	2772.841665
9.120000	2861.128804
9.130000	2921.714558
9.140000	2921.714558
9.150000	2921.714558
9.160000	2719.095542
9.170000	2434.870459
9.180000	2135.247669
9.190000	1865.008575
9.200000	1650.389489
9.210000	1492.116805
9.220000	1381.545287
9.230000	1304.248401
9.240000	1251.756208
9.250000	1251.756208
9.260000	1251.756208
9.270000	1249.905735
9.280000	1249.905735
9.290000	1249.905735
9.300000	1205.576564
9.310000	1148.239165
9.320000	1093.944766
9.330000	1044.567718
9.340000	1013.377768
9.350000	1013.377768
9.360000	1013.377768
9.370000	1024.222716
9.380000	1057.366899
9.390000	1102.592660
9.400000	1153.894435
9.410000	1216.021537
9.420000	1284.425216
9.430000	1360.494886
9.440000	1439.968006
9.450000	1524.010040
9.460000	1616.544626
9.470000	1707.512390
9.480000	1797.174529
9.490000	1889.047946
9.500000	1976.800964
9.510000	1976.800964
9.520000	1976.800964
9.530000	1938.128916
9.540000	1696.073932
9.550000	1394.869347
9.560000	1096.810455
9.570000	842.568852
9.580000	644.486861
9.590000	572.742795
9.600000	572.742795
9.610000	572.742795
9.620000	661.969394
9.630000	754.556351
9.640000	863.623472
9.650000	970.294160
9.660000	1074.340092
9.670000	1170.703593
9.680000	1170.703593
9.690000	1170.703593
9.700000	979.744381
9.710000	683.493889
9.720000	366.692461
9.730000	83.204855
9.740000	-137.421635
9.750000	-310.202823
9.760000	-432.484310
9.770000	-523.669056
9.780000	-586.500060
9.790000	-586.500060
9.800000	-586.500060
9.810000	-574.092759
9.820000	-574.092759
9.830000	-574.092759
9.840000	-612.547716
9.850000	-672.631670
9.860000	-718.405801
9.870000	-771.334671
9.880000	-786.678007
9.890000	-786.678007
9.900000	-786.678007
9.910000	-770.254260
9.920000	-730.142480
9.930000	-692.419264
9.940000	-624.457821
9.950000	-569.806382
9.960000	-485.549365
9.970000	-423.468058
9.980000	-423.468058
9.990000	-423.468058
10.000000	-767.485957
10.010000	-1029.721304
10.020000	-1210.459043
10.030000	-1363.610366
10.040000	-1464.235421
10.050000	-1549.691144
10.060000	-1577.544894
10.070000	-1577.544894
10.080000	-1586.314478
10.090000	-1586.314478
10.100000	-1586.314478
10.110000	-1616.137841
10.120000	-1684.249287
10.130000	-1723.965291
10.140000	-1787.537716
10.150000	-1797.604947
10.160000	-1799.469478
10.170000	-1799.469478
10.180000	-1797.604947
10.190000	-1742.167259
10.200000	-936.243999
10.210000	-814.490811
10.220000	-755.424141
10.230000	-640.227431
10.240000	-640.227431
10.250000	-640.227431
10.260000	-681.753086
10.270000	-899.224737
10.280000	-1220.525330
10.290000	-1497.495145
10.300000	-1748.792082
10.310000	-1913.584089
10.320000	-2050.424117
10.330000	-2135.484665
10.340000	-2205.357151
10.350000	-2205.357151
10.360000	-2205.357151
10.370000	-2171.275877
10.380000	-2171.275877
10.390000	-2171.275877
10.400000	-2226.208684
10.410000	-2281.573058
10.420000	-2345.894945
10.430000	-2387.802952
10.440000	-2417.738707
10.450000	-2417.738707
10.460000	-2417.738707
10.470000	-2400.211560
10.480000	-2374.763432
10.490000	-2331.361193
10.500000	-2281.954372
10.510000	-2216.495201
10.520000	-2148.254397
10.530000	-2061.595083
10.540000	-1984.720320
10.550000	-1888.583416
10.560000	-1810.414160
10.570000	-1715.419998
10.580000	-1630.323186
10.590000	-1531.163765
10.600000	-1446.422778
10.610000	-1354.817519
10.620000	-1354.817519
10.630000	-1354.817519
10.640000	-1532.272286
10.650000	-1790.737880
10.660000	-2087.967223
10.670000	-2325.867661
10.680000	-2325.867661
10.690000	-2325.867661
10.700000	-2304.337816
10.710000	-2182.646282
10.720000	-2097.354500
10.730000	-1976.811643
10.740000	-1882.785103
10.750000	-1767.724200
10.760000	-1671.503230
10.770000	-1559.479442
10.780000	-1455.429096
10.790000	-1346.180413
10.800000	-1323.855787
10.810000	-1323.855787
10.820000	-1323.855787
10.830000	-1549.368651
10.840000	-1875.234822
10.850000	-2190.629421
10.860000	-2466.885946
10.870000	-2674.935371
10.880000	-2838.728816
10.890000	-2948.193818
10.900000	-3044.758887
10.910000	-3105.320560
10.920000	-3118.267037
10.930000	-3118.267037
10.940000	-3129.434235
10.950000	-3129.434235
10.960000	-3129.728558
10.970000	-3167.484865
10.980000	-3218.263733
10.990000	-3254.448516
11.000000	-3264.820135
11.010000	-3264.820135
11.020000	-3264.820135
11.030000	-3230.170060
11.040000	-3191.837123
11.050000	-3119.895703
11.060000	-3048.068963
11.070000	-2948.491698
11.080000	-2861.527160
11.090000	-2743.896361
11.100000	-2743.896361
11.110000	-2743.896361
11.120000	-2799.550177
11.130000	-2799.550177
11.140000	-2799.550177
11.150000	-2766.718404
11.160000	-2766.718404
11.170000	-2766.718404
11.180000	-2756.025185
11.190000	-2730.880639
11.200000	-2297.758971
11.210000	-2164.883420
11.220000	-2075.086676
11.230000	-1937.757010
11.240000	-1835.919129
11.250000	-1700.239146
11.260000	-1590.131366
11.270000	-1458.453931
11.280000	-1351.625021
11.290000	-1217.421363
11.300000	-1110.434741
11.310000	-990.149371
11.320000	-880.442216
11.330000	-747.739575
11.340000	-624.650543
11.350000	-486.189749
11.360000	-357.012445
11.370000	-221.545739
11.380000	-221.545739
11.390000	-221.545739
11.400000	-255.094447
11.410000	-473.095176
11.420000	-711.564354
11.430000	-900.271276
11.440000	-1036.228706
11.450000	-1115.453450
11.460000	-1171.002651
11.470000	-1200.545330
11.480000	-1200.545330
11.490000	-1200.545330
11.500000	-1166.754799
11.510000	-1123.557466
11.520000	-1110.588943
11.530000	-1110.588943
11.540000	-1110.588943
11.550000	-1125.489280
11.560000	-1125.489280
11.570000	-1125.489280
11.580000	-1117.386384
11.590000	-1082.445645
11.600000	-1038.290766
11.610000	-980.393112
11.620000	-913.211512
11.630000	-838.323274
11.640000	-755.115779
11.650000	-659.231604
11.660000	-564.056143
11.670000	-461.066035
11.680000	-355.018160
11.690000	-238.852087
11.700000	-129.027755
11.710000	-6.522556
11.720000	107.872531
11.730000	220.902945
11.740000	327.762536
11.750000	439.394253
11.760000	541.607166
11.770000	659.016906
11.780000	775.365392
11.790000	898.733362
11.800000	1016.093690
11.810000	1085.398734
11.820000	1085.398734
11.830000	1085.398734
11.840000	922.386629
11.850000	741.582686
11.860000	573.959186
11.870000	468.852606
11.880000	390.334131
11.890000	390.334131
11.900000	390.334131
11.910000	398.204295
11.920000	430.390469
11.930000	516.390782
11.940000	564.938081
11.950000	621.144718
11.960000	621.144718
11.970000	629.017278
11.980000	636.066265
11.990000	644.212507
12.000000	1294.809126
12.010000	1437.287587
12.020000	1510.178305
12.030000	1643.691588
12.040000	1727.940900
12.050000	1860.719830
12.060000	1944.221057
12.070000	2067.316547
12.080000	2149.091569
12.090000	2272.420738
12.100000	2358.576759
12.110000	2482.005062
12.120000	2563.700805
12.130000	2563.700805
12.140000	2563.700805
12.150000	2457.394601
12.160000	2215.156435
12.170000	2003.340003
12.180000	1791.432289
12.190000	1669.683193
12.200000	1547.277707
12.210000	1512.586158
12.220000	1447.186710
12.230000	1447.186710
12.240000	1447.186710
12.250000	1463.517543
12.260000	1463.517543
12.270000	1469.519978
12.280000	1473.976499
12.290000	1519.694927
12.300000	2502.278158
12.310000	2642.547856
12.320000	2686.177219
12.330000	2818.530676
12.340000	2871.181152
12.350000	2906.097994
12.360000	2906.097994
12.370000	2906.097994
12.380000	2673.193256
12.390000	2426.532432
12.400000	2151.640005
12.410000	1959.391602
12.420000	1785.687100
12.430000	1681.648640
12.440000	1592.525266
12.450000	1542.203969
12.460000	1494.280579
12.470000	1494.280579
12.480000	1491.991069
12.490000	1491.780913
12.500000	1491.780913
12.510000	1460.973774
12.520000	1408.644156
12.530000	1348.148431
12.540000	1301.617384
12.550000	1259.321820
12.560000	1257.206248
12.570000	1257.206248
12.580000	1257.206248
12.590000	1264.402719
12.600000	1314.972827
12.610000	1344.155966
12.620000	1418.187672
12.630000	1456.595030
12.640000	1550.964131
12.650000	1596.584262
12.660000	1704.422538
12.670000	1741.994661
12.680000	1741.994661
12.690000	1741.994661
12.700000	1104.592849
12.710000	1068.497147
12.720000	1059.098316
12.730000	1049.351500
12.740000	1027.575894
12.750000	941.057831
12.760000	908.245650
12.770000	851.499303
12.780000	851.499303
12.790000	851.499303
12.800000	893.297700
12.810000	926.627629
12.820000	1002.591793
12.830000	1057.856158
12.840000	1141.286856
12.850000	1206.917145
12.860000	1291.301604
12.870000	1356.867674
12.880000	1445.628176
12.890000	1522.700331
12.900000	1612.210227
12.910000	1700.522752
12.920000	1805.973630
12.930000	1901.313563
12.940000	2004.956083
12.950000	2004.956083
12.960000	2004.956083
12.970000	1975.933270
12.980000	1745.240895
12.990000	1465.001502
13.000000	1204.648074
13.010000	984.027133
13.020000	826.157506
13.030000	708.019798
13.040000	632.832420
13.050000	576.029498
13.060000	576.029498
13.070000	576.029498
13.080000	580.616768
13.090000	580.616768
13.100000	580.616768
13.110000	570.442791
13.120000	527.900750
13.130000	481.776904
13.140000	443.185552
13.150000	421.654939
13.160000	421.654939
13.170000	421.654939
13.180000	443.069283
13.190000	482.200759
13.200000	528.636134
13.210000	588.884788
13.220000	658.263847
13.230000	732.661858
13.240000	806.980187
13.250000	894.580830
13.260000	980.710361
13.270000	1072.651234
13.280000	1169.508831
13.290000	1262.791367
13.300000	1326.366595
13.310000	1326.366595
13.320000	1326.366595
13.330000	1139.225795
13.340000	876.607063
13.350000	605.671524
13.360000	375.888207
13.370000	195.091953
13.380000	59.225516
13.390000	-38.406260
13.400000	-107.356645
13.410000	-130.182840
13.420000	-130.182840
13.430000	-130.182840
13.440000	-95.183638
13.450000	-95.183638
13.460000	-95.183638
13.470000	-123.698965
13.480000	-161.511427
13.490000	-193.832875
13.500000	-195.426696
13.510000	-195.426696
13.520000	-195.426696
13.530000	-161.965370
13.540000	-121.248872
13.550000	-64.875376
13.560000	-7.048292
13.570000	73.396388
13.580000	154.117216
13.590000	244.840433
13.600000	340.325609
13.610000	441.384880
13.620000	544.605961
13.630000	651.024890
13.640000	753.948208
13.650000	863.794799
13.660000	967.308099
13.670000	1072.706129
13.680000	1079.037345
13.690000	1079.037345
13.700000	1079.037345
13.710000	858.879162
13.720000	569.597708
13.730000	299.298847
13.740000	62.035316
13.750000	-104.135179
13.760000	-229.635087
13.770000	-316.411199
13.780000	-398.313601
13.790000	-427.173506
13.800000	-427.173506
13.810000	-427.173506
13.820000	-427.173506
13.830000	-427.173506
13.840000	-468.129155
13.850000	-502.689871
13.860000	-579.454706
13.870000	-613.288772
13.880000	-613.288772
13.890000	-613.288772
13.900000	-129.681422
13.910000	-17.264339
13.920000	47.428954
13.930000	152.165262
13.940000	221.165486
13.950000	318.052849
13.960000	377.846899
13.970000	377.846899
13.980000	377.846899
13.990000	205.804369
14.000000	-67.897394
14.010000	-346.290127
14.020000	-601.758795
14.030000	-785.252623
14.040000	-915.734123
14.050000	-1007.128656
14.060000	-1071.632316
14.070000	-1080.697706
14.080000	-1080.697706
14.090000	-1080.697706
14.100000	-1080.697706
14.110000	-1080.697706
14.120000	-1120.806759
14.130000	-1188.968776
14.140000	-1248.275854
14.150000	-1310.631464
14.160000	-1342.549961
14.170000	-1366.606036
14.180000	-1366.606036
14.190000	-1366.606036
14.200000	-1335.336741
14.210000	-1308.356898
14.220000	-1242.720222
14.230000	-1200.685134
14.240000	-1106.655859
14.250000	-1058.420465
14.260000	-950.965464
14.270000	-904.706018
14.280000	-904.706018
14.290000	-904.706018
14.300000	-1550.763553
14.310000	-1733.356920
14.320000	-1801.388009
14.330000	-1900.986118
14.340000	-1900.986118
14.350000	-1900.986118
14.360000	-1881.452484
14.370000	-1881.452484
14.380000	-1881.452484
14.390000	-1904.876846
14.400000	-1940.202425
14.410000	-2016.215399
14.420000	-2052.879783
14.430000	-2095.830431
14.440000	-2095.830431
14.450000	-2095.830431
14.460000	-2079.332918
14.470000	-2059.500289
14.480000	-2004.158790
14.490000	-1964.567997
14.500000	-1894.647791
14.510000	-1828.787030
14.520000	-1740.900825
14.530000	-1665.101332
14.540000	-1565.892402
14.550000	-1488.567039
14.560000	-1385.558217
14.570000	-1309.236281
14.580000	-1210.875166
14.590000	-1130.076671
14.600000	-1024.896429
14.610000	-953.118989
14.620000	-953.118989
14.630000	-953.118989
14.640000	-1020.783267
14.650000	-1311.109578
14.660000	-1613.361788
14.670000	-1944.043317
14.680000	-2165.442690
14.690000	-2387.583094
14.700000	-3093.473303
14.710000	-3179.690544
14.720000	-3184.938698
14.730000	-3184.938698
14.740000	-3184.938698
14.750000	-3177.751523
14.760000	-3117.178213
14.770000	-3077.284762
14.780000	-2992.095574
14.790000	-2927.100524
14.800000	-2830.612019
14.810000	-2749.106280
14.820000	-2647.825166
14.830000	-2559.215862
14.840000	-2447.770316
14.850000	-2353.450765
14.860000	-2243.432962
14.870000	-2145.769638
14.880000	-2035.867121
14.890000	-1933.124780
14.900000	-1826.131412
14.910000	-1728.462610
14.920000	-1620.217105
14.930000	-1510.793542
14.940000	-1393.169595
14.950000	-1280.089923
14.960000	-1165.982182
14.970000	-1165.982182
14.980000	-1165.982182
14.990000	-1359.590467
15.000000	-1656.217298
15.010000	-1966.597770
15.020000	-2227.607110
15.030000	-2432.665302
15.040000	-2582.922257
15.050000	-2703.702500
15.060000	-2802.089722
15.070000	-2888.650817
15.080000	-2943.073043
15.090000	-2948.086900
15.100000	-2949.231967
15.110000	-2951.516682
15.120000	-2969.993856
15.130000	-3007.794846
15.140000	-3056.786827
15.150000	-3096.210759
15.160000	-3111.222101
15.170000	-3111.222101
15.180000	-3111.222101
15.190000	-3078.615373
15.200000	-3034.824611
15.210000	-2967.586732
15.220000	-2894.395232
15.230000	-2803.362614
15.240000	-2706.916675
15.250000	-2597.967729
15.260000	-2495.391056
15.270000	-2378.344145
15.280000	-2271.870605
15.290000	-2153.467845
15.300000	-2031.752485
15.310000	-2031.752485
15.320000	-2031.752485
15.330000	-2031.752485
15.340000	-2031.752485
15.350000	-2023.143607
15.360000	-1995.010063
15.370000	-1949.140946
15.380000	-1894.544177
15.390000	-1828.971854
15.400000	-1750.943473
15.410000	-1666.685584
15.420000	-1575.183104
15.430000	-1477.263155
15.440000	-1368.264990
15.450000	-1262.749387
15.460000	-1147.123948
15.470000	-1046.193997
15.480000	-934.696818
15.490000	-840.634836
15.500000	-723.931134
15.510000	-633.166104
15.520000	-513.727436
15.530000	-419.840197
15.540000	-291.051138
15.550000	-192.700641
15.560000	-52.837081
15.570000	-27.394550
15.580000	-27.394550
15.590000	-27.394550
15.600000	-470.617697
15.610000	-470.617697
15.620000	-470.617697
15.630000	-400.726565
15.640000	-285.993615
15.650000	-200.884196
15.660000	-79.808849
15.670000	19.797836
15.680000	149.855370
15.690000	257.372372
15.700000	388.975391
15.710000	495.868562
15.720000	618.525881
15.730000	725.353636
15.740000	847.436886
15.750000	952.855559
15.760000	1075.720674
15.770000	1185.372532
15.780000	1308.356048
15.790000	1333.562223
15.800000	1333.562223
15.810000	1333.562223
15.820000	1126.474872
15.830000	864.489264
15.840000	626.040972
15.850000	429.456092
15.860000	289.804470
15.870000	189.541137
15.880000	121.806564
15.890000	65.798586
15.900000	46.435931
15.910000	46.435931
15.920000	46.435931
15.930000	77.114402
15.940000	77.114402
15.950000	77.114402
15.960000	53.819053
15.970000	16.409039
15.980000	-7.107895
15.990000	-7.107895
16.000000	-7.107895
16.010000	15.452403
16.020000	59.802430
16.030000	114.258484
16.040000	180.652155
16.050000	255.283206
16.060000	337.746207
16.070000	432.558169
16.080000	531.042183
16.090000	630.088020
16.100000	743.625997
16.110000	852.770208
16.120000	963.522063
16.130000	1079.691698
16.140000	1191.627896
16.150000	1304.903153
16.160000	1425.985746
16.170000	1537.299524
16.180000	1653.684978
16.190000	1768.891694
16.200000	1884.661259
16.210000	2002.740340
16.220000	2127.903669
16.230000	2251.812117
16.240000	2384.456900
16.250000	2512.080456
16.260000	2512.080456
16.270000	2512.080456
16.280000	2456.428285
16.290000	2202.233302
16.300000	1923.125393
16.310000	1676.149705
16.320000	1493.023498
16.330000	1353.194303
16.340000	1262.266388
16.350000	1182.393681
16.360000	1130.936193
16.370000	1117.182835
16.380000	1103.043595
16.390000	1090.774808
16.400000	1098.087040
16.410000	1098.087040
16.420000	1098.087040
16.430000	1171.989013
16.440000	1265.520799
16.450000	1353.837449
16.460000	1462.379241
16.470000	1557.812118
16.480000	1668.696422
16.490000	1767.923701
16.500000	1879.444717
16.510000	1981.200844
16.520000	2088.588855
16.530000	2182.677700
16.540000	2289.150542
16.550000	2382.309451
16.560000	2489.153975
16.570000	2585.097501
16.580000	2692.585529
16.590000	2790.064593
16.600000	2790.064593
16.610000	2790.064593
16.620000	2729.661584
16.630000	2498.457689
16.640000	2257.576598
16.650000	2029.881571
16.660000	1872.892837
16.670000	1738.321692
16.680000	1659.741570
16.690000	1582.828839
16.700000	1365.548548
16.710000	1365.548548
16.720000	1365.548548
16.730000	1397.093692
16.740000	1447.122885
16.750000	1494.833971
16.760000	1567.141976
16.770000	1632.728718
16.780000	1718.636476
16.790000	1798.793397
16.800000	1905.608093
16.810000	2012.011888
16.820000	2139.029640
16.830000	2259.416291
16.840000	2382.871786
16.850000	2501.090994
16.860000	2625.087356
16.870000	2738.010127
16.880000	2855.714296
16.890000	2963.166530
16.900000	3066.722639
16.910000	3066.722639
16.920000	3066.722639
16.930000	2917.308145
16.940000	2664.784396
16.950000	2392.443488
16.960000	2158.903746
16.970000	1982.794975
16.980000	1859.285035
16.990000	1859.285035
17.000000	1859.285035
17.010000	1952.757617
17.020000	2072.020941
17.030000	2185.458000
17.040000	2315.093185
17.050000	2432.348267
17.060000	2554.620880
17.070000	2603.724068
17.080000	2603.724068
17.090000	2603.724068
17.100000	2404.978930
17.110000	2123.285212
17.120000	1866.063609
17.130000	1623.856220
17.140000	1467.700439
17.150000	1330.378737
17.160000	1260.988131
17.170000	1177.873682
17.180000	1177.873682
17.190000	1177.873682
17.200000	1227.905009
17.210000	1239.371401
17.220000	1250.128368
17.230000	1250.128368
17.240000	1250.128368
17.250000	1228.178841
17.260000	1228.178841
17.270000	1194.306809
17.280000	1190.996743
17.290000	1163.663743
17.300000	-123.403566
17.310000	-123.403566
17.320000	-123.403566
17.330000	-108.610353
17.340000	28.179761
17.350000	65.189247
17.360000	194.232114
17.370000	248.336521
17.380000	374.479900
17.390000	437.040801
17.400000	558.770548
17.410000	633.449454
17.420000	755.946794
17.430000	836.684828
17.440000	953.917345
17.450000	953.917345
17.460000	953.917345
17.470000	844.832253
17.480000	595.028441
17.490000	276.009992
