Time(s)	IR_denoised_wiener
0.000000	-626.183469
0.010000	-699.201423
0.020000	-641.009571
0.030000	-588.978255
0.040000	-531.024953
0.050000	-471.509279
0.060000	-407.394960
0.070000	-339.759106
0.080000	-276.824666
0.090000	-221.366607
0.100000	-198.019609
0.110000	-223.991468
0.120000	-320.596147
0.130000	-471.215017
0.140000	-631.130939
0.150000	-756.475545
0.160000	-836.122858
0.170000	-873.809974
0.180000	-886.851021
0.190000	-885.155556
0.200000	-878.275556
0.210000	-856.812302
0.220000	-815.741172
0.230000	-767.879634
0.240000	-733.254014
0.250000	-715.595474
0.260000	-712.108024
0.270000	-714.654904
0.280000	-711.309040
0.290000	-701.769501
0.300000	-683.192121
0.310000	-663.602147
0.320000	-633.046491
0.330000	-595.158578
0.340000	-549.575486
0.350000	-502.751795
0.360000	-447.417303
0.370000	-388.394533
0.380000	-325.928638
0.390000	-267.070500
0.400000	-209.093434
0.410000	-146.083807
0.420000	-71.936239
0.430000	5.520305
0.440000	73.864929
0.450000	134.486494
0.460000	186.317726
0.470000	243.152767
0.480000	301.717136
0.490000	370.178186
0.500000	436.723612
0.510000	495.549605
0.520000	553.428347
0.530000	586.167244
0.540000	569.799182
0.550000	462.067674
0.560000	303.731923
0.570000	132.293926
0.580000	0.040909
0.590000	-31.785392
0.600000	-22.310001
0.610000	11.255305
0.620000	7.891197
0.630000	9.585547
0.640000	32.696158
0.650000	55.151930
0.660000	89.605712
0.670000	127.002107
0.680000	176.910702
0.690000	231.148670
0.700000	287.244051
0.710000	345.984388
0.720000	405.584729
0.730000	460.491675
0.740000	515.971232
0.750000	566.987629
0.760000	616.731475
0.770000	668.836793
0.780000	726.175795
0.790000	783.350251
0.800000	835.308913
0.810000	888.584202
0.820000	945.118929
0.830000	1002.830753
0.840000	1064.299555
0.850000	1128.760066
0.860000	1192.163915
0.870000	1248.711451
0.880000	1310.438267
0.890000	1370.305567
0.900000	1397.677034
0.910000	1349.228162
0.920000	1217.378060
0.930000	1044.987467
0.940000	894.164193
0.950000	796.696475
0.960000	743.204292
0.970000	716.418240
0.980000	705.296639
0.990000	708.535940
1.000000	724.758679
1.010000	758.373464
1.020000	795.541898
1.030000	820.577902
1.040000	822.711298
1.050000	810.876490
1.060000	792.584163
1.070000	773.544850
1.080000	758.830659
1.090000	754.926472
1.100000	760.432206
1.110000	777.695750
1.120000	799.385178
1.130000	829.207337
1.140000	857.681226
1.150000	898.495826
1.160000	936.612264
1.170000	991.593872
1.180000	1038.469456
1.190000	1094.857978
1.200000	1140.605926
1.210000	1186.590938
1.220000	1224.406983
1.230000	1266.098202
1.240000	1304.540776
1.250000	1355.387310
1.260000	1387.933763
1.270000	1433.567362
1.280000	1464.551983
1.290000	1368.904180
1.300000	1249.482302
1.310000	1126.402948
1.320000	1124.423076
1.330000	1138.661221
1.340000	1152.329861
1.350000	1191.093970
1.360000	1218.791861
1.370000	1254.069421
1.380000	1273.531028
1.390000	1308.922754
1.400000	1327.152328
1.410000	1351.992933
1.420000	1358.367221
1.430000	1393.656986
1.440000	1434.449618
1.450000	1502.841725
1.460000	1553.743576
1.470000	1616.961992
1.480000	1654.247484
1.490000	1555.413357
1.500000	1116.644214
1.510000	976.809410
1.520000	959.323275
1.530000	988.938344
1.540000	1005.480401
1.550000	1032.362832
1.560000	1025.518481
1.570000	1015.057662
1.580000	987.169509
1.590000	969.266262
1.600000	951.452244
1.610000	948.944968
1.620000	948.391253
1.630000	960.758829
1.640000	971.662588
1.650000	986.027950
1.660000	1002.318655
1.670000	1030.732031
1.680000	1056.308607
1.690000	1088.573245
1.700000	1126.005004
1.710000	1175.507943
1.720000	1223.047791
1.730000	1266.546256
1.740000	1301.488200
1.750000	1342.040394
1.760000	1375.258851
1.770000	1420.695336
1.780000	1455.986102
1.790000	1497.194376
1.800000	1528.029871
1.810000	1563.184036
1.820000	1589.402548
1.830000	1614.971984
1.840000	1592.695412
1.850000	1509.593264
1.860000	1341.697546
1.870000	1142.500166
1.880000	952.069095
1.890000	722.906252
1.900000	526.507224
1.910000	356.504962
1.920000	285.903219
1.930000	242.110370
1.940000	208.860550
1.950000	197.531715
1.960000	187.804212
1.970000	192.116467
1.980000	195.412501
1.990000	216.200254
2.000000	247.691535
2.010000	286.700864
2.020000	317.676902
2.030000	350.344563
2.040000	386.046278
2.050000	421.382301
2.060000	449.814128
2.070000	479.200035
2.080000	510.971469
2.090000	543.082049
2.100000	562.840091
2.110000	586.450630
2.120000	609.058080
2.130000	640.266144
2.140000	667.288464
2.150000	700.218392
2.160000	707.144034
2.170000	666.272314
2.180000	539.361630
2.190000	295.199187
2.200000	32.620243
2.210000	-144.566034
2.220000	-175.889730
2.230000	-209.383701
2.240000	-251.269800
2.250000	-282.725531
2.260000	-305.967293
2.270000	-302.938003
2.280000	-296.369826
2.290000	-138.608856
2.300000	26.834897
2.310000	206.539464
2.320000	246.338388
2.330000	285.567496
2.340000	320.188329
2.350000	363.048798
2.360000	401.709023
2.370000	437.307582
2.380000	413.812860
2.390000	243.800638
2.400000	-57.077232
2.410000	-212.080180
2.420000	-227.483404
2.430000	-247.983495
2.440000	-279.639780
2.450000	-292.715184
2.460000	-309.866780
2.470000	-306.577382
2.480000	-305.483388
2.490000	-281.903068
2.500000	-264.506667
2.510000	-230.012884
2.520000	-203.589850
2.530000	-166.930138
2.540000	-138.367196
2.550000	-87.640796
2.560000	-45.906771
2.570000	6.193734
2.580000	40.830483
2.590000	-67.165987
2.600000	-196.682740
2.610000	-321.379595
2.620000	-307.160261
2.630000	-273.215806
2.640000	-247.313616
2.650000	-207.843335
2.660000	-173.170371
2.670000	-127.971940
2.680000	-87.036765
2.690000	-38.955523
2.700000	4.439410
2.710000	58.542084
2.720000	107.235453
2.730000	159.515083
2.740000	201.374743
2.750000	243.629349
2.760000	279.538913
2.770000	317.525021
2.780000	359.424763
2.790000	409.500451
2.800000	457.677661
2.810000	502.907088
2.820000	548.014279
2.830000	588.032054
2.840000	588.342510
2.850000	520.914812
2.860000	372.785135
2.870000	188.361465
2.880000	7.621886
2.890000	-127.446768
2.900000	-211.235045
2.910000	-256.900345
2.920000	-281.362808
2.930000	-294.261117
2.940000	-294.722255
2.950000	-282.885251
2.960000	-265.360081
2.970000	-240.413765
2.980000	-211.606429
2.990000	-170.837590
3.000000	-127.829081
3.010000	-82.160930
3.020000	-39.997203
3.030000	5.290130
3.040000	51.549811
3.050000	99.822525
3.060000	140.473394
3.070000	191.169115
3.080000	238.049578
3.090000	192.382572
3.100000	84.358217
3.110000	-49.313590
3.120000	-116.441639
3.130000	-142.259833
3.140000	-157.517560
3.150000	-149.347215
3.160000	-131.260222
3.170000	-97.977293
3.180000	-63.650576
3.190000	-40.529816
3.200000	-39.966147
3.210000	-57.299397
3.220000	-84.199354
3.230000	-103.305237
3.240000	-114.741661
3.250000	-115.563736
3.260000	-106.889562
3.270000	-90.752528
3.280000	-67.293389
3.290000	-37.203969
3.300000	-0.289259
3.310000	38.402368
3.320000	74.455446
3.330000	117.118394
3.340000	163.238240
3.350000	212.915497
3.360000	257.402194
3.370000	305.833836
3.380000	350.592237
3.390000	336.694172
3.400000	254.645961
3.410000	128.385051
3.420000	25.892689
3.430000	-37.998033
3.440000	-73.524118
3.450000	-87.967701
3.460000	-89.872446
3.470000	-81.849153
3.480000	-61.468365
3.490000	-40.029770
3.500000	-26.987358
3.510000	-30.133988
3.520000	-39.719686
3.530000	-56.862929
3.540000	-76.028632
3.550000	-92.856675
3.560000	-96.247331
3.570000	-92.827391
3.580000	-81.038516
3.590000	-61.398796
3.600000	-29.745181
3.610000	2.057424
3.620000	38.999412
3.630000	77.227635
3.640000	128.525217
3.650000	175.388991
3.660000	230.204677
3.670000	270.526225
3.680000	321.753745
3.690000	461.210912
3.700000	563.484131
3.710000	600.902182
3.720000	515.870431
3.730000	462.914126
3.740000	464.298169
3.750000	474.477824
3.760000	470.860239
3.770000	426.768219
3.780000	369.976401
3.790000	310.414089
3.800000	273.873903
3.810000	245.352292
3.820000	223.212445
3.830000	190.318862
3.840000	164.384244
3.850000	155.334864
3.860000	163.934968
3.870000	187.746097
3.880000	216.869164
3.890000	254.263209
3.900000	290.506520
3.910000	326.545898
3.920000	358.534406
3.930000	367.524069
3.940000	359.367294
3.950000	302.803785
3.960000	216.741373
3.970000	93.747811
3.980000	-59.776648
3.990000	-207.155181
4.000000	-318.242867
4.010000	-333.240398
4.020000	-269.852377
4.030000	-139.572389
4.040000	40.258141
4.050000	236.789037
4.060000	421.115431
4.070000	572.575631
4.080000	704.802699
4.090000	807.699418
4.100000	874.568257
4.110000	878.168983
4.120000	819.480094
4.130000	704.721619
4.140000	567.535820
4.150000	436.328337
4.160000	316.596981
4.170000	211.998235
4.180000	122.048222
4.190000	61.110243
4.200000	12.816267
4.210000	-37.037384
4.220000	-121.065291
4.230000	-243.706784
4.240000	-389.157195
4.250000	-525.598272
4.260000	-641.905461
4.270000	-752.827131
4.280000	-847.850770
4.290000	-919.664649
4.300000	-929.643380
4.310000	-900.938584
4.320000	-833.973736
4.330000	-739.507832
4.340000	-605.174253
4.350000	-461.461877
4.360000	-338.307084
4.370000	-252.647456
4.380000	-208.003704
4.390000	-234.172574
4.400000	-304.813573
4.410000	-361.209599
4.420000	-369.292032
4.430000	-362.031704
4.440000	-353.319094
4.450000	-352.107978
4.460000	-344.217062
4.470000	-347.205931
4.480000	-330.250020
4.490000	-301.345099
4.500000	-242.813767
4.510000	-209.284205
4.520000	-191.470021
4.530000	-241.326272
4.540000	-289.060012
4.550000	-351.875448
4.560000	-365.360703
4.570000	-392.375748
4.580000	-381.950344
4.590000	-295.670332
4.600000	692.935850
4.610000	848.293223
4.620000	918.864403
4.630000	942.174956
4.640000	977.639136
4.650000	998.885946
4.660000	1051.008313
4.670000	1084.401624
4.680000	1135.344770
4.690000	1150.402226
4.700000	1165.324110
4.710000	1132.571923
4.720000	1080.910796
4.730000	1005.045752
4.740000	916.273971
4.750000	791.823490
4.760000	644.131221
4.770000	505.386068
4.780000	435.461647
4.790000	438.525993
4.800000	516.850415
4.810000	635.961751
4.820000	758.293977
4.830000	834.428105
4.840000	872.291388
4.850000	881.628984
4.860000	899.092080
4.870000	898.051952
4.880000	874.350218
4.890000	825.541856
4.900000	794.461446
4.910000	793.008676
4.920000	805.558772
4.930000	812.191874
4.940000	826.810310
4.950000	866.444784
4.960000	929.404678
4.970000	1003.730195
4.980000	1082.072202
4.990000	1171.448673
5.000000	1275.122794
5.010000	1386.199065
5.020000	1485.866901
5.030000	1556.344942
5.040000	1603.067174
5.050000	1630.881347
5.060000	1648.670391
5.070000	1651.103623
5.080000	1629.656116
5.090000	1583.738669
5.100000	1537.767847
5.110000	1503.729908
5.120000	1482.238339
5.130000	1424.307906
5.140000	1310.178397
5.150000	1145.344200
5.160000	969.266976
5.170000	822.772422
5.180000	711.981362
5.190000	640.915610
5.200000	598.040019
5.210000	574.118375
5.220000	570.513976
5.230000	570.991915
5.240000	579.762783
5.250000	579.858897
5.260000	565.426636
5.270000	528.437332
5.280000	486.544691
5.290000	448.374201
5.300000	420.372892
5.310000	393.985555
5.320000	384.314651
5.330000	378.568431
5.340000	382.688885
5.350000	387.156078
5.360000	412.860095
5.370000	434.329388
5.380000	472.538079
5.390000	647.152511
5.400000	823.562627
5.410000	954.593602
5.420000	895.362829
5.430000	760.791806
5.440000	585.986875
5.450000	385.643193
5.460000	218.774733
5.470000	83.702809
5.480000	-9.697913
5.490000	-84.955385
5.500000	-128.695771
5.510000	-142.615366
5.520000	-104.589095
5.530000	-39.699731
5.540000	32.905328
5.550000	66.845388
5.560000	51.869438
5.570000	5.503424
5.580000	-37.750362
5.590000	-52.160329
5.600000	-43.087090
5.610000	-17.460418
5.620000	8.250795
5.630000	22.954577
5.640000	12.613744
5.650000	-25.566893
5.660000	-66.915705
5.670000	-92.739783
5.680000	-86.753927
5.690000	-67.644716
5.700000	-39.856183
5.710000	-8.521854
5.720000	38.785655
5.730000	105.605296
5.740000	181.417087
5.750000	261.442596
5.760000	328.708911
5.770000	400.066184
5.780000	475.647715
5.790000	538.000531
5.800000	551.562004
5.810000	480.291618
5.820000	339.307684
5.830000	153.633613
5.840000	-21.172917
5.850000	-145.044264
5.860000	-195.680160
5.870000	-203.177748
5.880000	-197.833494
5.890000	-198.592781
5.900000	-193.214411
5.910000	-178.011727
5.920000	-161.275821
5.930000	-149.072667
5.940000	-153.335293
5.950000	-169.403823
5.960000	-212.766401
5.970000	-260.947513
5.980000	-310.233012
5.990000	-337.756409
6.000000	-354.778335
6.010000	-353.832685
6.020000	-347.030072
6.030000	-324.835983
6.040000	-302.336398
6.050000	-267.752956
6.060000	-236.371672
6.070000	-195.915995
6.080000	-164.479283
6.090000	-115.612769
6.100000	-79.064465
6.110000	-24.802392
6.120000	6.832882
6.130000	58.243911
6.140000	87.172553
6.150000	145.890883
6.160000	174.544816
6.170000	235.547078
6.180000	248.865432
6.190000	186.876445
6.200000	-873.573862
6.210000	-955.940135
6.220000	-962.979099
6.230000	-929.962925
6.240000	-917.565616
6.250000	-866.653765
6.260000	-845.499636
6.270000	-794.658520
6.280000	-757.380870
6.290000	-689.756150
6.300000	-643.858445
6.310000	-592.970525
6.320000	-554.123097
6.330000	-500.398208
6.340000	-459.204738
6.350000	-410.697638
6.360000	-372.725193
6.370000	-329.908178
6.380000	-292.986840
6.390000	-252.399488
6.400000	-230.005062
6.410000	-249.232461
6.420000	-348.736193
6.430000	-511.918509
6.440000	-716.791085
6.450000	-900.163694
6.460000	-1046.315721
6.470000	-1136.740986
6.480000	-1192.957097
6.490000	-1248.023840
6.500000	-1289.481018
6.510000	-1319.688668
6.520000	-1314.273142
6.530000	-1297.495722
6.540000	-1277.697195
6.550000	-1244.260031
6.560000	-1206.853285
6.570000	-1159.324188
6.580000	-1114.739112
6.590000	-1068.684255
6.600000	-1019.643782
6.610000	-968.729379
6.620000	-920.235316
6.630000	-873.773376
6.640000	-832.515299
6.650000	-788.465637
6.660000	-743.501593
6.670000	-697.498516
6.680000	-652.841146
6.690000	-632.267241
6.700000	-662.204351
6.710000	-767.378380
6.720000	-927.457789
6.730000	-1100.109972
6.740000	-1245.398913
6.750000	-1342.909834
6.760000	-1391.407579
6.770000	-1406.771769
6.780000	-1406.101522
6.790000	-1398.293288
6.800000	-1371.086311
6.810000	-1330.547604
6.820000	-1294.118292
6.830000	-1278.148360
6.840000	-1286.465459
6.850000	-1301.373045
6.860000	-1324.214762
6.870000	-1340.571061
6.880000	-1351.356250
6.890000	-1346.422200
6.900000	-1331.224194
6.910000	-1305.274032
6.920000	-1278.471098
6.930000	-1246.102898
6.940000	-1212.426530
6.950000	-1171.587937
6.960000	-1123.414892
6.970000	-1075.444847
6.980000	-1022.719659
6.990000	-969.009813
7.000000	-914.030720
7.010000	-858.595236
7.020000	-810.712327
7.030000	-758.142490
7.040000	-706.460300
7.050000	-648.672653
7.060000	-600.955986
7.070000	-587.241505
7.080000	-635.480078
7.090000	-758.452693
7.100000	-935.596557
7.110000	-1121.278957
7.120000	-1268.727129
7.130000	-1358.196632
7.140000	-1405.973782
7.150000	-1426.459519
7.160000	-1435.240680
7.170000	-1434.368806
7.180000	-1419.172599
7.190000	-1395.991724
7.200000	-1361.761972
7.210000	-1346.388363
7.220000	-1342.264697
7.230000	-1355.839851
7.240000	-1375.400310
7.250000	-1391.647262
7.260000	-1405.245754
7.270000	-1405.104683
7.280000	-1397.821909
7.290000	-1377.877431
7.300000	-1349.774008
7.310000	-1318.332601
7.320000	-1278.045746
7.330000	-1227.814336
7.340000	-1178.698443
7.350000	-1126.601771
7.360000	-1078.395017
7.370000	-1019.677622
7.380000	-961.173847
7.390000	-900.062591
7.400000	-845.331162
7.410000	-790.083044
7.420000	-742.542171
7.430000	-682.704511
7.440000	-638.897512
7.450000	-583.851234
7.460000	-549.092000
7.470000	-527.903610
7.480000	-585.828667
7.490000	-781.033459
7.500000	-1200.975537
7.510000	-1334.201279
7.520000	-1343.169843
7.530000	-1350.488249
7.540000	-1375.935156
7.550000	-1388.309964
7.560000	-1400.161705
7.570000	-1398.401973
7.580000	-1384.100811
7.590000	-1361.175091
7.600000	-1330.370775
7.610000	-1299.974756
7.620000	-1257.255103
7.630000	-1212.509351
7.640000	-1158.094746
7.650000	-1110.113322
7.660000	-1051.847969
7.670000	-1005.494109
7.680000	-940.124774
7.690000	-747.665365
7.700000	-606.189402
7.710000	-566.822709
7.720000	-732.062742
7.730000	-907.498373
7.740000	-1026.954945
7.750000	-1114.421174
7.760000	-1149.056355
7.770000	-1178.864897
7.780000	-1177.618540
7.790000	-1179.137693
7.800000	-1150.327227
7.810000	-1123.252553
7.820000	-1075.548975
7.830000	-1060.904979
7.840000	-1043.519731
7.850000	-1060.418335
7.860000	-1038.180819
7.870000	-1030.607550
7.880000	-968.162349
7.890000	-828.099680
7.900000	108.636932
7.910000	267.789893
7.920000	372.517208
7.930000	452.723376
7.940000	555.408323
7.950000	616.363045
7.960000	695.652989
7.970000	747.391186
7.980000	829.195336
7.990000	903.170975
8.000000	956.821999
8.010000	909.779475
8.020000	751.322317
8.030000	500.820212
8.040000	258.394571
8.050000	79.422083
8.060000	10.126263
8.070000	8.800907
8.080000	38.222603
8.090000	48.163561
8.100000	62.542686
8.110000	95.520049
8.120000	155.534905
8.130000	218.475525
8.140000	275.591584
8.150000	339.512534
8.160000	419.328560
8.170000	503.516818
8.180000	590.784729
8.190000	673.194479
8.200000	774.353031
8.210000	878.122331
8.220000	993.015582
8.230000	1092.982313
8.240000	1191.480889
8.250000	1271.453227
8.260000	1348.063277
8.270000	1398.849874
8.280000	1414.711917
8.290000	1464.156378
8.300000	1516.117576
8.310000	1572.250379
8.320000	1562.357297
8.330000	1488.574902
8.340000	1376.694268
8.350000	1248.253780
8.360000	1168.517783
8.370000	1157.842834
8.380000	1203.283747
8.390000	1320.879128
8.400000	1507.698960
8.410000	1713.152908
8.420000	1871.775403
8.430000	1953.225601
8.440000	2020.811845
8.450000	2092.877913
8.460000	2155.128747
8.470000	2188.220103
8.480000	2202.564753
8.490000	2214.950793
8.500000	2217.303730
8.510000	2207.402405
8.520000	2194.780078
8.530000	2189.560954
8.540000	2199.622449
8.550000	2221.059535
8.560000	2245.491773
8.570000	2280.641762
8.580000	2315.683060
8.590000	2352.966568
8.600000	2369.511288
8.610000	2366.731677
8.620000	2360.753321
8.630000	2359.848702
8.640000	2360.670329
8.650000	2349.644589
8.660000	2335.020933
8.670000	2329.158780
8.680000	2338.729610
8.690000	2358.012630
8.700000	2376.799640
8.710000	2365.520281
8.720000	2285.551742
8.730000	2148.873789
8.740000	1965.338132
8.750000	1746.271392
8.760000	1492.468871
8.770000	1234.457148
8.780000	1018.348787
8.790000	842.217197
8.800000	708.948014
8.810000	591.935523
8.820000	486.312739
8.830000	378.000846
8.840000	298.173890
8.850000	259.387003
8.860000	266.051143
8.870000	302.088519
8.880000	368.680595
8.890000	448.443666
8.900000	512.984254
8.910000	562.581835
8.920000	593.313793
8.930000	622.816454
8.940000	655.644453
8.950000	715.808036
8.960000	808.292859
8.970000	900.399245
8.980000	988.724661
8.990000	1085.736764
9.000000	1200.850585
9.010000	1308.346736
9.020000	1389.029820
9.030000	1447.056003
9.040000	1499.947348
9.050000	1558.113733
9.060000	1627.219579
9.070000	1690.811516
9.080000	1726.509386
9.090000	1725.580347
9.100000	1686.184724
9.110000	1602.370839
9.120000	1474.911164
9.130000	1342.297231
9.140000	1253.698894
9.150000	1237.197312
9.160000	1263.359910
9.170000	1297.447035
9.180000	1316.082646
9.190000	1326.143310
9.200000	1332.496267
9.210000	1327.835486
9.220000	1307.278808
9.230000	1266.892113
9.240000	1200.750638
9.250000	1123.365862
9.260000	1066.296508
9.270000	1038.470893
9.280000	1036.835787
9.290000	1082.000104
9.300000	1187.046451
9.310000	1360.876078
9.320000	1527.715650
9.330000	1657.234141
9.340000	1727.096925
9.350000	1771.102652
9.360000	1788.405470
9.370000	1763.954043
9.380000	1660.674888
9.390000	1489.625104
9.400000	1287.033690
9.410000	1100.680902
9.420000	954.011420
9.430000	861.396960
9.440000	825.976214
9.450000	843.108970
9.460000	892.915864
9.470000	950.489937
9.480000	995.884621
9.490000	1027.268854
9.500000	1026.155195
9.510000	1008.155023
9.520000	948.995849
9.530000	901.933104
9.540000	864.361399
9.550000	866.478947
9.560000	859.186151
9.570000	850.190476
9.580000	829.638322
9.590000	706.053593
9.600000	159.226337
9.610000	33.727558
9.620000	29.359188
9.630000	65.634140
9.640000	64.468371
9.650000	74.225497
9.660000	78.068589
9.670000	104.276850
9.680000	106.800038
9.690000	93.811815
9.700000	30.413836
9.710000	-52.138240
9.720000	-149.380035
9.730000	-226.673539
9.740000	-297.307694
9.750000	-339.448557
9.760000	-364.663978
9.770000	-361.832170
9.780000	-348.102853
9.790000	-332.866773
9.800000	-316.523357
9.810000	-296.901327
9.820000	-256.576332
9.830000	-196.327595
9.840000	-132.347371
9.850000	-83.437441
9.860000	-51.415520
9.870000	-28.532114
9.880000	-27.886044
9.890000	-79.686239
9.900000	-205.679797
9.910000	-387.744673
9.920000	-563.700363
9.930000	-704.576151
9.940000	-799.118759
9.950000	-866.507720
9.960000	-907.169485
9.970000	-920.788412
9.980000	-908.241971
9.990000	-880.783401
10.000000	-843.985298
10.010000	-822.183673
10.020000	-816.017919
10.030000	-838.305732
10.040000	-871.322280
10.050000	-911.823810
10.060000	-942.277585
10.070000	-964.084685
10.080000	-967.226252
10.090000	-813.351744
10.100000	-632.270686
10.110000	-448.021455
10.120000	-391.970309
10.130000	-347.370685
10.140000	-296.971422
10.150000	-290.933856
10.160000	-349.920867
10.170000	-494.861005
10.180000	-689.075902
10.190000	-922.224864
10.200000	-1071.286378
10.210000	-1128.938646
10.220000	-1077.166844
10.230000	-1020.689424
10.240000	-965.810773
10.250000	-912.791226
10.260000	-862.825415
10.270000	-810.242834
10.280000	-760.239070
10.290000	-705.696963
10.300000	-655.065651
10.310000	-601.145443
10.320000	-555.314411
10.330000	-517.935308
10.340000	-505.646660
10.350000	-548.133604
10.360000	-667.664946
10.370000	-845.593063
10.380000	-1035.313791
10.390000	-1190.427558
10.400000	-1293.751145
10.410000	-1359.724291
10.420000	-1398.886949
10.430000	-1428.749765
10.440000	-1435.647148
10.450000	-1424.202581
10.460000	-1398.784166
10.470000	-1375.398618
10.480000	-1366.957664
10.490000	-1381.626985
10.500000	-1411.465998
10.510000	-1444.891453
10.520000	-1469.351470
10.530000	-1481.895773
10.540000	-1488.976586
10.550000	-1483.243000
10.560000	-1471.020406
10.570000	-1440.923035
10.580000	-1402.837743
10.590000	-1361.638017
10.600000	-1319.362964
10.610000	-1276.731988
10.620000	-1230.259516
10.630000	-1185.567447
10.640000	-1138.512641
10.650000	-1089.131355
10.660000	-1038.151540
10.670000	-994.100790
10.680000	-948.795534
10.690000	-904.483418
10.700000	-847.112848
10.710000	-788.990065
10.720000	-739.808142
10.730000	-721.248323
10.740000	-761.907971
10.750000	-877.857899
10.760000	-1052.303436
10.770000	-1235.095274
10.780000	-1376.753651
10.790000	-1467.160499
10.800000	-1515.309585
10.810000	-1541.643876
10.820000	-1551.544327
10.830000	-1550.514562
10.840000	-1531.799155
10.850000	-1508.159382
10.860000	-1478.737206
10.870000	-1468.596116
10.880000	-1468.969805
10.890000	-1406.242272
10.900000	-1312.547119
10.910000	-1206.906733
10.920000	-1148.288504
10.930000	-1096.687088
10.940000	-1029.799601
10.950000	-969.977868
10.960000	-900.591423
10.970000	-845.434144
10.980000	-781.642899
10.990000	-731.401943
11.000000	-694.019333
11.010000	-719.229349
11.020000	-814.667895
11.030000	-969.393462
11.040000	-1134.934414
11.050000	-1269.630619
11.060000	-1355.988271
11.070000	-1411.016793
11.080000	-1436.387530
11.090000	-1427.773959
11.100000	-1395.213636
11.110000	-1361.954723
11.120000	-1334.714899
11.130000	-1308.824674
11.140000	-1271.915371
11.150000	-1237.151661
11.160000	-1186.750962
11.170000	-1140.635529
11.180000	-1083.543100
11.190000	-931.985046
11.200000	-837.700861
11.210000	-840.078707
11.220000	-1015.011445
11.230000	-1200.237316
11.240000	-1334.652081
11.250000	-1434.660840
11.260000	-1482.918525
11.270000	-1519.293146
11.280000	-1536.105813
11.290000	-1549.040839
11.300000	-1536.575234
11.310000	-1516.948500
11.320000	-1490.044752
11.330000	-1484.652473
11.340000	-1495.136384
11.350000	-1525.432454
11.360000	-1552.536794
11.370000	-1578.329929
11.380000	-1584.931775
11.390000	-1585.360802
11.400000	-1568.642403
11.410000	-1553.186931
11.420000	-1518.627400
11.430000	-1487.845704
11.440000	-1441.209126
11.450000	-1405.344661
11.460000	-1350.014083
11.470000	-1307.728325
11.480000	-1249.361716
11.490000	-1067.490975
11.500000	-851.557637
11.510000	-735.127722
11.520000	-854.066611
11.530000	-1030.495089
11.540000	-1193.579023
11.550000	-1323.043643
11.560000	-1398.131982
11.570000	-1452.115337
11.580000	-1470.594960
11.590000	-1477.332316
11.600000	-1461.335813
11.610000	-1441.671351
11.620000	-1406.363742
11.630000	-1370.790669
11.640000	-1333.717349
11.650000	-1319.684893
11.660000	-1307.983578
11.670000	-1285.302468
11.680000	-1227.589448
11.690000	-1132.347829
11.700000	-1012.605974
11.710000	-870.731347
11.720000	-729.712658
11.730000	-592.425888
11.740000	-461.851966
11.750000	-336.473143
11.760000	-216.360105
11.770000	-112.915384
11.780000	-24.863342
11.790000	49.280305
11.800000	119.962671
11.810000	194.773389
11.820000	288.447498
11.830000	396.185952
11.840000	530.954856
11.850000	666.130791
11.860000	796.161704
11.870000	913.712950
11.880000	1024.045961
11.890000	1127.926164
11.900000	1208.191634
11.910000	1266.168058
11.920000	1281.589814
11.930000	1231.715525
11.940000	1106.001091
11.950000	914.967663
11.960000	683.432322
11.970000	408.792382
11.980000	141.323877
11.990000	-57.703757
12.000000	-137.162952
12.010000	-126.771951
12.020000	-82.070185
12.030000	-34.456135
12.040000	5.731987
12.050000	34.195019
12.060000	36.826499
12.070000	21.225591
12.080000	-10.774500
12.090000	-42.716156
12.100000	-53.708619
12.110000	-24.674320
12.120000	41.953935
12.130000	129.317504
12.140000	217.932747
12.150000	310.026282
12.160000	388.850627
12.170000	467.475324
12.180000	539.373573
12.190000	557.138158
12.200000	528.039951
12.210000	439.072397
12.220000	332.519127
12.230000	213.566190
12.240000	89.666477
12.250000	-7.878734
12.260000	-104.011035
12.270000	-192.240552
12.280000	-278.391760
12.290000	-333.174816
12.300000	-339.808564
12.310000	-302.501285
12.320000	-257.313572
12.330000	-220.105819
12.340000	-195.788211
12.350000	-199.738299
12.360000	-227.206254
12.370000	-278.716774
12.380000	-326.210116
12.390000	-368.432687
12.400000	-397.191549
12.410000	-403.475799
12.420000	-381.176543
12.430000	-328.525902
12.440000	-267.220527
12.450000	-200.853631
12.460000	-128.579137
12.470000	-43.825254
12.480000	48.371281
12.490000	132.850095
12.500000	213.048089
12.510000	281.838944
12.520000	331.399361
12.530000	372.890176
12.540000	425.784234
12.550000	511.625061
12.560000	616.416652
12.570000	719.019338
12.580000	803.075068
12.590000	844.739768
12.600000	824.759985
12.610000	735.172271
12.620000	586.176352
12.630000	406.337276
12.640000	235.974223
12.650000	110.505195
12.660000	42.058320
12.670000	23.303682
12.680000	35.462131
12.690000	67.140765
12.700000	113.235341
12.710000	175.348878
12.720000	235.641571
12.730000	278.583573
12.740000	293.749205
12.750000	289.223637
12.760000	259.507866
12.770000	228.633623
12.780000	213.937424
12.790000	246.771862
12.800000	324.296631
12.810000	457.304911
12.820000	608.548385
12.830000	729.164355
12.840000	775.840808
12.850000	779.921393
12.860000	789.539011
12.870000	840.671832
12.880000	892.386533
12.890000	956.595082
12.900000	998.132857
12.910000	1061.766398
12.920000	1101.659285
12.930000	1155.864157
12.940000	1179.989051
12.950000	1228.597217
12.960000	1248.720716
12.970000	1297.329862
12.980000	1299.454675
12.990000	1216.815365
13.000000	297.603577
13.010000	268.553216
13.020000	310.519712
13.030000	346.866917
13.040000	340.639351
13.050000	353.819523
13.060000	352.864126
13.070000	370.990002
13.080000	379.286444
13.090000	430.753972
13.100000	498.190662
13.110000	600.680915
13.120000	674.570471
13.130000	730.515120
13.140000	760.268513
13.150000	799.841346
13.160000	831.857369
13.170000	863.606404
13.180000	888.111761
13.190000	942.865282
13.200000	999.223147
13.210000	1059.581675
13.220000	1104.647502
13.230000	1155.782544
13.240000	1215.058624
13.250000	1275.665695
13.260000	1326.498209
13.270000	1354.249974
13.280000	1349.656305
13.290000	1317.580698
13.300000	1240.794920
13.310000	1122.676090
13.320000	966.976176
13.330000	822.938236
13.340000	712.457653
13.350000	653.231034
13.360000	629.556428
13.370000	624.228907
13.380000	621.702466
13.390000	600.921188
13.400000	588.355408
13.410000	586.925314
13.420000	619.105406
13.430000	664.856171
13.440000	727.295988
13.450000	796.127303
13.460000	864.205827
13.470000	943.160727
13.480000	1033.128292
13.490000	1115.854625
13.500000	1177.774736
13.510000	1234.339429
13.520000	1296.119093
13.530000	1341.781358
13.540000	1374.910055
13.550000	1415.312766
13.560000	1453.666000
13.570000	1453.815540
13.580000	1397.850499
13.590000	1298.781736
13.600000	1174.760983
13.610000	1043.458506
13.620000	933.078985
13.630000	863.490978
13.640000	835.723850
13.650000	838.200769
13.660000	861.419685
13.670000	897.293040
13.680000	937.827694
13.690000	969.080864
13.700000	981.960896
13.710000	978.945637
13.720000	962.472455
13.730000	937.194922
13.740000	909.701036
13.750000	885.151941
13.760000	865.298510
13.770000	843.464005
13.780000	840.015047
13.790000	891.866229
13.800000	944.859405
13.810000	978.405190
13.820000	959.380449
13.830000	953.593551
13.840000	977.476783
13.850000	1015.738907
13.860000	1057.963849
13.870000	1089.249159
13.880000	1117.557469
13.890000	1134.090327
13.900000	1136.545740
13.910000	1130.997823
13.920000	1126.585594
13.930000	1122.587905
13.940000	1131.705141
13.950000	1145.830154
13.960000	1171.239993
13.970000	1196.064834
13.980000	1222.522276
13.990000	1256.016799
14.000000	1294.158133
14.010000	1337.016949
14.020000	1380.824643
14.030000	1424.064243
14.040000	1466.535481
14.050000	1510.492067
14.060000	1554.275766
14.070000	1604.649606
14.080000	1652.010738
14.090000	1702.222300
14.100000	1744.071183
14.110000	1755.470524
14.120000	1715.506588
14.130000	1613.117210
14.140000	1466.058872
14.150000	1297.817002
14.160000	1141.006571
14.170000	1017.858237
14.180000	931.605006
14.190000	878.917308
14.200000	852.561517
14.210000	843.339378
14.220000	852.247348
14.230000	864.084536
14.240000	876.000925
14.250000	870.489502
14.260000	850.844605
14.270000	821.931319
14.280000	792.063185
14.290000	767.733119
14.300000	749.630360
14.310000	737.563246
14.320000	734.570024
14.330000	742.419707
14.340000	753.513310
14.350000	772.338242
14.360000	790.449475
14.370000	817.668196
14.380000	839.680111
14.390000	863.751022
14.400000	891.254333
14.410000	929.208620
14.420000	973.490043
14.430000	1014.008073
14.440000	1053.786160
14.450000	1080.790031
14.460000	1081.100431
14.470000	1026.221412
14.480000	909.496933
14.490000	745.399184
14.500000	567.634063
14.510000	418.287209
14.520000	307.704020
14.530000	239.175290
14.540000	194.734448
14.550000	170.453541
14.560000	162.449366
14.570000	162.069147
14.580000	166.864532
14.590000	156.986251
14.600000	138.700133
14.610000	116.245914
14.620000	99.565602
14.630000	87.488676
14.640000	78.777253
14.650000	72.411149
14.660000	74.019024
14.670000	80.654674
14.680000	96.290479
14.690000	115.883530
14.700000	138.582950
14.710000	164.457157
14.720000	195.890101
14.730000	230.024116
14.740000	268.550215
14.750000	306.579544
14.760000	345.567032
14.770000	388.812053
14.780000	430.229489
14.790000	463.715324
14.800000	476.878222
14.810000	444.252289
14.820000	341.532469
14.830000	172.534872
14.840000	-21.709970
14.850000	-194.834067
14.860000	-325.019972
14.870000	-410.926663
14.880000	-465.370224
14.890000	-503.026348
14.900000	-530.032953
14.910000	-536.418322
14.920000	-529.413406
14.930000	-514.142255
14.940000	-507.163610
14.950000	-515.512304
14.960000	-542.910918
14.970000	-579.518557
14.980000	-614.329069
14.990000	-635.196307
15.000000	-646.467728
15.010000	-651.212997
15.020000	-647.936871
15.030000	-635.908709
15.040000	-614.416885
15.050000	-590.971717
15.060000	-565.889076
15.070000	-534.700739
15.080000	-495.715263
15.090000	-527.329980
15.100000	-641.706986
15.110000	-824.567928
15.120000	-980.156788
15.130000	-1087.025695
15.140000	-1158.050447
15.150000	-1205.498562
15.160000	-1239.288270
15.170000	-1260.631974
15.180000	-1268.538328
15.190000	-1264.457537
15.200000	-1260.169352
15.210000	-1262.957153
15.220000	-1291.852846
15.230000	-1329.042898
15.240000	-1369.258575
15.250000	-1403.473211
15.260000	-1421.683613
15.270000	-1435.652390
15.280000	-1426.714580
15.290000	-1382.873125
15.300000	-1390.038100
15.310000	-1448.883789
15.320000	-1563.729381
15.330000	-1641.986411
15.340000	-1687.711259
15.350000	-1727.844061
15.360000	-1752.618171
15.370000	-1768.438981
15.380000	-1766.175588
15.390000	-1757.785311
15.400000	-1746.736814
15.410000	-1756.213203
15.420000	-1777.905906
15.430000	-1809.351778
15.440000	-1832.393446
15.450000	-1850.912684
15.460000	-1857.211215
15.470000	-1859.880590
15.480000	-1847.001786
15.490000	-1833.618556
15.500000	-1800.059871
15.510000	-1767.498406
15.520000	-1718.709031
15.530000	-1675.849783
15.540000	-1621.947550
15.550000	-1577.333924
15.560000	-1525.114251
15.570000	-1484.614754
15.580000	-1433.530585
15.590000	-1277.060537
15.600000	-1171.667854
15.610000	-1152.537447
15.620000	-1309.987515
15.630000	-1467.646230
15.640000	-1578.025573
15.650000	-1656.960051
15.660000	-1696.696665
15.670000	-1723.732455
15.680000	-1732.310364
15.690000	-1732.913996
15.700000	-1712.223208
15.710000	-1689.549670
15.720000	-1668.791531
15.730000	-1665.247767
15.740000	-1674.336310
15.750000	-1700.334530
15.760000	-1724.515502
15.770000	-1740.820270
15.780000	-1736.707650
15.790000	-1731.758226
15.800000	-1707.826726
15.810000	-1681.154383
15.820000	-1643.241471
15.830000	-1601.958979
15.840000	-1555.325811
15.850000	-1492.101300
15.860000	-1422.164473
15.870000	-1338.225930
15.880000	-1252.753334
15.890000	-1168.352541
15.900000	-1094.055367
15.910000	-1032.155948
15.920000	-967.337440
15.930000	-905.713058
15.940000	-844.623355
15.950000	-791.993597
15.960000	-740.895914
15.970000	-683.298287
15.980000	-617.211993
15.990000	-546.311853
16.000000	-480.906010
16.010000	-415.307600
16.020000	-353.987090
16.030000	-332.748291
16.040000	-376.730816
16.050000	-477.789212
16.060000	-585.048545
16.070000	-678.940524
16.080000	-740.391743
16.090000	-777.189424
16.100000	-784.055904
16.110000	-772.173406
16.120000	-743.049722
16.130000	-718.235016
16.140000	-701.684141
16.150000	-716.036548
16.160000	-752.587411
16.170000	-821.243805
16.180000	-889.394836
16.190000	-965.250437
16.200000	-1027.474687
16.210000	-1088.369347
16.220000	-1126.147107
16.230000	-1152.599647
16.240000	-1133.712506
16.250000	-1082.978841
16.260000	-989.562440
16.270000	-912.902014
16.280000	-839.562785
16.290000	-685.035383
16.300000	-76.702684
16.310000	164.365564
16.320000	339.794146
16.330000	489.007887
16.340000	644.519348
16.350000	722.315852
16.360000	715.108045
16.370000	600.569028
16.380000	445.929640
16.390000	284.716958
16.400000	139.709438
16.410000	-5.588190
16.420000	-136.436457
16.430000	-250.939701
16.440000	-329.210294
16.450000	-388.737500
16.460000	-427.607405
16.470000	-455.576854
16.480000	-473.990510
16.490000	-507.154635
16.500000	-552.641811
16.510000	-601.722988
16.520000	-632.932261
16.530000	-658.390639
16.540000	-676.190811
16.550000	-688.408769
16.560000	-674.392715
16.570000	-646.188717
16.580000	-606.239818
16.590000	-555.970336
16.600000	-493.080718
16.610000	-425.450154
16.620000	-384.322246
16.630000	-364.499218
16.640000	-358.225628
16.650000	-335.154652
16.660000	-302.901230
16.670000	-252.766101
16.680000	-189.948698
16.690000	-122.050706
16.700000	-43.626417
16.710000	36.626896
16.720000	137.105134
16.730000	229.511581
16.740000	300.881261
16.750000	335.725605
16.760000	347.406701
16.770000	356.964592
16.780000	358.194987
16.790000	330.502189
16.800000	241.957411
16.810000	98.482804
16.820000	-54.833076
16.830000	-174.534426
16.840000	-240.346804
16.850000	-282.014820
16.860000	-289.409676
16.870000	-281.901102
16.880000	-254.730687
16.890000	-222.163580
16.900000	-186.341884
16.910000	-140.390978
16.920000	-107.357816
16.930000	-76.514363
16.940000	-68.782293
16.950000	-63.511382
16.960000	-30.166968
16.970000	59.498441
16.980000	187.334517
16.990000	319.479175
17.000000	432.211724
17.010000	526.877089
17.020000	597.083149
17.030000	650.329089
17.040000	689.625305
17.050000	725.485214
17.060000	745.455016
17.070000	764.735045
17.080000	770.559446
17.090000	791.450246
17.100000	809.555577
17.110000	847.964060
17.120000	890.463693
17.130000	957.599176
17.140000	1026.272701
17.150000	1098.658205
17.160000	1151.366404
17.170000	1206.865153
17.180000	1250.380178
17.190000	1116.013104
17.200000	940.619844
17.210000	759.840861
17.220000	735.284894
17.230000	736.157366
17.240000	743.319070
17.250000	789.307368
17.260000	816.464089
17.270000	828.651917
17.280000	788.521824
17.290000	749.271391
17.300000	714.804055
17.310000	699.947739
17.320000	687.024187
17.330000	693.080285
17.340000	704.187032
17.350000	734.651807
17.360000	783.670087
17.370000	849.917239
17.380000	920.817866
17.390000	990.898081
17.400000	1051.987752
17.410000	1107.941731
17.420000	1156.504231
17.430000	1202.033848
17.440000	1245.040689
17.450000	1278.135058
17.460000	1301.295076
17.470000	1313.598381
17.480000	1309.902677
17.490000	1305.817048
17.500000	1300.496972
17.510000	1310.783035
17.520000	1335.741381
17.530000	1362.749362
17.540000	1372.667171
17.550000	1347.083800
17.560000	1291.023591
17.570000	1216.136176
17.580000	1146.112963
17.590000	1102.549469
17.600000	1090.189510
17.610000	1106.977662
17.620000	1153.974966
17.630000	1224.418146
17.640000	1314.803247
17.650000	1412.200033
17.660000	1493.972241
17.670000	1534.006477
17.680000	1533.249726
17.690000	1514.908277
17.700000	1483.175921
17.710000	1438.166499
17.720000	1404.537177
17.730000	1402.780951
17.740000	1417.835114
17.750000	1429.749646
17.760000	1443.903608
17.770000	1466.421355
17.780000	1497.657191
17.790000	1529.102954
17.800000	1563.475788
17.810000	1599.140056
17.820000	1637.002091
17.830000	1670.524025
17.840000	1702.588160
17.850000	1737.612676
17.860000	1779.874196
17.870000	1829.389864
17.880000	1880.845697
17.890000	1926.861345
17.900000	1955.838763
17.910000	1962.717100
17.920000	1943.534324
17.930000	1888.923968
17.940000	1785.250584
17.950000	1627.854367
17.960000	1443.752504
17.970000	1267.503902
17.980000	1134.287637
17.990000	1069.156883
18.000000	1049.723467
18.010000	1056.181018
18.020000	1061.169003
18.030000	1072.665719
18.040000	1089.619620
18.050000	1110.177806
18.060000	1134.438215
18.070000	1168.736002
18.080000	1205.246580
18.090000	1241.336795
18.100000	1278.761674
18.110000	1321.638414
18.120000	1367.953922
18.130000	1415.967754
18.140000	1465.844681
18.150000	1513.979647
18.160000	1561.775054
18.170000	1610.349568
18.180000	1660.396001
18.190000	1705.725256
18.200000	1736.698391
18.210000	1742.120494
18.220000	1704.674017
18.230000	1611.551055
18.240000	1468.055197
18.250000	1295.046350
18.260000	1131.507682
18.270000	1000.853255
18.280000	912.609232
18.290000	859.300167
18.300000	828.717308
18.310000	816.119936
18.320000	820.855100
18.330000	833.266270
18.340000	845.013938
18.350000	841.412066
18.360000	819.220564
18.370000	786.604989
18.380000	753.112900
18.390000	724.803020
18.400000	704.677636
18.410000	698.020879
18.420000	701.899456
18.430000	709.908279
18.440000	714.797453
18.450000	726.186591
18.460000	749.360866
18.470000	778.444309
18.480000	815.622549
18.490000	848.002803
18.500000	881.945362
18.510000	911.869470
18.520000	944.976965
18.530000	978.381487
18.540000	1013.024846
18.550000	1051.570024
18.560000	1085.379506
18.570000	1099.077223
18.580000	1064.368533
18.590000	966.624475
18.600000	802.390100
18.610000	614.299491
18.620000	450.092855
18.630000	337.920512
18.640000	275.043224
18.650000	233.136358
18.660000	207.723496
18.670000	206.382349
18.680000	228.711528
18.690000	263.260302
18.700000	285.659017
18.710000	291.854962
18.720000	280.273515
18.730000	257.464767
18.740000	226.203099
18.750000	203.438253
18.760000	184.731307
18.770000	176.431360
18.780000	176.225001
18.790000	181.746221
18.800000	195.720527
18.810000	214.029415
18.820000	242.897543
18.830000	270.248038
18.840000	300.438004
18.850000	327.422344
18.860000	364.682291
18.870000	400.510270
18.880000	437.614916
18.890000	473.565426
18.900000	509.203810
18.910000	532.565286
18.920000	511.717001
18.930000	426.576092
18.940000	270.578311
18.950000	87.034125
18.960000	-93.953830
18.970000	-227.826061
18.980000	-327.669646
18.990000	-388.663155
19.000000	-426.134315
19.010000	-445.166372
19.020000	-439.596434
19.030000	-431.108488
19.040000	-413.678942
19.050000	-410.160475
19.060000	-420.061963
19.070000	-443.913963
19.080000	-478.801612
19.090000	-507.996330
19.100000	-528.613495
19.110000	-534.772064
19.120000	-535.501982
19.130000	-533.566953
19.140000	-525.410185
19.150000	-502.385648
19.160000	-470.396839
19.170000	-435.911753
19.180000	-401.078186
19.190000	-429.981895
19.200000	-536.663359
19.210000	-697.991914
19.220000	-842.157489
19.230000	-935.149092
19.240000	-1006.871188
19.250000	-1050.249402
19.260000	-1090.385292
19.270000	-1110.614358
19.280000	-1110.657750
19.290000	-1101.056363
19.300000	-1095.319671
19.310000	-1107.214353
19.320000	-1125.963419
19.330000	-1158.805018
19.340000	-1192.267430
19.350000	-1218.127850
19.360000	-1230.964152
19.370000	-1236.867917
19.380000	-1238.704877
19.390000	-1227.629259
19.400000	-1213.885380
19.410000	-1188.057846
19.420000	-1161.511421
19.430000	-1130.834861
19.440000	-1097.540537
19.450000	-1061.330321
19.460000	-1015.275384
19.470000	-975.948124
19.480000	-936.671350
19.490000	-908.005420
19.500000	-870.377199
19.510000	-823.508853
19.520000	-773.159928
19.530000	-748.470617
19.540000	-781.679090
19.550000	-894.799365
19.560000	-1070.819933
19.570000	-1267.120438
19.580000	-1431.998951
19.590000	-1548.600792
19.600000	-1631.996334
19.610000	-1694.137026
19.620000	-1745.721814
19.630000	-1782.029526
19.640000	-1796.842205
19.650000	-1793.347273
19.660000	-1781.380653
19.670000	-1776.414000
19.680000	-1788.638459
19.690000	-1816.516055
19.700000	-1853.617376
19.710000	-1886.667514
19.720000	-1914.030114
19.730000	-1930.544784
19.740000	-1936.861259
19.750000	-1925.803289
19.760000	-1901.793925
19.770000	-1870.802626
19.780000	-1836.122736
19.790000	-1797.529361
19.800000	-1755.858408
19.810000	-1704.974438
19.820000	-1656.380212
19.830000	-1604.777911
19.840000	-1556.672484
19.850000	-1508.625624
19.860000	-1466.729302
19.870000	-1424.176426
19.880000	-1376.197037
19.890000	-1324.149509
19.900000	-1278.428490
19.910000	-1235.489985
19.920000	-1184.044449
19.930000	-1146.996918
19.940000	-1158.430401
19.950000	-1250.571455
19.960000	-1408.426099
19.970000	-1590.145072
19.980000	-1748.145611
19.990000	-1857.854828
20.000000	-1930.369404
20.010000	-1980.313945
20.020000	-2015.313658
20.030000	-2037.163403
20.040000	-2043.987509
20.050000	-2040.771363
20.060000	-2026.718436
20.070000	-2019.168711
20.080000	-2023.155077
20.090000	-2043.972891
20.100000	-2068.948388
20.110000	-2092.201656
20.120000	-2110.153835
20.130000	-2121.509051
20.140000	-2114.736727
20.150000	-2099.947959
20.160000	-2073.687602
20.170000	-2041.817524
20.180000	-1997.341373
20.190000	-1952.143623
20.200000	-1911.381127
20.210000	-1865.165969
20.220000	-1814.855763
20.230000	-1757.246195
20.240000	-1705.111099
20.250000	-1646.996419
20.260000	-1595.502090
20.270000	-1541.756965
20.280000	-1491.669329
20.290000	-1443.565357
20.300000	-1396.239533
20.310000	-1353.121157
20.320000	-1313.198541
20.330000	-1284.769843
20.340000	-1289.260559
20.350000	-1339.795650
20.360000	-1449.054227
20.370000	-1592.451597
20.380000	-1739.563951
20.390000	-1853.153855
20.400000	-1910.845773
20.410000	-1911.645693
20.420000	-1855.861589
20.430000	-1763.588516
20.440000	-1649.926533
20.450000	-1543.631220
20.460000	-1433.276342
20.470000	-1335.144767
20.480000	-1246.635188
20.490000	-1181.764350
20.500000	-1120.293156
20.510000	-1046.455567
20.520000	-976.431013
20.530000	-908.489202
20.540000	-842.297102
20.550000	-742.149527
20.560000	-619.014666
20.570000	-492.556453
20.580000	-374.766641
20.590000	-255.958751
20.600000	-125.904799
20.610000	10.878027
20.620000	137.870899
20.630000	248.690042
20.640000	330.577070
20.650000	390.170559
20.660000	416.183143
20.670000	386.571245
20.680000	284.420256
20.690000	129.690736
20.700000	-8.924023
20.710000	-98.001319
20.720000	-133.396155
20.730000	-135.139982
20.740000	-116.228603
20.750000	-105.033281
20.760000	-150.161802
20.770000	-270.222117
20.780000	-447.372252
20.790000	-635.042176
20.800000	-788.296747
20.810000	-891.652103
20.820000	-951.656820
20.830000	-986.334694
20.840000	-1000.019850
20.850000	-998.394281
20.860000	-981.740743
20.870000	-959.183571
20.880000	-937.159057
20.890000	-922.344373
20.900000	-911.587265
20.910000	-888.170844
20.920000	-850.760008
20.930000	-790.010295
20.940000	-709.001204
20.950000	-603.195835
20.960000	-488.665351
20.970000	-378.739532
20.980000	-270.984554
20.990000	-156.964427
21.000000	-39.364648
21.010000	64.741491
21.020000	140.231622
21.030000	171.417536
21.040000	160.181840
21.050000	111.073935
21.060000	61.195168
21.070000	25.978529
21.080000	14.833667
21.090000	12.123383
21.100000	13.145256
21.110000	17.590700
21.120000	34.125894
21.130000	56.328312
21.140000	81.763226
21.150000	98.018264
21.160000	91.711644
21.170000	49.689928
21.180000	-45.369636
21.190000	-152.161626
21.200000	-234.816087
21.210000	-261.707745
21.220000	-276.484852
21.230000	-292.853189
21.240000	-320.490112
21.250000	-335.586880
21.260000	-327.544530
21.270000	-305.720915
21.280000	-271.254556
21.290000	-242.914208
21.300000	-218.584039
21.310000	-204.473164
21.320000	-209.262422
21.330000	-236.359058
21.340000	-288.279090
21.350000	-342.850520
21.360000	-373.957608
21.370000	-390.109067
21.380000	-406.325300
21.390000	-438.707841
21.400000	-457.236204
21.410000	-449.691359
21.420000	-412.171765
21.430000	-357.722525
21.440000	-299.106940
21.450000	-249.420946
21.460000	-207.334786
21.470000	-157.746446
21.480000	-104.612497
21.490000	-52.737739
21.500000	-10.228683
21.510000	33.994981
21.520000	81.801869
21.530000	133.730143
21.540000	199.196961
21.550000	308.196030
21.560000	471.547656
21.570000	664.239150
21.580000	822.468184
21.590000	891.651344
21.600000	866.869583
21.610000	774.494652
21.620000	654.654637
21.630000	541.334322
21.640000	450.069614
21.650000	380.143968
21.660000	328.827694
21.670000	303.330227
21.680000	314.278487
21.690000	354.150642
21.700000	402.043871
21.710000	430.973034
21.720000	448.924661
21.730000	468.829026
21.740000	484.105884
21.750000	486.033819
21.760000	455.948473
21.770000	410.023629
21.780000	370.831956
21.790000	368.391190
21.800000	402.657490
21.810000	453.729475
21.820000	498.834377
21.830000	562.223463
21.840000	662.021624
21.850000	771.288161
21.860000	861.232241
21.870000	906.725331
21.880000	942.303098
21.890000	975.117606
21.900000	1013.407869
21.910000	1040.472917
21.920000	1072.969727
21.930000	1117.834257
21.940000	1174.210165
21.950000	1220.171621
21.960000	1237.495238
21.970000	1224.255447
21.980000	1182.159213
21.990000	1091.650348
22.000000	961.938881
22.010000	814.115099
22.020000	680.119433
22.030000	588.943358
22.040000	537.584235
22.050000	542.865375
22.060000	581.311503
22.070000	637.850795
22.080000	690.393655
22.090000	740.275209
22.100000	780.828981
22.110000	796.718120
22.120000	762.947243
22.130000	683.951809
22.140000	588.509450
22.150000	512.582793
22.160000	481.086007
22.170000	490.179963
22.180000	528.019528
22.190000	563.771057
22.200000	604.771086
22.210000	668.771073
22.220000	746.495844
22.230000	827.816621
22.240000	902.267993
22.250000	984.981221
22.260000	1054.990177
22.270000	1112.587147
22.280000	1182.496153
22.290000	1268.853627
22.300000	1342.628537
22.310000	1398.235738
22.320000	1458.891652
22.330000	1531.959647
22.340000	1597.465392
22.350000	1653.786702
22.360000	1707.113683
22.370000	1732.247649
22.380000	1705.152272
22.390000	1619.812187
22.400000	1511.692529
22.410000	1397.713832
22.420000	1307.656441
22.430000	1233.232871
22.440000	1154.978544
22.450000	1060.159551
22.460000	969.114229
22.470000	917.183768
22.480000	909.222754
22.490000	934.889728
22.500000	963.666240
22.510000	987.715253
22.520000	1014.542690
22.530000	1048.255816
22.540000	1079.105662
22.550000	1101.532667
22.560000	1120.422300
22.570000	1151.898884
22.580000	1201.769280
22.590000	1277.996546
22.600000	1375.806966
22.610000	1488.147127
22.620000	1606.232565
22.630000	1724.699916
22.640000	1825.683435
22.650000	1896.994698
22.660000	1951.930817
22.670000	1990.646666
22.680000	2022.262863
22.690000	2030.288407
22.700000	2011.023558
22.710000	1961.659498
22.720000	1882.185547
22.730000	1784.456816
22.740000	1681.745081
22.750000	1578.958154
22.760000	1464.653359
22.770000	1342.895719
22.780000	1215.950301
22.790000	1113.635868
22.800000	1038.231797
22.810000	992.103059
22.820000	977.573262
22.830000	985.933299
22.840000	1026.691374
22.850000	1077.068057
22.860000	1135.260213
22.870000	1177.869861
22.880000	1203.616058
22.890000	1213.069572
22.900000	1210.374426
22.910000	1213.366144
22.920000	1214.455426
22.930000	1219.090854
22.940000	1222.233140
22.950000	1235.921173
22.960000	1261.373012
22.970000	1291.119346
22.980000	1322.918784
22.990000	1356.714881
23.000000	1392.856843
23.010000	1431.701412
23.020000	1476.861281
23.030000	1521.717061
23.040000	1563.600236
23.050000	1607.142863
23.060000	1653.051601
23.070000	1696.275791
23.080000	1732.895417
23.090000	1766.819296
23.100000	1787.421437
23.110000	1780.073640
23.120000	1740.697962
23.130000	1657.695206
23.140000	1539.082584
23.150000	1402.062549
23.160000	1275.552919
23.170000	1168.428020
23.180000	1083.392456
23.190000	1025.184853
23.200000	984.913283
23.210000	967.364260
23.220000	959.436258
23.230000	963.637420
23.240000	963.290345
23.250000	950.986097
23.260000	931.226788
23.270000	904.706866
23.280000	880.234303
23.290000	856.448058
23.300000	833.961818
23.310000	823.932336
23.320000	822.695638
23.330000	826.797075
23.340000	838.156978
23.350000	854.362201
23.360000	882.690081
23.370000	916.934966
23.380000	956.282179
23.390000	990.191381
23.400000	1029.643254
23.410000	1068.777577
23.420000	1108.063908
23.430000	1140.050363
23.440000	1176.244462
23.450000	1218.336818
23.460000	1238.049470
23.470000	1213.346642
23.480000	1130.248947
23.490000	1004.142237
23.500000	857.505794
23.510000	719.994858
23.520000	608.430797
23.530000	530.191030
23.540000	474.675326
23.550000	444.124116
23.560000	433.266945
23.570000	442.773972
23.580000	465.537053
23.590000	482.089133
23.600000	485.540349
23.610000	466.762851
23.620000	439.303348
23.630000	408.444012
23.640000	384.108620
23.650000	376.153894
23.660000	380.570758
23.670000	391.218913
23.680000	402.060206
23.690000	421.015337
23.700000	450.560467
23.710000	483.476932
23.720000	517.097723
23.730000	550.299955
23.740000	589.345138
23.750000	632.791049
23.760000	677.275860
23.770000	726.990814
23.780000	772.523152
23.790000	806.215338
23.800000	803.743942
23.810000	747.811093
23.820000	632.681080
23.830000	471.475885
23.840000	287.997443
23.850000	120.529656
23.860000	-11.054919
23.870000	-99.102317
23.880000	-159.157210
23.890000	-199.701798
23.900000	-217.548383
23.910000	-215.639746
23.920000	-203.947848
23.930000	-199.921239
23.940000	-212.982304
23.950000	-240.159749
23.960000	-269.316663
23.970000	-293.070413
23.980000	-309.659574
23.990000	-321.653434
24.000000	-325.312970
24.010000	-317.901030
24.020000	-296.294471
24.030000	-268.174809
24.040000	-234.254012
24.050000	-199.458015
24.060000	-160.857165
24.070000	-117.746521
24.080000	-74.808304
24.090000	-26.340362
24.100000	26.219758
24.110000	78.723164
24.120000	130.254184
24.130000	178.111937
24.140000	221.289414
24.150000	236.100574
24.160000	189.627440
24.170000	67.467549
24.180000	-114.959143
24.190000	-314.095383
24.200000	-486.888304
24.210000	-624.093035
24.220000	-719.835923
24.230000	-787.486736
24.240000	-834.778583
24.250000	-863.542074
24.260000	-873.059411
24.270000	-865.952397
24.280000	-861.398833
24.290000	-869.685392
24.300000	-888.384391
24.310000	-916.102910
24.320000	-949.045651
24.330000	-984.539761
24.340000	-1015.043732
24.350000	-1029.985751
24.360000	-1028.753892
24.370000	-1010.115350
24.380000	-986.186617
24.390000	-957.566459
24.400000	-921.296621
24.410000	-876.377227
24.420000	-831.454626
24.430000	-781.505845
24.440000	-728.989121
24.450000	-672.647412
24.460000	-620.572984
24.470000	-571.454040
24.480000	-517.497133
24.490000	-467.999555
24.500000	-417.740541
24.510000	-365.916857
24.520000	-312.680075
24.530000	-280.589721
24.540000	-303.678984
24.550000	-406.264267
24.560000	-576.607743
24.570000	-773.888314
24.580000	-953.556144
24.590000	-1089.259393
24.600000	-1184.283489
24.610000	-1246.006409
24.620000	-1288.728357
24.630000	-1319.432311
24.640000	-1334.510254
24.650000	-1330.558685
24.660000	-1318.364819
24.670000	-1311.393214
24.680000	-1323.254353
24.690000	-1348.543843
24.700000	-1380.843179
24.710000	-1411.390523
24.720000	-1432.471100
24.730000	-1440.953067
24.740000	-1436.811215
24.750000	-1421.557202
24.760000	-1399.195912
24.770000	-1370.858199
24.780000	-1326.922847
24.790000	-1279.591243
24.800000	-1230.660313
24.810000	-1189.718449
24.820000	-1143.708657
24.830000	-1093.925121
24.840000	-1042.131974
24.850000	-987.832890
24.860000	-933.604655
24.870000	-874.761916
24.880000	-820.824495
24.890000	-766.024028
24.900000	-710.101469
24.910000	-651.324353
24.920000	-588.756475
24.930000	-538.046319
24.940000	-518.798680
24.950000	-562.176603
24.960000	-686.181544
24.970000	-866.233642
24.980000	-1054.544599
24.990000	-1203.334863
25.000000	-1304.394044
25.010000	-1365.190402
25.020000	-1404.987345
25.030000	-1423.704467
25.040000	-1425.637844
25.050000	-1405.236846
25.060000	-1379.395517
25.070000	-1360.803365
25.080000	-1357.185398
25.090000	-1370.065508
25.100000	-1389.657003
25.110000	-1413.059481
25.120000	-1427.146892
25.130000	-1430.131074
25.140000	-1419.013371
25.150000	-1394.927358
25.160000	-1364.274409
25.170000	-1319.732782
25.180000	-1269.959567
25.190000	-1211.886291
25.200000	-1153.388456
25.210000	-1082.365316
25.220000	-1001.906147
25.230000	-908.874349
25.240000	-811.502194
25.250000	-711.412373
25.260000	-620.506959
25.270000	-529.940568
25.280000	-448.607603
25.290000	-471.418830
25.300000	-614.204855
25.310000	-823.420342
25.320000	-944.571961
25.330000	-974.885659
25.340000	-960.453688
25.350000	-957.425641
25.360000	-952.525071
25.370000	-941.704606
25.380000	-938.357944
25.390000	-959.373367
25.400000	-1018.228255
25.410000	-1097.671139
25.420000	-1189.837687
25.430000	-1279.996643
25.440000	-1350.151325
25.450000	-1373.343952
25.460000	-1359.612894
25.470000	-1320.073762
25.480000	-1283.502393
25.490000	-1246.093387
25.500000	-1210.455345
25.510000	-1166.791300
25.520000	-1105.120002
25.530000	-1041.272163
25.540000	-989.826447
25.550000	-944.741447
25.560000	-893.560149
25.570000	-837.292415
25.580000	-779.679192
25.590000	-716.532584
25.600000	-643.842838
25.610000	-562.496777
25.620000	-497.115369
25.630000	-431.726297
25.640000	-368.480949
25.650000	-291.616330
25.660000	-217.978920
25.670000	-157.530056
25.680000	-107.818510
25.690000	-80.858996
25.700000	-85.023348
25.710000	-158.645252
25.720000	-318.543888
25.730000	-564.425736
25.740000	-846.302267
25.750000	-1102.882606
25.760000	-1291.819867
25.770000	-1423.524659
25.780000	-1520.076212
25.790000	-1605.211034
25.800000	-1672.288629
25.810000	-1710.592108
25.820000	-1716.893891
25.830000	-1700.379254
25.840000	-1678.894614
25.850000	-1655.831386
25.860000	-1627.914721
25.870000	-1584.968584
25.880000	-1547.389135
25.890000	-1519.431430
25.900000	-1499.216313
25.910000	-1467.215033
25.920000	-1422.463323
25.930000	-1369.381873
25.940000	-1318.094038
25.950000	-1252.845263
25.960000	-1160.432295
25.970000	-1050.738834
25.980000	-935.140981
25.990000	-849.732844
26.000000	-792.777860
26.010000	-770.781127
26.020000	-767.048860
26.030000	-757.506509
26.040000	-739.742921
26.050000	-700.565360
26.060000	-652.871239
26.070000	-600.628461
26.080000	-563.738269
26.090000	-534.978184
26.100000	-499.611947
26.110000	-456.725987
26.120000	-400.164165
26.130000	-357.926697
26.140000	-357.072379
26.150000	-432.507026
26.160000	-577.223022
26.170000	-763.721433
26.180000	-946.346965
26.190000	-1085.976421
26.200000	-1141.153275
26.210000	-1109.025676
26.220000	-1020.406404
26.230000	-910.774888
26.240000	-802.643835
26.250000	-712.526974
26.260000	-652.220422
26.270000	-621.597853
26.280000	-612.793377
26.290000	-609.663037
26.300000	-603.068695
26.310000	-584.746484
26.320000	-559.394881
26.330000	-546.886275
26.340000	-537.988527
26.350000	-519.695825
26.360000	-487.284434
26.370000	-440.864219
26.380000	-388.279871
26.390000	-334.368685
26.400000	-292.308593
26.410000	-246.136199
26.420000	-196.726021
26.430000	-119.843245
26.440000	-20.230907
26.450000	116.495006
26.460000	250.441861
26.470000	349.515369
26.480000	422.889299
26.490000	493.903260
26.500000	577.643316
26.510000	663.884839
26.520000	795.874690
26.530000	952.353693
26.540000	1086.032965
26.550000	1122.079229
26.560000	1099.503525
26.570000	1063.154332
26.580000	1021.541737
26.590000	949.471570
26.600000	851.329809
26.610000	774.576301
26.620000	727.680542
26.630000	715.006732
26.640000	711.287420
26.650000	732.889595
26.660000	789.548040
26.670000	880.750144
26.680000	956.679610
26.690000	986.335937
26.700000	974.249524
26.710000	946.990203
26.720000	897.401929
26.730000	809.963790
26.740000	690.288510
26.750000	546.286983
26.760000	373.484857
26.770000	200.712587
26.780000	89.448964
26.790000	69.061899
26.800000	121.963151
26.810000	197.332799
26.820000	264.880397
26.830000	305.314391
26.840000	317.194298
26.850000	332.402274
26.860000	377.508850
26.870000	445.413388
26.880000	532.181612
26.890000	617.395874
26.900000	698.921698
26.910000	776.735058
26.920000	867.726265
26.930000	990.764821
26.940000	1105.386792
26.950000	1169.810328
26.960000	1150.757140
26.970000	1065.347821
26.980000	950.201692
26.990000	843.243296
27.000000	756.262602
27.010000	684.448383
27.020000	641.062089
27.030000	657.392312
27.040000	724.774893
27.050000	796.588758
27.060000	849.909930
27.070000	897.240024
27.080000	952.406500
27.090000	992.481929
27.100000	1012.310495
27.110000	1022.459319
27.120000	1049.283835
27.130000	1089.047045
27.140000	1140.624338
27.150000	1210.014653
27.160000	1304.662782
27.170000	1425.659091
27.180000	1545.316777
27.190000	1641.680826
27.200000	1703.695884
27.210000	1746.135623
27.220000	1780.428192
27.230000	1801.240366
27.240000	1806.866694
27.250000	1811.084098
27.260000	1818.309513
27.270000	1822.596272
27.280000	1811.765658
27.290000	1788.179016
27.300000	1748.904746
27.310000	1669.734304
27.320000	1543.789240
27.330000	1384.042069
27.340000	1214.401864
27.350000	1053.032273
27.360000	903.673212
27.370000	775.402255
27.380000	677.978319
27.390000	598.074149
27.400000	546.047226
27.410000	507.710802
27.420000	495.889245
27.430000	507.335654
27.440000	524.390764
27.450000	534.674166
27.460000	519.908655
27.470000	504.495869
27.480000	494.742885
27.490000	489.663640
27.500000	476.577821
27.510000	465.927803
27.520000	462.764219
27.530000	476.904713
27.540000	497.259563
27.550000	522.608477
27.560000	551.119682
27.570000	581.680711
27.580000	615.686552
27.590000	653.449868
27.600000	693.615431
27.610000	737.927486
27.620000	783.230822
27.630000	826.438609
27.640000	870.897212
27.650000	906.278846
27.660000	935.299432
27.670000	946.112419
27.680000	942.778667
27.690000	904.243654
27.700000	818.984035
27.710000	684.432749
27.720000	528.974310
27.730000	379.651351
27.740000	250.629033
27.750000	134.844755
27.760000	35.010327
27.770000	-45.259685
27.780000	-94.219752
27.790000	-114.704593
27.800000	-121.449656
27.810000	-136.135765
27.820000	-174.296580
27.830000	-232.482082
27.840000	-302.430955
27.850000	-373.121529
27.860000	-444.563049
27.870000	-512.048820
27.880000	-572.667578
27.890000	-625.281858
27.900000	-670.076648
27.910000	-710.491440
27.920000	-742.766912
27.930000	-759.659107
27.940000	-768.799038
27.950000	-769.772364
27.960000	-770.154137
27.970000	-763.815683
27.980000	-747.150530
27.990000	-715.490447
28.000000	-668.793981
28.010000	-619.166241
28.020000	-569.713700
28.030000	-512.445849
28.040000	-461.327989
28.050000	-435.707810
28.060000	-457.249508
28.070000	-513.844510
28.080000	-583.110268
28.090000	-642.615158
28.100000	-671.943935
28.110000	-669.404550
28.120000	-636.754343
28.130000	-595.214610
28.140000	-551.157782
28.150000	-497.621794
28.160000	-431.204678
28.170000	-363.035830
28.180000	-320.596683
28.190000	-302.002662
28.200000	-301.277488
28.210000	-310.597709
28.220000	-321.589988
28.230000	-327.162728
28.240000	-312.180088
28.250000	-292.445663
28.260000	-268.694982
28.270000	-236.346745
28.280000	-184.826069
28.290000	-110.232048
28.300000	-31.318503
28.310000	48.626102
28.320000	121.209456
28.330000	191.221638
28.340000	263.104405
28.350000	330.154609
28.360000	386.369423
28.370000	424.786522
28.380000	444.018090
28.390000	449.806450
28.400000	422.632563
28.410000	363.584921
28.420000	277.960624
28.430000	191.789113
28.440000	118.957527
28.450000	57.652452
28.460000	20.362727
28.470000	0.833401
28.480000	-3.519490
28.490000	8.059433
28.500000	33.292616
28.510000	63.971904
28.520000	84.788023
28.530000	95.294746
28.540000	108.356278
28.550000	124.286146
28.560000	147.973537
28.570000	172.615277
28.580000	197.644510
28.590000	227.996175
28.600000	266.680255
28.610000	311.733543
28.620000	352.061116
28.630000	386.535216
28.640000	418.491230
28.650000	456.722270
28.660000	497.256734
28.670000	540.291278
28.680000	588.399327
28.690000	636.209077
28.700000	684.596407
28.710000	722.798947
28.720000	763.562130
28.730000	795.359600
28.740000	801.551285
28.750000	761.613759
28.760000	678.977091
28.770000	568.269551
28.780000	453.466124
28.790000	262.201610
