Time(s)	GREEN_denoised_wiener
0.000000	547.225311
0.010000	597.203611
0.020000	625.854516
0.030000	657.466179
0.040000	685.062346
0.050000	720.456378
0.060000	750.878457
0.070000	782.841780
0.080000	794.625695
0.090000	748.491621
0.100000	612.670248
0.110000	565.252292
0.120000	566.695913
0.130000	570.354868
0.140000	565.135386
0.150000	565.534649
0.160000	561.179869
0.170000	562.444458
0.180000	561.513838
0.190000	568.074834
0.200000	574.138142
0.210000	586.417525
0.220000	598.397757
0.230000	615.464257
0.240000	631.964783
0.250000	652.877614
0.260000	674.511790
0.270000	699.979810
0.280000	722.367767
0.290000	737.091265
0.300000	733.208826
0.310000	706.891139
0.320000	656.725078
0.330000	594.060960
0.340000	527.568523
0.350000	472.249052
0.360000	427.035036
0.370000	393.110182
0.380000	363.813173
0.390000	341.996928
0.400000	324.574124
0.410000	315.234391
0.420000	308.976280
0.430000	305.817019
0.440000	295.013231
0.450000	282.108363
0.460000	263.354945
0.470000	249.435919
0.480000	232.976603
0.490000	223.138058
0.500000	211.879806
0.510000	210.889463
0.520000	206.708648
0.530000	213.043135
0.540000	213.782875
0.550000	226.616532
0.560000	231.078822
0.570000	249.633966
0.580000	258.907945
0.590000	239.924861
0.600000	-121.532775
0.610000	-179.136233
0.620000	-206.905600
0.630000	-217.298349
0.640000	-233.617120
0.650000	-239.695713
0.660000	-255.438416
0.670000	-269.017012
0.680000	-293.004875
0.690000	-312.608337
0.700000	-335.645680
0.710000	-353.500476
0.720000	-375.682599
0.730000	-390.681585
0.740000	-401.773876
0.750000	-398.505766
0.760000	-392.607233
0.770000	-382.976220
0.780000	-375.809183
0.790000	-364.761134
0.800000	-352.384837
0.810000	-336.549474
0.820000	-319.656248
0.830000	-300.344477
0.840000	-282.626428
0.850000	-273.164450
0.860000	-284.631154
0.870000	-323.987118
0.880000	-388.962586
0.890000	-462.789028
0.900000	-533.326132
0.910000	-590.950924
0.920000	-635.067878
0.930000	-666.470370
0.940000	-687.167023
0.950000	-700.013191
0.960000	-705.614690
0.970000	-706.917454
0.980000	-707.753448
0.990000	-711.175205
1.000000	-719.579668
1.010000	-731.445085
1.020000	-746.098069
1.030000	-759.395574
1.040000	-767.975703
1.050000	-772.046568
1.060000	-769.538052
1.070000	-765.073853
1.080000	-756.439792
1.090000	-741.793925
1.100000	-749.115455
1.110000	-777.460157
1.120000	-825.482528
1.130000	-860.733713
1.140000	-880.290349
1.150000	-891.060824
1.160000	-891.769133
1.170000	-887.097961
1.180000	-874.923097
1.190000	-861.853168
1.200000	-851.095338
1.210000	-846.638338
1.220000	-844.941574
1.230000	-843.788673
1.240000	-839.813027
1.250000	-834.647961
1.260000	-824.364593
1.270000	-810.551290
1.280000	-791.937355
1.290000	-771.495479
1.300000	-747.860893
1.310000	-722.811132
1.320000	-697.478966
1.330000	-673.157000
1.340000	-646.781649
1.350000	-618.876086
1.360000	-588.109397
1.370000	-557.637773
1.380000	-534.143888
1.390000	-531.783822
1.400000	-555.851315
1.410000	-603.939434
1.420000	-660.553610
1.430000	-716.810785
1.440000	-761.279913
1.450000	-794.078282
1.460000	-812.696849
1.470000	-823.401139
1.480000	-824.122230
1.490000	-821.111589
1.500000	-809.548672
1.510000	-799.561294
1.520000	-785.630393
1.530000	-779.423172
1.540000	-771.352083
1.550000	-772.707447
1.560000	-768.700569
1.570000	-769.090934
1.580000	-757.676229
1.590000	-706.205562
1.600000	-493.247443
1.610000	-451.791923
1.620000	-465.772530
1.630000	-510.835481
1.640000	-560.584616
1.650000	-616.320315
1.660000	-656.031208
1.670000	-688.588496
1.680000	-706.130354
1.690000	-719.941091
1.700000	-723.211614
1.710000	-722.027553
1.720000	-711.293918
1.730000	-699.516422
1.740000	-686.383685
1.750000	-678.723202
1.760000	-672.475139
1.770000	-669.644845
1.780000	-664.242782
1.790000	-658.620819
1.800000	-649.025013
1.810000	-637.310154
1.820000	-619.154830
1.830000	-597.049338
1.840000	-570.641231
1.850000	-542.494171
1.860000	-512.484471
1.870000	-480.302623
1.880000	-446.026140
1.890000	-410.142803
1.900000	-371.928314
1.910000	-332.351362
1.920000	-292.862100
1.930000	-261.608498
1.940000	-246.491945
1.950000	-253.891410
1.960000	-283.466511
1.970000	-324.843156
1.980000	-365.464691
1.990000	-396.501295
2.000000	-416.512534
2.010000	-425.860294
2.020000	-427.931135
2.030000	-425.245903
2.040000	-417.704729
2.050000	-404.992979
2.060000	-388.177369
2.070000	-373.783495
2.080000	-361.325724
2.090000	-352.942712
2.100000	-346.490329
2.110000	-341.133389
2.120000	-334.010417
2.130000	-322.686132
2.140000	-308.234214
2.150000	-290.930598
2.160000	-272.154798
2.170000	-250.527747
2.180000	-226.440340
2.190000	-199.816881
2.200000	-171.421288
2.210000	-141.798345
2.220000	-110.425400
2.230000	-78.142811
2.240000	-43.114583
2.250000	-9.529409
2.260000	15.830366
2.270000	23.384404
2.280000	8.764565
2.290000	-22.365792
2.300000	-58.643637
2.310000	-89.810236
2.320000	-112.428284
2.330000	-126.287748
2.340000	-132.239876
2.350000	-130.453909
2.360000	-123.080591
2.370000	-110.639094
2.380000	-95.950958
2.390000	-80.176200
2.400000	-66.182322
2.410000	-54.396064
2.420000	-44.099826
2.430000	-34.638537
2.440000	-23.701706
2.450000	-11.576889
2.460000	3.680647
2.470000	21.456013
2.480000	42.378215
2.490000	65.797380
2.500000	90.720332
2.510000	116.451903
2.520000	144.046438
2.530000	173.750237
2.540000	205.350825
2.550000	236.355361
2.560000	267.644373
2.570000	299.271617
2.580000	328.911631
2.590000	348.820072
2.600000	351.827720
2.610000	334.024900
2.620000	301.418632
2.630000	261.882605
2.640000	226.666729
2.650000	197.696104
2.660000	177.899145
2.670000	162.135829
2.680000	153.803552
2.690000	166.585836
2.700000	189.622732
2.710000	217.366101
2.720000	233.728786
2.730000	251.207511
2.740000	271.788759
2.750000	293.019661
2.760000	316.509635
2.770000	341.475128
2.780000	368.885357
2.790000	396.906401
2.800000	426.251718
2.810000	456.317836
2.820000	485.265263
2.830000	503.358293
2.840000	504.272348
2.850000	482.384974
2.860000	445.300178
2.870000	402.735328
2.880000	364.980899
2.890000	335.384712
2.900000	312.967946
2.910000	296.017060
2.920000	284.945925
2.930000	278.964629
2.940000	279.247928
2.950000	282.217874
2.960000	288.212849
2.970000	291.774121
2.980000	294.516217
2.990000	292.968848
3.000000	292.162136
3.010000	292.470080
3.020000	296.132562
3.030000	300.610990
3.040000	307.099459
3.050000	316.403801
3.060000	331.057482
3.070000	345.828410
3.080000	364.025501
3.090000	400.939205
3.100000	418.834564
3.110000	412.793554
3.120000	373.284443
3.130000	339.769353
3.140000	317.293408
3.150000	297.027388
3.160000	286.333912
3.170000	280.907164
3.180000	284.383406
3.190000	289.076404
3.200000	295.108293
3.210000	295.881183
3.220000	292.174150
3.230000	284.338875
3.240000	275.902860
3.250000	269.782394
3.260000	266.278600
3.270000	266.214931
3.280000	269.639831
3.290000	275.966712
3.300000	286.661053
3.310000	299.362370
3.320000	314.343923
3.330000	330.074180
3.340000	346.685833
3.350000	365.443593
3.360000	385.008440
3.370000	404.802964
3.380000	420.642357
3.390000	425.475697
3.400000	412.264220
3.410000	377.145076
3.420000	327.906012
3.430000	275.811940
3.440000	231.199860
3.450000	197.113376
3.460000	172.804564
3.470000	155.731151
3.480000	146.071336
3.490000	143.669268
3.500000	147.323156
3.510000	152.252133
3.520000	155.902329
3.530000	155.488926
3.540000	152.146820
3.550000	146.712774
3.560000	142.719914
3.570000	141.251077
3.580000	142.946295
3.590000	148.109613
3.600000	156.492298
3.610000	167.287740
3.620000	180.695505
3.630000	196.786604
3.640000	215.552898
3.650000	235.936968
3.660000	256.062402
3.670000	277.417578
3.680000	300.556988
3.690000	326.553901
3.700000	351.692680
3.710000	368.333676
3.720000	367.144589
3.730000	342.110059
3.740000	294.938507
3.750000	236.900128
3.760000	178.718306
3.770000	129.673576
3.780000	91.798830
3.790000	63.424106
3.800000	43.200777
3.810000	28.491591
3.820000	20.266413
3.830000	16.538023
3.840000	16.990326
3.850000	17.895390
3.860000	16.704404
3.870000	11.909160
3.880000	4.077682
3.890000	-3.415912
3.900000	-9.903069
3.910000	-11.746142
3.920000	-9.575569
3.930000	-1.750207
3.940000	10.062722
3.950000	23.563823
3.960000	38.693615
3.970000	55.197050
3.980000	74.649222
3.990000	96.143099
4.000000	119.593343
4.010000	145.075799
4.020000	172.188978
4.030000	198.321873
4.040000	219.099159
4.050000	223.535797
4.060000	205.341519
4.070000	162.413787
4.080000	105.939554
4.090000	46.275280
4.100000	-4.137626
4.110000	-44.242162
4.120000	-71.892875
4.130000	-92.127117
4.140000	-103.979482
4.150000	-111.373402
4.160000	-112.398024
4.170000	-111.318000
4.180000	-107.818731
4.190000	-80.887212
4.200000	-45.018483
4.210000	-2.103380
4.220000	25.711169
4.230000	52.765652
4.240000	83.398279
4.250000	113.596624
4.260000	145.754473
4.270000	173.053728
4.280000	190.433536
4.290000	187.815038
4.300000	162.450666
4.310000	122.256841
4.320000	79.464123
4.330000	44.010097
4.340000	20.781397
4.350000	9.399854
4.360000	9.416039
4.370000	15.426840
4.380000	27.717077
4.390000	46.437502
4.400000	71.334317
4.410000	96.750574
4.420000	118.606410
4.430000	136.390572
4.440000	155.879499
4.450000	178.000913
4.460000	203.468928
4.470000	228.916907
4.480000	255.387261
4.490000	284.150251
4.500000	312.945884
4.510000	340.369190
4.520000	361.143713
4.530000	376.255091
4.540000	384.986552
4.550000	392.473338
4.560000	401.138129
4.570000	411.001089
4.580000	409.237108
4.590000	365.128957
4.600000	267.262274
4.610000	95.014395
4.620000	-104.441543
4.630000	-302.857283
4.640000	-485.899697
4.650000	-619.382622
4.660000	-708.918882
4.670000	-754.038574
4.680000	-766.191036
4.690000	-758.002550
4.700000	-735.797648
4.710000	-704.648262
4.720000	-670.090785
4.730000	-638.314416
4.740000	-611.057074
4.750000	-586.656669
4.760000	-567.720581
4.770000	-552.672974
4.780000	-538.064532
4.790000	-522.045974
4.800000	-505.769066
4.810000	-492.443670
4.820000	-482.485000
4.830000	-471.513972
4.840000	-458.228521
4.850000	-439.264436
4.860000	-412.327494
4.870000	-377.707863
4.880000	-335.779244
4.890000	-291.182237
4.900000	-244.572621
4.910000	-196.341800
4.920000	-145.381134
4.930000	-96.536978
4.940000	-60.224205
4.950000	-46.416881
4.960000	-55.393250
4.970000	-80.964962
4.980000	-113.906562
4.990000	-145.533806
5.000000	-170.448175
5.010000	-187.466840
5.020000	-202.027249
5.030000	-214.739223
5.040000	-227.963738
5.050000	-242.359532
5.060000	-264.602683
5.070000	-301.332329
5.080000	-348.899286
5.090000	-399.312439
5.100000	-441.205844
5.110000	-468.994303
5.120000	-481.543823
5.130000	-477.026771
5.140000	-456.910004
5.150000	-421.408262
5.160000	-374.973589
5.170000	-317.797118
5.180000	-251.393177
5.190000	-174.865019
5.200000	-94.852427
5.210000	-17.283221
5.220000	54.342775
5.230000	118.618818
5.240000	176.525734
5.250000	225.826591
5.260000	267.030849
5.270000	296.671427
5.280000	308.509707
5.290000	297.500935
5.300000	262.982026
5.310000	210.328485
5.320000	148.779779
5.330000	90.478862
5.340000	45.553544
5.350000	14.918841
5.360000	-3.699854
5.370000	-14.665292
5.380000	-17.291067
5.390000	-15.279803
5.400000	-11.230882
5.410000	-7.578801
5.420000	-5.853125
5.430000	-4.888619
5.440000	-6.167502
5.450000	-8.208466
5.460000	-8.497183
5.470000	-5.215007
5.480000	3.154214
5.490000	15.419619
5.500000	29.117410
5.510000	43.039683
5.520000	56.062852
5.530000	70.985894
5.540000	87.314648
5.550000	104.915186
5.560000	122.879768
5.570000	143.167826
5.580000	168.094696
5.590000	197.061315
5.600000	228.288592
5.610000	256.260102
5.620000	275.799003
5.630000	279.100605
5.640000	261.299771
5.650000	225.946520
5.660000	183.468409
5.670000	144.776086
5.680000	113.933910
5.690000	89.907326
5.700000	72.717998
5.710000	62.019915
5.720000	58.153004
5.730000	59.442678
5.740000	64.905622
5.750000	71.843115
5.760000	76.972359
5.770000	78.897797
5.780000	77.357945
5.790000	72.937208
5.800000	67.395834
5.810000	62.960309
5.820000	63.754683
5.830000	70.623486
5.840000	82.423823
5.850000	95.595776
5.860000	109.750760
5.870000	124.550624
5.880000	140.395478
5.890000	158.155851
5.900000	177.017987
5.910000	198.750585
5.920000	220.610516
5.930000	244.674296
5.940000	266.835129
5.950000	279.236769
5.960000	271.702419
5.970000	240.465890
5.980000	191.579037
5.990000	137.361240
6.000000	89.436077
6.010000	50.882104
6.020000	21.934273
6.030000	0.378524
6.040000	-13.244366
6.050000	-19.144874
6.060000	-18.777529
6.070000	-15.691817
6.080000	-14.665208
6.090000	-17.916225
6.100000	-24.896465
6.110000	-34.490272
6.120000	-45.812903
6.130000	-56.745494
6.140000	-65.080347
6.150000	-68.685524
6.160000	-67.705326
6.170000	-62.310258
6.180000	-53.684403
6.190000	-43.287078
6.200000	-31.010522
6.210000	-17.951902
6.220000	-2.681074
6.230000	15.028579
6.240000	35.630927
6.250000	57.318097
6.260000	75.918337
6.270000	83.579392
6.280000	70.849893
6.290000	32.835059
6.300000	-23.537573
6.310000	-85.578290
6.320000	-141.946938
6.330000	-188.028319
6.340000	-224.054507
6.350000	-249.828741
6.360000	-266.851656
6.370000	-275.978989
6.380000	-279.671489
6.390000	-279.478351
6.400000	-278.848162
6.410000	-280.326864
6.420000	-286.710491
6.430000	-296.181008
6.440000	-306.255965
6.450000	-314.720856
6.460000	-318.818247
6.470000	-318.620103
6.480000	-313.730864
6.490000	-305.876788
6.500000	-294.990155
6.510000	-281.486387
6.520000	-265.266270
6.530000	-245.445386
6.540000	-222.230253
6.550000	-196.424207
6.560000	-169.213449
6.570000	-140.417414
6.580000	-112.889761
6.590000	-93.773826
6.600000	-94.261925
6.610000	-122.138915
6.620000	-176.962835
6.630000	-245.821068
6.640000	-313.675861
6.650000	-371.537755
6.660000	-420.768540
6.670000	-466.616306
6.680000	-509.532532
6.690000	-548.040676
6.700000	-574.965279
6.710000	-588.163230
6.720000	-591.097738
6.730000	-592.651599
6.740000	-598.572461
6.750000	-607.136930
6.760000	-616.731572
6.770000	-626.976335
6.780000	-636.237857
6.790000	-642.832813
6.800000	-646.097407
6.810000	-646.710026
6.820000	-644.304385
6.830000	-636.264602
6.840000	-625.543437
6.850000	-615.503653
6.860000	-607.125862
6.870000	-594.740914
6.880000	-575.733038
6.890000	-551.338341
6.900000	-524.026404
6.910000	-495.950915
6.920000	-474.349624
6.930000	-471.593352
6.940000	-495.676458
6.950000	-545.559810
6.960000	-607.985094
6.970000	-668.872570
6.980000	-716.314778
6.990000	-748.895745
7.000000	-767.331767
7.010000	-776.277700
7.020000	-777.020641
7.030000	-772.678987
7.040000	-764.384860
7.050000	-756.102010
7.060000	-750.425767
7.070000	-749.203241
7.080000	-751.806617
7.090000	-754.642875
7.100000	-755.537713
7.110000	-755.437226
7.120000	-752.607386
7.130000	-745.912280
7.140000	-732.685032
7.150000	-715.747699
7.160000	-695.099989
7.170000	-670.594212
7.180000	-642.193179
7.190000	-613.461641
7.200000	-584.287050
7.210000	-554.673257
7.220000	-521.716550
7.230000	-488.243973
7.240000	-454.816260
7.250000	-432.185519
7.260000	-428.250708
7.270000	-454.144922
7.280000	-500.637930
7.290000	-558.111690
7.300000	-607.674503
7.310000	-647.800697
7.320000	-670.032962
7.330000	-682.876932
7.340000	-680.358666
7.350000	-672.670957
7.360000	-650.971845
7.370000	-627.863331
7.380000	-597.206027
7.390000	-529.970415
7.400000	-351.495951
7.410000	-278.817784
7.420000	-240.181049
7.430000	-208.390763
7.440000	-169.708632
7.450000	-135.369233
7.460000	-99.191621
7.470000	-76.075177
7.480000	-70.314728
7.490000	-92.132983
7.500000	-132.720810
7.510000	-184.194912
7.520000	-227.764851
7.530000	-261.303524
7.540000	-277.796046
7.550000	-286.456954
7.560000	-285.129247
7.570000	-278.629102
7.580000	-265.444290
7.590000	-249.481680
7.600000	-232.752662
7.610000	-219.672383
7.620000	-210.714716
7.630000	-205.859218
7.640000	-200.996011
7.650000	-195.385431
7.660000	-185.933941
7.670000	-172.582724
7.680000	-154.197975
7.690000	-132.784002
7.700000	-107.783314
7.710000	-80.652125
7.720000	-51.358853
7.730000	-22.187202
7.740000	8.415912
7.750000	40.279784
7.760000	74.534742
7.770000	110.415748
7.780000	147.662839
7.790000	182.884687
7.800000	209.457326
7.810000	217.687490
7.820000	201.270438
7.830000	161.186645
7.840000	109.122988
7.850000	58.367249
7.860000	20.314412
7.870000	-5.473554
7.880000	-21.154108
7.890000	-30.306465
7.900000	-32.599739
7.910000	-29.130796
7.920000	-20.698363
7.930000	-10.281240
7.940000	0.888036
7.950000	9.576736
7.960000	16.833794
7.970000	22.111612
7.980000	27.802600
7.990000	32.986048
8.000000	41.466730
8.010000	52.196519
8.020000	68.826818
8.030000	86.065830
8.040000	108.230383
8.050000	129.591654
8.060000	156.351172
8.070000	182.435236
8.080000	213.188478
8.090000	265.328893
8.100000	297.552272
8.110000	308.685637
8.120000	285.569686
8.130000	270.214123
8.140000	266.168691
8.150000	265.064102
8.160000	269.151432
8.170000	275.588327
8.180000	285.166055
8.190000	295.125033
8.200000	304.207367
8.210000	309.346332
8.220000	313.956367
8.230000	316.577787
8.240000	321.745699
8.250000	327.816461
8.260000	337.571694
8.270000	350.738237
8.280000	367.423874
8.290000	385.679815
8.300000	407.312130
8.310000	430.303631
8.320000	455.233895
8.330000	479.946612
8.340000	506.861877
8.350000	534.940705
8.360000	564.186963
8.370000	594.963650
8.380000	625.868688
8.390000	653.342439
8.400000	668.898935
8.410000	664.417897
8.420000	638.978224
8.430000	600.881556
8.440000	563.100145
8.450000	533.360874
8.460000	514.238237
8.470000	505.195555
8.480000	504.403604
8.490000	509.392885
8.500000	519.939791
8.510000	533.949968
8.520000	549.842516
8.530000	563.866454
8.540000	573.781653
8.550000	580.156475
8.560000	584.088288
8.570000	588.484401
8.580000	594.757302
8.590000	605.181391
8.600000	619.118555
8.610000	634.909355
8.620000	651.515496
8.630000	669.007877
8.640000	688.950913
8.650000	711.136094
8.660000	736.424015
8.670000	763.626950
8.680000	792.267510
8.690000	821.151118
8.700000	851.486389
8.710000	881.703266
8.720000	909.739686
8.730000	928.276898
8.740000	929.360641
8.750000	910.568602
8.760000	875.367450
8.770000	836.923424
8.780000	803.731364
8.790000	780.972531
8.800000	767.113669
8.810000	761.394036
8.820000	761.863086
8.830000	767.856218
8.840000	777.312574
8.850000	787.687733
8.860000	797.134724
8.870000	803.221802
8.880000	807.338269
8.890000	808.119277
8.900000	808.591579
8.910000	809.715506
8.920000	814.220900
8.930000	822.677001
8.940000	833.549020
8.950000	846.680232
8.960000	860.912374
8.970000	878.731487
8.980000	899.304652
8.990000	920.818105
9.000000	944.075523
9.010000	967.603213
9.020000	991.889863
9.030000	1017.760654
9.040000	1049.083960
9.050000	1083.271745
9.060000	1114.975168
9.070000	1134.141246
9.080000	1134.247366
9.090000	1112.726195
9.100000	1073.241213
9.110000	1029.710453
9.120000	993.599404
9.130000	971.051103
9.140000	958.635569
9.150000	952.093660
9.160000	951.387422
9.170000	957.175462
9.180000	967.502662
9.190000	978.288551
9.200000	985.989721
9.210000	989.110824
9.220000	987.851535
9.230000	984.642527
9.240000	980.746640
9.250000	977.878492
9.260000	977.009241
9.270000	979.819119
9.280000	985.634596
9.290000	991.121489
9.300000	994.633465
9.310000	999.138564
9.320000	1008.670437
9.330000	1018.834140
9.340000	1014.713297
9.350000	986.578542
9.360000	933.481308
9.370000	867.726830
9.380000	801.950820
9.390000	744.563878
9.400000	697.770081
9.410000	657.750938
9.420000	619.953635
9.430000	580.639630
9.440000	537.841194
9.450000	495.242730
9.460000	456.761349
9.470000	422.868058
9.480000	393.712046
9.490000	369.524767
9.500000	351.696809
9.510000	339.539707
9.520000	334.049863
9.530000	335.248685
9.540000	341.762186
9.550000	347.975501
9.560000	347.501586
9.570000	339.747139
9.580000	330.286547
9.590000	322.875442
9.600000	320.430569
9.610000	323.692170
9.620000	335.942342
9.630000	352.179951
9.640000	367.146911
9.650000	379.705577
9.660000	391.050774
9.670000	401.922533
9.680000	410.640255
9.690000	419.509056
9.700000	428.916105
9.710000	440.791132
9.720000	454.542692
9.730000	469.430135
9.740000	483.857272
9.750000	493.083850
9.760000	486.177860
9.770000	451.090508
9.780000	382.539370
9.790000	285.480616
9.800000	168.695917
9.810000	38.979520
9.820000	-84.591110
9.830000	-186.665730
9.840000	-270.904677
9.850000	-344.563826
9.860000	-407.457155
9.870000	-450.083792
9.880000	-470.344428
9.890000	-475.945497
9.900000	-472.206959
9.910000	-461.447778
9.920000	-446.386405
9.930000	-429.599149
9.940000	-409.537665
9.950000	-384.734209
9.960000	-358.017849
9.970000	-332.520878
9.980000	-308.808744
9.990000	-285.286356
10.000000	-260.585318
10.010000	-235.041883
10.020000	-209.682798
10.030000	-184.781325
10.040000	-159.764245
10.050000	-132.837343
10.060000	-104.171321
10.070000	-71.540649
10.080000	-34.905238
10.090000	2.425706
10.100000	34.365107
10.110000	48.720216
10.120000	38.327222
10.130000	-2.637269
10.140000	-64.657845
10.150000	-134.641207
10.160000	-197.961952
10.170000	-247.990655
10.180000	-284.942037
10.190000	-312.674256
10.200000	-332.907361
10.210000	-345.343722
10.220000	-350.533380
10.230000	-349.673624
10.240000	-348.163219
10.250000	-347.652464
10.260000	-351.457152
10.270000	-357.609930
10.280000	-365.080409
10.290000	-371.891826
10.300000	-375.028117
10.310000	-372.504132
10.320000	-363.306344
10.330000	-349.787137
10.340000	-334.246146
10.350000	-317.728682
10.360000	-299.510003
10.370000	-279.668275
10.380000	-257.768550
10.390000	-233.270603
10.400000	-207.361789
10.410000	-179.866053
10.420000	-150.284594
10.430000	-117.457055
10.440000	-83.881732
10.450000	-55.722659
10.460000	-43.488920
10.470000	-57.653193
10.480000	-101.408056
10.490000	-165.214281
10.500000	-234.646207
10.510000	-296.110336
10.520000	-344.908382
10.530000	-380.016318
10.540000	-403.846739
10.550000	-418.254417
10.560000	-424.784798
10.570000	-424.826204
10.580000	-418.721003
10.590000	-411.746125
10.600000	-407.654496
10.610000	-408.329275
10.620000	-411.244464
10.630000	-415.251679
10.640000	-419.504281
10.650000	-421.839703
10.660000	-421.437228
10.670000	-417.096336
10.680000	-408.709703
10.690000	-396.691130
10.700000	-380.984484
10.710000	-363.628806
10.720000	-344.256645
10.730000	-324.242114
10.740000	-302.192246
10.750000	-277.528890
10.760000	-250.133860
10.770000	-219.486160
10.780000	-186.751892
10.790000	-153.449698
10.800000	-126.389937
10.810000	-116.095758
10.820000	-132.365161
10.830000	-176.056613
10.840000	-236.982904
10.850000	-298.004739
10.860000	-348.291180
10.870000	-382.307458
10.880000	-401.291610
10.890000	-406.951855
10.900000	-403.639853
10.910000	-394.600596
10.920000	-380.989903
10.930000	-364.926353
10.940000	-350.352825
10.950000	-343.600018
10.960000	-344.372383
10.970000	-349.941986
10.980000	-354.057395
10.990000	-354.637353
11.000000	-350.754331
11.010000	-342.678237
11.020000	-330.793951
11.030000	-316.063211
11.040000	-298.506959
11.050000	-279.126984
11.060000	-258.227622
11.070000	-237.203451
11.080000	-215.619752
11.090000	-192.622048
11.100000	-167.355289
11.110000	-139.051082
11.120000	-111.112603
11.130000	-89.831822
11.140000	-87.229545
11.150000	-109.941785
11.160000	-156.668820
11.170000	-216.369238
11.180000	-273.774181
11.190000	-320.827649
11.200000	-351.897461
11.210000	-370.656323
11.220000	-379.027419
11.230000	-379.832391
11.240000	-375.501336
11.250000	-366.347783
11.260000	-357.333256
11.270000	-350.868173
11.280000	-349.845271
11.290000	-353.056162
11.300000	-357.364278
11.310000	-361.595254
11.320000	-364.228135
11.330000	-362.811010
11.340000	-356.776473
11.350000	-344.369557
11.360000	-329.352764
11.370000	-311.262707
11.380000	-292.616860
11.390000	-274.498274
11.400000	-254.885524
11.410000	-234.420988
11.420000	-208.486304
11.430000	-179.375987
11.440000	-147.428407
11.450000	-116.353671
11.460000	-93.059446
11.470000	-86.350113
11.480000	-105.371699
11.490000	-149.332930
11.500000	-208.673594
11.510000	-267.980123
11.520000	-317.672020
11.530000	-352.987784
11.540000	-377.039358
11.550000	-391.338389
11.560000	-398.089321
11.570000	-399.369415
11.580000	-394.144890
11.590000	-385.759992
11.600000	-377.547995
11.610000	-374.502735
11.620000	-376.284091
11.630000	-378.916500
11.640000	-381.375999
11.650000	-381.675354
11.660000	-380.155395
11.670000	-375.109703
11.680000	-366.620845
11.690000	-354.557958
11.700000	-339.435910
11.710000	-321.352926
11.720000	-301.267876
11.730000	-279.828252
11.740000	-256.444331
11.750000	-231.320320
11.760000	-202.964028
11.770000	-172.835065
11.780000	-140.493077
11.790000	-111.714791
11.800000	-92.370287
11.810000	-92.620873
11.820000	-119.921298
11.830000	-169.173710
11.840000	-227.465407
11.850000	-280.069454
11.860000	-322.385212
11.870000	-354.659724
11.880000	-377.988551
11.890000	-394.600967
11.900000	-404.934815
11.910000	-408.888559
11.920000	-406.228531
11.930000	-400.200167
11.940000	-395.206530
11.950000	-393.854588
11.960000	-396.860387
11.970000	-400.511200
11.980000	-403.535271
11.990000	-404.180782
12.000000	-400.891610
12.010000	-393.869401
12.020000	-380.587958
12.030000	-363.586056
12.040000	-343.626838
12.050000	-322.319058
12.060000	-301.012314
12.070000	-277.723494
12.080000	-253.754008
12.090000	-226.798496
12.100000	-198.854600
12.110000	-168.544579
12.120000	-136.641388
12.130000	-103.971033
12.140000	-76.121415
12.150000	-63.089691
12.160000	-72.608584
12.170000	-105.870346
12.180000	-154.415804
12.190000	-205.318557
12.200000	-247.908979
12.210000	-277.462784
12.220000	-295.766319
12.230000	-304.619926
12.240000	-306.972949
12.250000	-303.450076
12.260000	-298.870416
12.270000	-295.619443
12.280000	-301.127559
12.290000	-312.439356
12.300000	-329.738976
12.310000	-344.915383
12.320000	-359.722965
12.330000	-371.056780
12.340000	-383.072185
12.350000	-390.517535
12.360000	-394.450497
12.370000	-388.636592
12.380000	-378.873416
12.390000	-361.741788
12.400000	-345.673566
12.410000	-326.156002
12.420000	-310.517363
12.430000	-289.870023
12.440000	-276.095767
12.450000	-264.549426
12.460000	-269.068925
12.470000	-279.841072
12.480000	-314.795358
12.490000	-390.576617
12.500000	-611.694991
12.510000	-637.246233
12.520000	-614.935385
12.530000	-585.338861
12.540000	-566.922059
12.550000	-545.685133
12.560000	-531.316460
12.570000	-511.981474
12.580000	-494.771872
12.590000	-470.909767
12.600000	-446.944762
12.610000	-419.151722
12.620000	-393.485956
12.630000	-364.704468
12.640000	-337.061278
12.650000	-303.567537
12.660000	-269.009969
12.670000	-228.411304
12.680000	-187.662512
12.690000	-143.904860
12.700000	-103.346930
12.710000	-64.383741
12.720000	-34.061711
12.730000	-16.527740
12.740000	-21.464592
12.750000	-46.645070
12.760000	-84.191141
12.770000	-120.418789
12.780000	-148.274717
12.790000	-165.544424
12.800000	-174.041127
12.810000	-177.012248
12.820000	-175.472797
12.830000	-170.484734
12.840000	-161.571248
12.850000	-150.300317
12.860000	-141.014606
12.870000	-135.445819
12.880000	-135.127648
12.890000	-136.915168
12.900000	-138.579704
12.910000	-137.720342
12.920000	-134.040304
12.930000	-128.865871
12.940000	-121.497703
12.950000	-112.015700
12.960000	-101.626820
12.970000	-89.829255
12.980000	-78.096243
12.990000	-65.303685
13.000000	-51.570215
13.010000	-36.444144
13.020000	-18.709477
13.030000	2.079433
13.040000	26.484606
13.050000	53.933126
13.060000	82.007063
13.070000	109.122758
13.080000	133.529583
13.090000	147.964645
13.100000	142.712969
13.110000	113.155000
13.120000	63.254607
13.130000	6.706963
13.140000	-45.542893
13.150000	-86.416408
13.160000	-116.024651
13.170000	-137.211595
13.180000	-152.168723
13.190000	-161.332531
13.200000	-163.973290
13.210000	-160.787543
13.220000	-154.446567
13.230000	-149.577672
13.240000	-147.573830
13.250000	-148.025511
13.260000	-151.700108
13.270000	-156.795197
13.280000	-159.817101
13.290000	-159.232078
13.300000	-155.267195
13.310000	-149.667847
13.320000	-140.702240
13.330000	-126.764913
13.340000	-110.476290
13.350000	-91.848662
13.360000	-71.913432
13.370000	-51.257930
13.380000	-29.340659
13.390000	-7.665782
13.400000	16.584575
13.410000	41.922019
13.420000	69.524835
13.430000	98.512087
13.440000	128.474535
13.450000	156.771057
13.460000	177.757908
13.470000	183.031252
13.480000	166.389688
13.490000	130.658817
13.500000	85.716964
13.510000	42.632659
13.520000	5.367946
13.530000	-24.723894
13.540000	-49.312391
13.550000	-69.401419
13.560000	-84.310688
13.570000	-94.738436
13.580000	-99.960570
13.590000	-101.403302
13.600000	-97.590874
13.610000	-92.070138
13.620000	-89.211399
13.630000	-90.048887
13.640000	-93.480245
13.650000	-95.005609
13.660000	-93.746122
13.670000	-86.944034
13.680000	-75.007338
13.690000	-58.870328
13.700000	-39.588421
13.710000	-17.781405
13.720000	4.841749
13.730000	28.995307
13.740000	54.617810
13.750000	81.453063
13.760000	108.406704
13.770000	133.256411
13.780000	158.891883
13.790000	185.735449
13.800000	216.399097
13.810000	246.879223
13.820000	276.933097
13.830000	302.027887
13.840000	315.812326
13.850000	310.188858
13.860000	282.724427
13.870000	241.395946
13.880000	196.995326
13.890000	160.287565
13.900000	134.931518
13.910000	122.525203
13.920000	119.204590
13.930000	123.788963
13.940000	133.157953
13.950000	146.745557
13.960000	160.120050
13.970000	174.069370
13.980000	185.090106
13.990000	193.423410
14.000000	199.413919
14.010000	206.138622
14.020000	215.087232
14.030000	225.200884
14.040000	238.456456
14.050000	255.279983
14.060000	275.177773
14.070000	298.716801
14.080000	326.253501
14.090000	356.504285
14.100000	389.020207
14.110000	422.979611
14.120000	460.483983
14.130000	499.800288
14.140000	540.975369
14.150000	583.308468
14.160000	626.156635
14.170000	670.176769
14.180000	711.348432
14.190000	746.738253
14.200000	771.558817
14.210000	778.984634
14.220000	764.800340
14.230000	729.267416
14.240000	679.752282
14.250000	620.231921
14.260000	551.720575
14.270000	473.883996
14.280000	393.733765
14.290000	317.224667
14.300000	252.110171
14.310000	201.577846
14.320000	170.850651
14.330000	161.613228
14.340000	165.254877
14.350000	171.669958
14.360000	170.350217
14.370000	164.790801
14.380000	158.805514
14.390000	157.942251
14.400000	161.268952
14.410000	167.117713
14.420000	176.766606
14.430000	189.981905
14.440000	207.626913
14.450000	227.865078
14.460000	250.518260
14.470000	275.441581
14.480000	302.436116
14.490000	331.044113
14.500000	360.379619
14.510000	388.002615
14.520000	413.355273
14.530000	438.662484
14.540000	468.029891
14.550000	502.340704
14.560000	536.047450
14.570000	559.033712
14.580000	563.431918
14.590000	546.768993
14.600000	511.858418
14.610000	467.882665
14.620000	425.316080
14.630000	393.353816
14.640000	373.446840
14.650000	360.167148
14.660000	353.286327
14.670000	354.012240
14.680000	364.823819
14.690000	379.862309
14.700000	394.392302
14.710000	407.417246
14.720000	417.988874
14.730000	424.665471
14.740000	427.617871
14.750000	429.949764
14.760000	434.607795
14.770000	441.921571
14.780000	450.621371
14.790000	462.262521
14.800000	476.323963
14.810000	493.635233
14.820000	511.043667
14.830000	529.046012
14.840000	548.458950
14.850000	569.817371
14.860000	592.900163
14.870000	618.285580
14.880000	644.363330
14.890000	671.787948
14.900000	701.187665
14.910000	731.981535
14.920000	758.358806
14.930000	769.522554
14.940000	757.565628
14.950000	720.440693
14.960000	667.163808
14.970000	610.062169
14.980000	561.121894
14.990000	523.018847
15.000000	495.098198
15.010000	474.663875
15.020000	461.107444
15.030000	454.671698
15.040000	453.805469
15.050000	456.371528
15.060000	459.862667
15.070000	460.762012
15.080000	457.284618
15.090000	449.851785
15.100000	441.740872
15.110000	434.964435
15.120000	431.891012
15.130000	432.095543
15.140000	435.066932
15.150000	439.583931
15.160000	446.607957
15.170000	457.766470
15.180000	472.501842
15.190000	489.639380
15.200000	508.087891
15.210000	528.208078
15.220000	548.694360
15.230000	570.808683
15.240000	593.318690
15.250000	617.106327
15.260000	636.616419
15.270000	642.417583
15.280000	623.600858
15.290000	581.118688
15.300000	523.964486
15.310000	465.187869
15.320000	411.667928
15.330000	369.277537
15.340000	338.713557
15.350000	318.049556
15.360000	303.777547
15.370000	296.187857
15.380000	295.864672
15.390000	299.671409
15.400000	303.972371
15.410000	303.839829
15.420000	299.448971
15.430000	291.698257
15.440000	283.953504
15.450000	278.574876
15.460000	274.803552
15.470000	271.136661
15.480000	268.681103
15.490000	268.719054
15.500000	274.584205
15.510000	283.972332
15.520000	296.177853
15.530000	309.575690
15.540000	325.131004
15.550000	342.861950
15.560000	363.437890
15.570000	386.162851
15.580000	411.432607
15.590000	435.135976
15.600000	450.437548
15.610000	446.783027
15.620000	417.804559
15.630000	367.809731
15.640000	307.539330
15.650000	248.521781
15.660000	197.610865
15.670000	157.571956
15.680000	128.357111
15.690000	107.297119
15.700000	90.782712
15.710000	80.384862
15.720000	76.553331
15.730000	78.817921
15.740000	81.657667
15.750000	81.938204
15.760000	78.447697
15.770000	73.414760
15.780000	67.580208
15.790000	62.907651
15.800000	58.718181
15.810000	58.424243
15.820000	62.861281
15.830000	71.281767
15.840000	81.345026
15.850000	92.154685
15.860000	105.514021
15.870000	120.363984
15.880000	138.702059
15.890000	159.575567
15.900000	183.905367
15.910000	209.789256
15.920000	236.454708
15.930000	261.340699
15.940000	279.339453
15.950000	279.551699
15.960000	254.575665
15.970000	202.118321
15.980000	135.195240
15.990000	67.360798
16.000000	10.150036
16.010000	-33.747195
16.020000	-66.568488
16.030000	-89.178146
16.040000	-104.285753
16.050000	-110.926287
16.060000	-112.007881
16.070000	-108.329803
16.080000	-105.404397
16.090000	-105.385812
16.100000	-110.128746
16.110000	-116.089255
16.120000	-122.189068
16.130000	-128.124297
16.140000	-131.239340
16.150000	-130.493787
16.160000	-124.285015
16.170000	-114.202594
16.180000	-100.658272
16.190000	-84.577228
16.200000	-68.032697
16.210000	-50.609976
16.220000	-32.407077
16.230000	-12.304859
16.240000	8.880820
16.250000	32.005511
16.260000	57.501286
16.270000	83.977677
16.280000	108.450579
16.290000	121.598709
16.300000	114.400034
16.310000	81.228143
16.320000	25.372786
16.330000	-39.782826
16.340000	-101.658391
16.350000	-150.804386
16.360000	-187.384899
16.370000	-211.829200
16.380000	-228.792472
16.390000	-237.174596
16.400000	-240.549536
16.410000	-237.509892
16.420000	-234.331545
16.430000	-232.502806
16.440000	-236.125088
16.450000	-242.481608
16.460000	-251.931950
16.470000	-259.116489
16.480000	-264.760898
16.490000	-266.414938
16.500000	-265.272394
16.510000	-258.040515
16.520000	-249.813287
16.530000	-238.319135
16.540000	-228.714765
16.550000	-212.901772
16.560000	-198.332949
16.570000	-178.787752
16.580000	-161.328751
16.590000	-199.476033
16.600000	-256.083801
16.610000	-320.579135
16.620000	-338.393414
16.630000	-345.272588
16.640000	-349.971417
16.650000	-345.599152
16.660000	-342.272439
16.670000	-337.567801
16.680000	-340.615273
16.690000	-345.839693
16.700000	-355.657235
16.710000	-361.425268
16.720000	-365.072501
16.730000	-364.343830
16.740000	-362.180055
16.750000	-356.259492
16.760000	-347.976237
16.770000	-336.180121
16.780000	-323.127260
16.790000	-307.770692
16.800000	-292.633964
16.810000	-274.357838
16.820000	-254.166176
16.830000	-231.285940
16.840000	-207.385053
16.850000	-181.219521
16.860000	-155.963056
16.870000	-140.181754
16.880000	-145.897907
16.890000	-176.133468
16.900000	-225.824928
16.910000	-281.409726
16.920000	-332.776160
16.930000	-373.377349
16.940000	-401.422198
16.950000	-419.037649
16.960000	-429.085674
16.970000	-434.380067
16.980000	-435.090969
16.990000	-431.739357
17.000000	-426.450069
17.010000	-423.453986
17.020000	-425.153855
17.030000	-429.506261
17.040000	-433.872679
17.050000	-435.575245
17.060000	-434.615820
17.070000	-430.326152
17.080000	-423.045631
17.090000	-412.760123
17.100000	-399.827295
17.110000	-383.542138
17.120000	-365.967650
17.130000	-347.002753
17.140000	-325.790595
17.150000	-302.484260
17.160000	-276.964360
17.170000	-250.655022
17.180000	-221.480308
17.190000	-192.859452
17.200000	-166.677391
17.210000	-152.102678
17.220000	-157.892243
17.230000	-189.355440
17.240000	-241.431054
17.250000	-300.269945
17.260000	-354.997351
17.270000	-398.213411
17.280000	-429.268369
17.290000	-451.186581
17.300000	-468.897662
17.310000	-481.496860
17.320000	-488.882381
17.330000	-489.155511
17.340000	-487.907731
17.350000	-486.823569
17.360000	-489.625561
17.370000	-494.162451
17.380000	-499.366728
17.390000	-504.188477
17.400000	-506.124397
17.410000	-505.910622
17.420000	-501.896123
17.430000	-496.330818
17.440000	-487.009668
17.450000	-474.445917
17.460000	-458.475505
17.470000	-441.589169
17.480000	-423.621614
17.490000	-403.751558
17.500000	-381.121931
17.510000	-356.606372
17.520000	-330.307833
17.530000	-302.816921
17.540000	-275.516999
17.550000	-253.391801
17.560000	-247.096205
17.570000	-264.981504
17.580000	-308.343868
17.590000	-365.222647
17.600000	-421.607098
17.610000	-468.833017
17.620000	-505.912632
17.630000	-534.806044
17.640000	-556.904501
17.650000	-572.463852
17.660000	-580.581085
17.670000	-583.819072
17.680000	-582.606356
17.690000	-580.203273
17.700000	-578.983714
17.710000	-580.272428
17.720000	-584.379430
17.730000	-588.019492
17.740000	-590.469937
17.750000	-590.118499
17.760000	-586.250592
17.770000	-579.575724
17.780000	-569.047351
17.790000	-555.392031
17.800000	-537.860884
17.810000	-518.904563
17.820000	-498.354601
17.830000	-475.101826
17.840000	-449.873945
17.850000	-422.985132
17.860000	-395.749810
17.870000	-367.215912
17.880000	-336.980806
17.890000	-305.134921
17.900000	-272.233203
17.910000	-241.748653
17.920000	-221.517540
17.930000	-220.385023
17.940000	-244.146611
17.950000	-288.346256
17.960000	-341.442482
17.970000	-390.322673
17.980000	-429.110967
17.990000	-456.998982
18.000000	-477.477131
18.010000	-490.350938
18.020000	-496.531996
18.030000	-496.052701
18.040000	-491.612963
18.050000	-486.441242
18.060000	-482.041069
18.070000	-481.185025
18.080000	-482.141768
18.090000	-485.286095
18.100000	-486.915977
18.110000	-486.413544
18.120000	-482.706709
18.130000	-475.226673
18.140000	-464.183738
18.150000	-450.057888
18.160000	-433.010421
18.170000	-413.908085
18.180000	-392.183389
18.190000	-370.116171
18.200000	-347.365735
18.210000	-324.008483
18.220000	-299.228548
18.230000	-271.581821
18.240000	-242.114116
18.250000	-211.503228
18.260000	-185.696399
18.270000	-171.107987
18.280000	-176.634058
18.290000	-202.370293
18.300000	-241.567794
18.310000	-283.970999
18.320000	-320.185079
18.330000	-346.267684
18.340000	-361.157765
18.350000	-367.588761
18.360000	-368.143822
18.370000	-361.245339
18.380000	-349.488076
18.390000	-335.916361
18.400000	-324.180341
18.410000	-315.593784
18.420000	-310.549361
18.430000	-308.614689
18.440000	-306.589658
18.450000	-301.314377
18.460000	-293.318552
18.470000	-282.022607
18.480000	-268.396413
18.490000	-251.737407
18.500000	-232.154117
18.510000	-210.464888
18.520000	-186.586524
18.530000	-162.541781
18.540000	-137.019849
18.550000	-110.968060
18.560000	-82.454894
18.570000	-53.080107
18.580000	-21.223607
18.590000	11.790806
18.600000	45.668444
18.610000	78.983443
18.620000	107.544624
18.630000	123.825534
18.640000	119.744786
18.650000	93.677758
18.660000	53.630688
18.670000	12.536356
18.680000	-22.172115
18.690000	-46.287283
18.700000	-62.333231
18.710000	-71.112462
18.720000	-74.503346
18.730000	-72.270992
18.740000	-64.011931
18.750000	-52.777721
18.760000	-41.859661
18.770000	-34.288663
18.780000	-29.702775
18.790000	-27.804260
18.800000	-26.211084
18.810000	-23.994543
18.820000	-19.053308
18.830000	-10.525139
18.840000	1.431647
18.850000	16.273415
18.860000	32.577957
18.870000	52.077961
18.880000	74.048403
18.890000	98.883358
18.900000	126.515585
18.910000	156.352208
18.920000	188.650220
18.930000	222.148897
18.940000	257.455551
18.950000	294.275563
18.960000	331.591570
18.970000	370.073086
18.980000	407.051527
18.990000	438.199374
19.000000	454.498803
19.010000	450.001167
19.020000	425.632242
19.030000	388.487394
19.040000	350.112260
19.050000	318.297862
19.060000	296.247762
19.070000	281.761765
19.080000	274.389874
19.090000	272.557908
19.100000	276.539242
19.110000	285.687226
19.120000	299.357838
19.130000	313.476525
19.140000	323.845680
19.150000	329.945691
19.160000	332.339772
19.170000	335.763099
19.180000	339.823406
19.190000	343.917057
19.200000	345.639392
19.210000	341.070986
19.220000	324.454628
19.230000	295.912191
19.240000	263.629969
19.250000	237.763585
19.260000	220.454905
19.270000	211.279692
19.280000	213.294648
19.290000	225.790856
19.300000	245.800405
19.310000	271.978847
19.320000	303.647173
19.330000	339.504460
19.340000	376.161012
19.350000	411.038586
19.360000	441.681613
19.370000	462.905112
19.380000	467.871041
19.390000	453.789592
19.400000	423.081745
19.410000	383.362095
19.420000	344.973828
19.430000	315.267051
19.440000	298.865884
19.450000	290.485703
19.460000	287.773686
19.470000	291.387097
19.480000	305.031112
19.490000	327.616687
19.500000	352.280819
19.510000	376.533199
19.520000	396.535171
19.530000	412.134955
19.540000	424.468279
19.550000	436.416823
19.560000	448.737628
19.570000	462.040455
19.580000	476.347623
19.590000	492.007329
19.600000	508.631359
19.610000	525.649547
19.620000	544.596798
19.630000	565.296394
19.640000	587.571639
19.650000	607.943641
19.660000	625.897488
19.670000	642.270863
19.680000	660.239409
19.690000	680.601260
19.700000	703.589532
19.710000	729.274341
19.720000	750.930831
19.730000	760.954883
19.740000	751.615020
19.750000	723.334423
19.760000	681.656564
19.770000	636.402353
19.780000	596.371958
19.790000	566.135328
19.800000	546.420136
19.810000	533.867082
19.820000	525.479311
19.830000	519.946799
19.840000	517.887101
19.850000	518.699813
19.860000	518.963770
19.870000	516.800337
19.880000	511.386592
19.890000	503.582044
19.900000	494.152354
19.910000	484.709242
19.920000	476.928091
19.930000	472.178695
19.940000	471.378975
19.950000	474.655653
19.960000	481.170171
19.970000	490.476603
19.980000	500.967706
19.990000	512.644777
20.000000	526.778140
20.010000	542.817302
20.020000	560.933175
20.030000	579.661220
20.040000	601.107163
20.050000	623.837823
20.060000	645.955535
20.070000	660.008080
20.080000	659.147723
20.090000	635.517631
20.100000	590.707830
20.110000	533.722753
20.120000	475.615333
20.130000	424.929315
20.140000	384.181171
20.150000	350.462419
20.160000	321.423204
20.170000	299.015215
20.180000	286.342827
20.190000	282.564810
20.200000	283.928632
20.210000	287.457254
20.220000	289.519901
20.230000	286.356473
20.240000	279.465947
20.250000	272.602085
20.260000	266.744439
20.270000	262.854242
20.280000	262.364017
20.290000	266.779587
20.300000	274.648314
20.310000	286.048504
20.320000	300.938171
20.330000	320.326052
20.340000	342.225397
20.350000	364.274683
20.360000	386.858793
20.370000	409.893833
20.380000	435.168985
20.390000	461.509669
20.400000	486.814628
20.410000	506.456399
20.420000	510.784141
20.430000	491.410763
20.440000	449.784658
20.450000	395.391015
20.460000	343.137035
20.470000	299.685410
20.480000	268.483851
20.490000	246.632118
20.500000	231.835224
20.510000	220.912431
20.520000	215.535771
20.530000	214.520551
20.540000	216.571472
20.550000	214.781854
20.560000	209.629186
20.570000	199.037678
20.580000	189.043848
20.590000	199.332119
20.600000	221.047722
20.610000	251.978865
20.620000	272.671425
20.630000	290.031659
20.640000	298.260340
20.650000	286.403527
20.660000	251.203411
20.670000	195.792418
20.680000	132.504346
20.690000	72.176240
20.700000	22.796281
20.710000	-15.462797
20.720000	-41.911980
20.730000	-60.449600
20.740000	-72.950065
20.750000	-80.436333
20.760000	-83.656551
20.770000	-85.765716
20.780000	-89.698689
20.790000	-98.431686
20.800000	-109.395619
20.810000	-121.772706
20.820000	-132.089042
20.830000	-139.123917
20.840000	-141.787039
20.850000	-143.157675
20.860000	-141.810639
20.870000	-139.204205
20.880000	-132.494152
20.890000	-134.632728
20.900000	-168.878117
20.910000	-238.010694
20.920000	-326.885412
20.930000	-407.693313
20.940000	-472.286344
20.950000	-521.406857
20.960000	-556.027950
20.970000	-579.132824
20.980000	-592.105594
20.990000	-596.199051
21.000000	-594.194910
21.010000	-589.608281
21.020000	-586.292992
21.030000	-587.022555
21.040000	-590.387768
21.050000	-593.106702
21.060000	-592.158441
21.070000	-589.212407
21.080000	-583.263937
21.090000	-573.327149
21.100000	-559.715469
21.110000	-543.118874
21.120000	-526.181795
21.130000	-507.575918
21.140000	-487.328208
21.150000	-464.038874
21.160000	-438.156325
21.170000	-410.512972
21.180000	-381.660548
21.190000	-353.333984
21.200000	-329.848975
21.210000	-320.178352
21.220000	-332.044646
21.230000	-368.019362
21.240000	-420.891013
21.250000	-479.861527
21.260000	-533.078929
21.270000	-575.399997
21.280000	-604.953811
21.290000	-626.300873
21.300000	-641.499988
21.310000	-649.538233
21.320000	-650.393895
21.330000	-646.126397
21.340000	-642.309283
21.350000	-641.384529
21.360000	-645.903611
21.370000	-652.973076
21.380000	-660.178016
21.390000	-663.903815
21.400000	-663.472694
21.410000	-660.519827
21.420000	-654.105933
21.430000	-643.816285
21.440000	-629.084463
21.450000	-611.464307
21.460000	-593.745488
21.470000	-575.114893
21.480000	-554.752307
21.490000	-531.777810
21.500000	-507.109907
21.510000	-480.784153
21.520000	-452.813302
21.530000	-423.804656
21.540000	-394.863927
21.550000	-373.856250
21.560000	-371.601854
21.570000	-394.240834
21.580000	-437.991699
21.590000	-489.946173
21.600000	-538.063065
21.610000	-574.341731
21.620000	-599.504156
21.630000	-617.759276
21.640000	-630.282630
21.650000	-636.517747
21.660000	-637.076629
21.670000	-631.953464
21.680000	-625.895915
21.690000	-619.389659
21.700000	-617.740574
21.710000	-616.811999
21.720000	-615.940125
21.730000	-611.905944
21.740000	-606.164403
21.750000	-596.668758
21.760000	-584.408767
21.770000	-567.100916
21.780000	-549.350303
21.790000	-527.856193
21.800000	-507.325244
21.810000	-482.261434
21.820000	-458.676348
21.830000	-429.642261
21.840000	-403.747758
21.850000	-371.317175
21.860000	-340.879981
21.870000	-303.956073
21.880000	-276.423027
21.890000	-316.053848
21.900000	-366.997689
21.910000	-415.276871
21.920000	-405.802891
21.930000	-394.147162
21.940000	-390.493305
21.950000	-384.637871
21.960000	-382.236894
21.970000	-374.431531
21.980000	-365.358861
21.990000	-349.875581
22.000000	-332.850733
22.010000	-311.975514
22.020000	-292.371803
22.030000	-269.724838
22.040000	-246.252642
22.050000	-219.469587
22.060000	-193.158893
22.070000	-164.871927
22.080000	-135.415304
22.090000	-102.607124
22.100000	-69.025697
22.110000	-32.336244
22.120000	3.004663
22.130000	35.602612
22.140000	55.337448
22.150000	57.549681
22.160000	37.329585
22.170000	0.519814
22.180000	-42.672601
22.190000	-80.846259
22.200000	-108.029027
22.210000	-125.905867
22.220000	-135.389011
22.230000	-139.643851
22.240000	-139.748622
22.250000	-135.048943
22.260000	-126.785143
22.270000	-114.788374
22.280000	-103.839974
22.290000	-94.186566
22.300000	-86.567208
22.310000	-80.585861
22.320000	-74.962737
22.330000	-67.987862
22.340000	-57.360363
22.350000	-42.397862
22.360000	-24.433578
22.370000	-3.474103
22.380000	20.155950
22.390000	45.779139
22.400000	72.408582
22.410000	100.032514
22.420000	129.327395
22.430000	161.284546
22.440000	193.234110
22.450000	226.211545
22.460000	258.799043
22.470000	291.475540
22.480000	322.690351
22.490000	343.050104
22.500000	341.241988
22.510000	303.951597
22.520000	235.842251
22.530000	153.552046
22.540000	78.455073
22.550000	21.791030
22.560000	-16.630314
22.570000	-39.643918
22.580000	-50.717290
22.590000	-50.403900
22.600000	-41.142333
22.610000	-24.494213
22.620000	-4.907897
22.630000	15.088304
22.640000	30.988816
22.650000	41.681331
22.660000	49.228921
22.670000	55.608943
22.680000	64.475268
22.690000	75.527479
22.700000	90.395517
22.710000	108.441869
22.720000	129.318790
22.730000	151.689250
22.740000	176.250170
22.750000	202.268703
22.760000	230.856092
22.770000	260.844851
22.780000	293.137461
22.790000	328.089398
22.800000	364.083453
22.810000	400.674008
22.820000	436.697786
22.830000	472.934400
22.840000	507.642438
22.850000	536.190891
22.860000	550.247752
22.870000	543.457092
22.880000	515.540826
22.890000	475.419740
22.900000	433.843549
22.910000	399.715384
22.920000	375.800921
22.930000	360.336863
22.940000	351.095393
22.950000	347.300805
22.960000	348.061449
22.970000	353.940737
22.980000	363.026123
22.990000	372.583923
23.000000	378.993957
23.010000	381.574190
23.020000	382.308206
23.030000	382.568619
23.040000	384.296602
23.050000	389.235164
23.060000	398.288759
23.070000	410.569587
23.080000	424.953135
23.090000	440.577667
23.100000	458.629466
23.110000	479.924453
23.120000	504.309584
23.130000	528.937006
23.140000	554.004620
23.150000	580.959591
23.160000	610.370555
23.170000	640.315355
23.180000	668.408609
23.190000	695.687278
23.200000	718.106161
23.210000	728.056227
23.220000	717.475972
23.230000	687.457169
23.240000	646.205521
23.250000	604.538826
23.260000	569.598516
23.270000	544.950874
23.280000	529.986918
23.290000	521.696527
23.300000	519.388545
23.310000	520.443726
23.320000	526.809538
23.330000	533.846301
23.340000	538.575205
23.350000	528.897246
23.360000	494.017842
23.370000	434.987411
23.380000	361.490844
23.390000	292.442870
23.400000	236.943456
23.410000	201.898825
23.420000	187.383780
23.430000	190.686888
23.440000	209.163999
23.450000	237.808120
23.460000	274.291183
23.470000	316.268860
23.480000	363.764368
23.490000	413.727266
23.500000	463.578228
23.510000	513.532669
23.520000	562.059884
23.530000	607.677395
23.540000	644.535331
23.550000	667.162208
23.560000	668.344964
23.570000	647.337003
23.580000	611.515715
23.590000	573.531663
23.600000	542.348294
23.610000	522.051451
23.620000	510.836452
23.630000	505.238332
23.640000	506.007734
23.650000	512.425947
23.660000	525.187553
23.670000	539.603313
23.680000	552.375612
23.690000	560.786566
23.700000	562.234827
23.710000	559.989982
23.720000	554.757570
23.730000	551.876559
23.740000	550.600560
23.750000	552.105231
23.760000	555.775299
23.770000	561.003776
23.780000	565.281177
23.790000	567.910171
23.800000	570.796915
23.810000	581.835558
23.820000	602.631091
23.830000	624.735539
23.840000	641.472162
23.850000	639.619395
23.860000	619.351693
23.870000	583.177809
23.880000	541.922018
23.890000	497.379183
23.900000	443.805868
23.910000	380.261108
23.920000	313.377674
23.930000	251.147045
23.940000	198.273857
23.950000	156.691897
23.960000	124.492465
23.970000	98.231963
23.980000	75.045209
23.990000	57.786737
24.000000	48.260515
24.010000	45.332003
24.020000	45.801827
24.030000	44.536749
24.040000	39.683387
24.050000	28.737395
24.060000	14.242948
24.070000	0.607072
24.080000	-10.207175
24.090000	-14.855983
24.100000	-14.005054
24.110000	-8.656927
24.120000	0.861739
24.130000	13.536169
24.140000	31.065027
24.150000	52.049580
24.160000	75.932564
24.170000	100.553639
24.180000	124.797802
24.190000	148.387942
24.200000	173.330365
24.210000	198.207005
24.220000	224.197339
24.230000	246.001991
24.240000	258.057078
24.250000	249.107946
24.260000	214.260658
24.270000	157.564605
24.280000	92.816921
24.290000	32.677150
24.300000	-16.318191
24.310000	-53.902317
24.320000	-82.134718
24.330000	-103.825772
24.340000	-119.955042
24.350000	-131.090490
24.360000	-135.444858
24.370000	-137.715879
24.380000	-138.600108
24.390000	-144.700811
24.400000	-153.072682
24.410000	-165.709756
24.420000	-174.528250
24.430000	-183.429185
24.440000	-186.300778
24.450000	-189.193370
24.460000	-184.714626
24.470000	-180.677782
24.480000	-170.434106
24.490000	-110.406341
24.500000	-62.789890
24.510000	-44.356148
24.520000	-99.902210
24.530000	-166.356131
24.540000	-221.807577
24.550000	-268.435820
24.560000	-299.368509
24.570000	-323.572987
24.580000	-339.247380
24.590000	-349.404437
24.600000	-352.461564
24.610000	-351.597105
24.620000	-349.021434
24.630000	-349.144360
24.640000	-353.923314
24.650000	-363.034292
24.660000	-375.505888
24.670000	-385.928030
24.680000	-394.453261
24.690000	-397.160289
24.700000	-398.105774
24.710000	-392.718930
24.720000	-386.469457
24.730000	-373.931417
24.740000	-361.549692
24.750000	-342.123880
24.760000	-326.029158
24.770000	-302.275457
24.780000	-283.591732
24.790000	-319.308909
24.800000	-468.176098
24.810000	-520.140366
24.820000	-523.786064
24.830000	-514.414035
24.840000	-509.016079
24.850000	-498.635502
24.860000	-498.999771
24.870000	-498.467823
24.880000	-504.722703
24.890000	-506.267099
24.900000	-508.177592
24.910000	-503.720504
24.920000	-497.349903
24.930000	-485.839633
24.940000	-472.894858
24.950000	-455.293461
24.960000	-436.478628
24.970000	-415.088044
24.980000	-394.095035
24.990000	-370.553873
25.000000	-345.743988
25.010000	-316.695740
25.020000	-288.436046
25.030000	-260.510459
25.040000	-239.502101
25.050000	-232.347577
25.060000	-250.602363
25.070000	-294.174315
25.080000	-354.033109
25.090000	-413.334712
25.100000	-462.839948
25.110000	-500.202664
25.120000	-528.015721
25.130000	-549.761840
25.140000	-564.534962
25.150000	-572.345793
25.160000	-574.078931
25.170000	-571.287308
25.180000	-568.653949
25.190000	-567.241389
25.200000	-568.920419
25.210000	-571.874624
25.220000	-575.546340
25.230000	-577.859728
25.240000	-577.530513
25.250000	-573.534993
25.260000	-566.876399
25.270000	-557.563703
25.280000	-547.249667
25.290000	-533.270110
25.300000	-516.655990
25.310000	-496.326974
25.320000	-472.421928
25.330000	-444.739178
25.340000	-413.211181
25.350000	-380.180951
25.360000	-345.683712
25.370000	-311.985130
25.380000	-285.189727
25.390000	-275.155886
25.400000	-288.710339
25.410000	-324.995114
25.420000	-374.229342
25.430000	-425.186589
25.440000	-467.105825
25.450000	-498.760432
25.460000	-519.673860
25.470000	-533.702310
25.480000	-540.252446
25.490000	-540.338010
25.500000	-534.853412
25.510000	-525.665717
25.520000	-516.482060
25.530000	-510.681774
25.540000	-508.123574
25.550000	-507.049207
25.560000	-505.119256
25.570000	-500.105988
25.580000	-491.140983
25.590000	-479.190055
25.600000	-463.179291
25.610000	-444.302463
25.620000	-422.235469
25.630000	-399.778750
25.640000	-376.638367
25.650000	-351.273416
25.660000	-323.065520
25.670000	-293.796310
25.680000	-263.175195
25.690000	-233.347350
25.700000	-199.286539
25.710000	-165.612823
25.720000	-133.409344
25.730000	-115.598561
25.740000	-115.192580
25.750000	-139.283055
25.760000	-175.275867
25.770000	-218.008647
25.780000	-250.681108
25.790000	-277.813281
25.800000	-291.405678
25.810000	-302.356762
25.820000	-301.762695
25.830000	-300.307438
25.840000	-286.746102
25.850000	-275.013778
25.860000	-255.016570
25.870000	-246.154069
25.880000	-231.874455
25.890000	-184.663331
25.900000	54.179085
25.910000	81.138973
25.920000	72.127972
25.930000	62.884023
25.940000	69.268422
25.950000	74.186579
25.960000	91.475304
25.970000	107.060740
25.980000	130.395187
25.990000	148.521857
26.000000	166.346085
26.010000	176.598275
26.020000	187.989735
26.030000	197.625124
26.040000	212.643369
26.050000	225.594440
26.060000	243.318903
26.070000	261.181667
26.080000	284.671782
26.090000	308.722882
26.100000	335.694812
26.110000	363.902848
26.120000	394.375256
26.130000	425.057745
26.140000	458.384857
26.150000	492.852081
26.160000	529.719070
26.170000	565.283231
26.180000	600.048701
26.190000	627.345291
26.200000	640.696226
26.210000	633.390815
26.220000	607.017391
26.230000	570.774826
26.240000	535.661146
26.250000	508.799236
26.260000	491.941253
26.270000	481.794280
26.280000	477.211796
26.290000	476.438910
26.300000	480.808790
26.310000	489.395347
26.320000	500.722325
26.330000	511.665346
26.340000	520.624836
26.350000	526.588442
26.360000	531.854620
26.370000	537.827285
26.380000	546.069732
26.390000	554.708263
26.400000	565.279132
26.410000	577.235117
26.420000	591.477449
26.430000	607.075216
26.440000	626.002021
26.450000	647.559583
26.460000	670.175792
26.470000	694.033691
26.480000	718.331763
26.490000	744.833062
26.500000	771.796305
26.510000	800.625906
26.520000	826.896301
26.530000	847.072625
26.540000	852.968240
26.550000	841.852334
26.560000	812.027636
26.570000	771.977899
26.580000	732.745222
26.590000	700.407590
26.600000	678.774263
26.610000	663.465732
26.620000	655.134652
26.630000	651.499923
26.640000	652.150860
26.650000	656.183346
26.660000	661.146642
26.670000	664.516954
26.680000	665.129768
26.690000	662.836852
26.700000	661.774714
26.710000	661.794913
26.720000	664.741606
26.730000	669.394235
26.740000	677.031577
26.750000	686.970915
26.760000	699.640537
26.770000	715.195971
26.780000	730.890503
26.790000	746.409865
26.800000	762.792851
26.810000	781.607049
26.820000	802.672068
26.830000	826.454174
26.840000	852.195913
26.850000	880.619838
26.860000	907.687635
26.870000	931.438635
26.880000	946.149586
26.890000	944.566924
26.900000	924.271633
26.910000	887.688452
26.920000	845.061540
26.930000	806.455643
26.940000	776.148142
26.950000	755.527254
26.960000	740.531889
26.970000	731.255472
26.980000	726.222940
26.990000	725.967229
27.000000	729.888642
27.010000	734.648960
27.020000	737.867534
27.030000	735.636783
27.040000	730.173252
27.050000	722.932236
27.060000	718.129318
27.070000	715.190341
27.080000	714.730827
27.090000	715.084051
27.100000	717.314740
27.110000	721.950878
27.120000	729.205396
27.130000	740.127290
27.140000	753.396510
27.150000	768.612863
27.160000	786.229602
27.170000	806.069334
27.180000	828.369454
27.190000	850.489841
27.200000	868.811537
27.210000	876.205268
27.220000	867.897621
27.230000	841.898836
27.240000	803.975130
27.250000	760.898242
27.260000	721.360605
27.270000	689.520829
27.280000	666.372626
27.290000	650.103884
27.300000	639.353658
27.310000	631.651254
27.320000	628.312040
27.330000	624.815799
27.340000	620.580689
27.350000	610.600552
27.360000	599.173492
27.370000	585.669938
27.380000	573.073953
27.390000	586.096293
27.400000	611.166122
27.410000	645.181139
27.420000	661.823818
27.430000	670.660044
27.440000	666.736681
27.450000	640.754929
27.460000	594.975409
27.470000	535.821562
27.480000	476.191762
27.490000	420.156645
27.500000	375.042606
27.510000	337.086334
27.520000	308.868787
27.530000	285.619922
27.540000	269.337154
27.550000	257.764936
27.560000	249.096030
27.570000	239.192330
27.580000	224.812319
27.590000	205.582050
27.600000	184.826050
27.610000	163.919865
27.620000	145.462752
27.630000	129.536537
27.640000	118.056422
27.650000	110.765337
27.660000	106.598794
27.670000	105.614294
27.680000	107.423174
27.690000	111.412027
27.700000	118.534073
27.710000	128.488017
27.720000	141.594537
27.730000	157.509526
27.740000	175.935295
27.750000	197.814093
27.760000	219.542704
27.770000	237.062696
27.780000	239.409247
27.790000	219.934071
27.800000	174.894166
27.810000	114.119266
27.820000	48.324200
27.830000	-11.084813
27.840000	-60.659320
27.850000	-101.359890
27.860000	-135.706536
27.870000	-166.027713
27.880000	-191.472149
27.890000	-213.095092
27.900000	-228.289210
27.910000	-239.571909
27.920000	-250.505022
27.930000	-265.113064
27.940000	-284.108656
27.950000	-301.366204
27.960000	-317.796228
27.970000	-329.337480
27.980000	-338.901920
27.990000	-343.024049
28.000000	-345.093089
28.010000	-341.425011
28.020000	-335.705487
28.030000	-326.212608
28.040000	-317.403507
28.050000	-304.711233
28.060000	-290.857855
28.070000	-273.265434
28.080000	-258.407685
28.090000	-287.319000
28.100000	-329.833554
28.110000	-377.504299
28.120000	-390.245086
28.130000	-393.609591
28.140000	-394.010900
28.150000	-385.755627
28.160000	-379.562928
28.170000	-373.608820
28.180000	-375.215486
28.190000	-380.841382
28.200000	-389.618391
28.210000	-398.812285
28.220000	-415.792973
28.230000	-440.841433
28.240000	-481.732974
28.250000	-529.904326
28.260000	-585.108218
28.270000	-639.693064
28.280000	-691.244470
28.290000	-733.217519
28.300000	-758.125632
28.310000	-767.180458
28.320000	-765.766608
28.330000	-756.551373
28.340000	-740.151141
28.350000	-719.678747
28.360000	-701.628303
28.370000	-691.888202
28.380000	-696.523426
28.390000	-718.507033
28.400000	-759.834120
28.410000	-816.528106
28.420000	-880.886939
28.430000	-942.293906
28.440000	-995.373923
28.450000	-1040.829865
28.460000	-1082.289432
28.470000	-1123.787788
28.480000	-1161.604832
28.490000	-1190.162138
28.500000	-1206.683124
28.510000	-1214.642512
28.520000	-1217.851512
28.530000	-1215.867353
28.540000	-1210.449068
28.550000	-1204.518802
28.560000	-1199.131865
28.570000	-1190.915406
28.580000	-1178.243717
28.590000	-1160.739961
28.600000	-1141.456432
28.610000	-1120.648529
28.620000	-1098.427357
28.630000	-1074.648571
28.640000	-1049.157324
28.650000	-1023.412338
28.660000	-996.640670
28.670000	-965.929948
28.680000	-930.222365
28.690000	-889.878236
28.700000	-845.230960
28.710000	-798.926703
28.720000	-753.667047
28.730000	-712.403369
28.740000	-678.866288
28.750000	-661.320333
28.760000	-667.826310
28.770000	-695.970022
28.780000	-734.523770
28.790000	-771.379085
28.800000	-799.329965
28.810000	-818.236295
28.820000	-830.572213
28.830000	-838.855962
28.840000	-840.228818
28.850000	-831.570821
28.860000	-813.993067
28.870000	-794.063465
28.880000	-778.520685
28.890000	-768.637427
28.900000	-764.474731
28.910000	-763.968730
28.920000	-765.192414
28.930000	-765.060189
28.940000	-760.674023
28.950000	-750.251526
28.960000	-732.587429
28.970000	-709.548237
28.980000	-683.265219
28.990000	-654.605182
29.000000	-624.039007
29.010000	-591.758488
29.020000	-557.909836
29.030000	-524.347015
29.040000	-488.866748
29.050000	-453.711674
29.060000	-416.240856
29.070000	-379.522643
29.080000	-344.038506
29.090000	-278.946806
