Time(s)	GREEN_denoised_wiener
0.000000	581.465530
0.010000	590.365074
0.020000	594.775526
0.030000	602.813296
0.040000	609.272638
0.050000	616.649857
0.060000	624.796094
0.070000	637.864932
0.080000	651.997322
0.090000	667.791775
0.100000	684.560953
0.110000	701.751324
0.120000	719.491864
0.130000	736.739456
0.140000	752.454312
0.150000	767.430540
0.160000	783.116187
0.170000	801.821333
0.180000	821.463044
0.190000	837.568981
0.200000	854.864946
0.210000	873.667323
0.220000	892.290507
0.230000	899.434766
0.240000	895.443227
0.250000	883.571726
0.260000	870.967820
0.270000	857.716799
0.280000	846.861030
0.290000	838.213143
0.300000	831.781229
0.310000	826.399020
0.320000	819.055417
0.330000	813.294917
0.340000	809.345466
0.350000	808.886054
0.360000	808.311870
0.370000	806.507836
0.380000	803.972780
0.390000	798.812716
0.400000	792.331736
0.410000	785.806369
0.420000	782.050010
0.430000	780.478698
0.440000	780.455717
0.450000	781.839531
0.460000	783.545541
0.470000	785.556226
0.480000	786.985462
0.490000	790.635080
0.500000	794.764479
0.510000	802.077250
0.520000	810.882068
0.530000	820.873396
0.540000	830.345503
0.550000	838.354177
0.560000	847.500731
0.570000	858.845622
0.580000	870.328453
0.590000	884.028999
0.600000	899.495942
0.610000	913.216841
0.620000	916.996254
0.630000	906.426913
0.640000	884.194008
0.650000	853.983829
0.660000	821.073015
0.670000	790.884148
0.680000	765.953210
0.690000	743.444939
0.700000	722.513532
0.710000	703.683590
0.720000	690.087872
0.730000	680.917693
0.740000	673.328986
0.750000	665.493030
0.760000	655.240353
0.770000	642.745398
0.780000	625.815212
0.790000	608.684814
0.800000	594.388895
0.810000	584.287809
0.820000	576.287319
0.830000	568.558477
0.840000	562.527675
0.850000	558.491741
0.860000	557.100737
0.870000	557.752671
0.880000	560.004705
0.890000	560.669225
0.900000	560.916496
0.910000	560.911559
0.920000	561.491358
0.930000	559.470083
0.940000	559.748345
0.950000	562.341111
0.960000	567.665027
0.970000	573.529569
0.980000	578.574578
0.990000	586.388199
1.000000	592.785348
1.010000	596.242694
1.020000	586.627007
1.030000	557.761904
1.040000	504.457865
1.050000	430.082879
1.060000	330.939761
1.070000	213.979450
1.080000	95.309158
1.090000	-22.848322
1.100000	-147.541415
1.110000	-265.993289
1.120000	-372.784660
1.130000	-455.716312
1.140000	-516.973193
1.150000	-563.002158
1.160000	-601.597249
1.170000	-637.600072
1.180000	-666.552451
1.190000	-689.904929
1.200000	-708.196550
1.210000	-729.255220
1.220000	-755.518605
1.230000	-783.616328
1.240000	-808.530239
1.250000	-825.339137
1.260000	-838.262406
1.270000	-847.747670
1.280000	-854.358291
1.290000	-855.177355
1.300000	-851.831339
1.310000	-847.977937
1.320000	-844.997410
1.330000	-842.139235
1.340000	-836.859074
1.350000	-830.679502
1.360000	-822.749293
1.370000	-813.592557
1.380000	-805.346883
1.390000	-797.201043
1.400000	-784.304162
1.410000	-766.192948
1.420000	-752.995810
1.430000	-759.236107
1.440000	-789.366214
1.450000	-838.627612
1.460000	-898.433639
1.470000	-957.720403
1.480000	-1009.220128
1.490000	-1051.872755
1.500000	-1089.396120
1.510000	-1124.733222
1.520000	-1156.938865
1.530000	-1183.300117
1.540000	-1202.864906
1.550000	-1219.258544
1.560000	-1235.836327
1.570000	-1256.598686
1.580000	-1279.839162
1.590000	-1304.989515
1.600000	-1327.545879
1.610000	-1345.769752
1.620000	-1359.639574
1.630000	-1369.600641
1.640000	-1377.119205
1.650000	-1382.812753
1.660000	-1386.647685
1.670000	-1384.397726
1.680000	-1378.245206
1.690000	-1368.028088
1.700000	-1357.572555
1.710000	-1346.031527
1.720000	-1335.627945
1.730000	-1324.744381
1.740000	-1310.734150
1.750000	-1295.189524
1.760000	-1279.560942
1.770000	-1265.021870
1.780000	-1247.428072
1.790000	-1228.258242
1.800000	-1206.677727
1.810000	-1181.549619
1.820000	-1156.329446
1.830000	-1140.246580
1.840000	-1145.044730
1.850000	-1170.300373
1.860000	-1211.138291
1.870000	-1258.734070
1.880000	-1304.958080
1.890000	-1342.895654
1.900000	-1369.513304
1.910000	-1388.133016
1.920000	-1399.453182
1.930000	-1404.429810
1.940000	-1402.781910
1.950000	-1397.795496
1.960000	-1393.839545
1.970000	-1393.214930
1.980000	-1395.282020
1.990000	-1399.360647
2.000000	-1404.115894
2.010000	-1407.898828
2.020000	-1408.006986
2.030000	-1404.170579
2.040000	-1398.297718
2.050000	-1389.829305
2.060000	-1380.321428
2.070000	-1368.875198
2.080000	-1355.742275
2.090000	-1339.644257
2.100000	-1319.557908
2.110000	-1299.153668
2.120000	-1277.755763
2.130000	-1254.724028
2.140000	-1230.016128
2.150000	-1202.686116
2.160000	-1174.344392
2.170000	-1144.369611
2.180000	-1115.074905
2.190000	-1086.775119
2.200000	-1056.858184
2.210000	-1021.237347
2.220000	-982.386879
2.230000	-945.434207
2.240000	-920.657009
2.250000	-914.013098
2.260000	-925.638310
2.270000	-950.638595
2.280000	-978.999223
2.290000	-1001.994557
2.300000	-1015.767005
2.310000	-1020.755724
2.320000	-1020.937805
2.330000	-1018.237777
2.340000	-1010.490447
2.350000	-997.451391
2.360000	-981.442963
2.370000	-969.737959
2.380000	-962.769242
2.390000	-959.746903
2.400000	-954.807167
2.410000	-946.827626
2.420000	-936.241289
2.430000	-924.302358
2.440000	-911.063687
2.450000	-895.498853
2.460000	-877.613459
2.470000	-859.759470
2.480000	-839.875253
2.490000	-818.751861
2.500000	-795.522890
2.510000	-771.139425
2.520000	-744.889251
2.530000	-716.250578
2.540000	-687.318971
2.550000	-659.081286
2.560000	-631.802401
2.570000	-603.962542
2.580000	-575.344611
2.590000	-544.896455
2.600000	-513.948058
2.610000	-483.884956
2.620000	-452.930325
2.630000	-419.929069
2.640000	-389.314912
2.650000	-372.044463
2.660000	-369.392664
2.670000	-376.529236
2.680000	-387.854170
2.690000	-398.067084
2.700000	-407.382792
2.710000	-410.641853
2.720000	-410.317103
2.730000	-404.589268
2.740000	-395.312310
2.750000	-383.585121
2.760000	-369.688816
2.770000	-356.304141
2.780000	-343.440927
2.790000	-332.409366
2.800000	-323.238510
2.810000	-315.562187
2.820000	-308.081901
2.830000	-300.432292
2.840000	-292.975027
2.850000	-285.013576
2.860000	-274.912673
2.870000	-261.309049
2.880000	-244.568185
2.890000	-223.312529
2.900000	-200.615054
2.910000	-174.681443
2.920000	-146.381046
2.930000	-116.093822
2.940000	-86.865501
2.950000	-60.212810
2.960000	-33.382036
2.970000	-6.382863
2.980000	21.393321
2.990000	47.061353
3.000000	71.469800
3.010000	97.468933
3.020000	123.826601
3.030000	149.167992
3.040000	174.147847
3.050000	201.498627
3.060000	227.410660
3.070000	241.771820
3.080000	244.327411
3.090000	239.351308
3.100000	231.205255
3.110000	220.882724
3.120000	211.717696
3.130000	205.705620
3.140000	203.187739
3.150000	202.151183
3.160000	202.626178
3.170000	204.559619
3.180000	209.365397
3.190000	214.922076
3.200000	219.402804
3.210000	221.918133
3.220000	224.412663
3.230000	229.213553
3.240000	234.376076
3.250000	238.810246
3.260000	241.973558
3.270000	247.384294
3.280000	255.529217
3.290000	266.590980
3.300000	278.044545
3.310000	290.440180
3.320000	303.859617
3.330000	317.922772
3.340000	334.649565
3.350000	351.361032
3.360000	369.753729
3.370000	389.429357
3.380000	409.826880
3.390000	429.130618
3.400000	446.205229
3.410000	463.812857
3.420000	482.882424
3.430000	502.126495
3.440000	523.873972
3.450000	547.068855
3.460000	568.497878
3.470000	586.988695
3.480000	604.101418
3.490000	620.879500
3.500000	628.650906
3.510000	622.085693
3.520000	603.862173
3.530000	580.275173
3.540000	557.045451
3.550000	535.760452
3.560000	517.869058
3.570000	502.547086
3.580000	489.000567
3.590000	476.642323
3.600000	467.113108
3.610000	463.048749
3.620000	461.853276
3.630000	459.092326
3.640000	452.575342
3.650000	444.457105
3.660000	436.606082
3.670000	429.795194
3.680000	423.275820
3.690000	418.449218
3.700000	415.251749
3.710000	415.752829
3.720000	419.197160
3.730000	426.037176
3.740000	434.781491
3.750000	444.968780
3.760000	452.667554
3.770000	459.560567
3.780000	467.198179
3.790000	477.130773
3.800000	487.698564
3.810000	498.683671
3.820000	512.518444
3.830000	527.537678
3.840000	542.652416
3.850000	554.030134
3.860000	566.790431
3.870000	580.486894
3.880000	596.245823
3.890000	611.914500
3.900000	629.693147
3.910000	648.646926
3.920000	660.433674
3.930000	656.024461
3.940000	635.178776
3.950000	603.732560
3.960000	569.242581
3.970000	536.079315
3.980000	505.612311
3.990000	481.078790
4.000000	461.284213
4.010000	446.396435
4.020000	434.264253
4.030000	424.366475
4.040000	416.225740
4.050000	406.978025
4.060000	394.838325
4.070000	382.249388
4.080000	367.755133
4.090000	352.843831
4.100000	336.647189
4.110000	323.768413
4.120000	314.843514
4.130000	310.006834
4.140000	308.686501
4.150000	308.890005
4.160000	309.513960
4.170000	310.758832
4.180000	315.664671
4.190000	322.931231
4.200000	333.470322
4.210000	344.743054
4.220000	356.932387
4.230000	367.529789
4.240000	377.051761
4.250000	387.636675
4.260000	399.815778
4.270000	412.053632
4.280000	424.232790
4.290000	436.453640
4.300000	450.303022
4.310000	464.160658
4.320000	477.358365
4.330000	494.197160
4.340000	509.704078
4.350000	513.534755
4.360000	496.702698
4.370000	460.884142
4.380000	413.700145
4.390000	359.540478
4.400000	305.688017
4.410000	258.510094
4.420000	218.976842
4.430000	186.123488
4.440000	156.240532
4.450000	130.064808
4.460000	108.487003
4.470000	89.647575
4.480000	71.381609
4.490000	50.543262
4.500000	27.935984
4.510000	4.755588
4.520000	-17.860936
4.530000	-38.047913
4.540000	-56.683247
4.550000	-74.201412
4.560000	-89.519300
4.570000	-101.706601
4.580000	-109.037800
4.590000	-114.242015
4.600000	-116.898998
4.610000	-118.133045
4.620000	-117.440456
4.630000	-115.378410
4.640000	-111.330133
4.650000	-104.641805
4.660000	-96.576562
4.670000	-87.587816
4.680000	-79.177396
4.690000	-71.882724
4.700000	-66.129489
4.710000	-59.521464
4.720000	-50.769556
4.730000	-40.851381
4.740000	-30.427052
4.750000	-19.196980
4.760000	-2.089777
4.770000	17.415585
4.780000	28.876672
4.790000	18.333440
4.800000	-16.142231
4.810000	-67.074625
4.820000	-126.177339
4.830000	-185.167816
4.840000	-238.906209
4.850000	-282.948061
4.860000	-319.003809
4.870000	-348.078206
4.880000	-371.788272
4.890000	-389.888425
4.900000	-405.600789
4.910000	-421.381741
4.920000	-439.431138
4.930000	-458.216675
4.940000	-478.285729
4.950000	-499.401313
4.960000	-519.821370
4.970000	-535.264146
4.980000	-546.389071
4.990000	-552.809243
5.000000	-556.648785
5.010000	-557.365441
5.020000	-555.931052
5.030000	-552.270459
5.040000	-544.560179
5.050000	-534.202627
5.060000	-522.874975
5.070000	-511.818466
5.080000	-498.196723
5.090000	-481.792933
5.100000	-463.205421
5.110000	-446.461470
5.120000	-432.222800
5.130000	-418.473847
5.140000	-402.923883
5.150000	-382.836056
5.160000	-361.325355
5.170000	-341.215038
5.180000	-319.728947
5.190000	-295.949879
5.200000	-271.490155
5.210000	-261.405562
5.220000	-271.576664
5.230000	-301.193282
5.240000	-343.664287
5.250000	-389.322787
5.260000	-430.106456
5.270000	-459.138929
5.280000	-478.255836
5.290000	-492.647466
5.300000	-505.415892
5.310000	-514.157186
5.320000	-518.263746
5.330000	-518.353024
5.340000	-520.141576
5.350000	-524.217295
5.360000	-532.371775
5.370000	-541.082575
5.380000	-548.956634
5.390000	-556.969708
5.400000	-564.886712
5.410000	-571.536009
5.420000	-574.829204
5.430000	-575.458064
5.440000	-573.116926
5.450000	-566.057309
5.460000	-555.426933
5.470000	-545.011301
5.480000	-538.417121
5.490000	-535.301619
5.500000	-531.410236
5.510000	-525.279768
5.520000	-511.739822
5.530000	-493.292129
5.540000	-469.073123
5.550000	-443.665554
5.560000	-416.404593
5.570000	-387.386792
5.580000	-356.414115
5.590000	-321.448307
5.600000	-285.783413
5.610000	-256.866155
5.620000	-244.838170
5.630000	-248.597641
5.640000	-265.232264
5.650000	-286.993277
5.660000	-307.306809
5.670000	-319.732958
5.680000	-325.078052
5.690000	-326.823233
5.700000	-328.525867
5.710000	-329.243958
5.720000	-324.640275
5.730000	-315.688298
5.740000	-302.427588
5.750000	-291.492658
5.760000	-281.534651
5.770000	-273.310915
5.780000	-265.310026
5.790000	-255.802883
5.800000	-245.432654
5.810000	-231.626515
5.820000	-216.575291
5.830000	-199.782783
5.840000	-182.395544
5.850000	-163.940797
5.860000	-143.888254
5.870000	-122.439856
5.880000	-99.051031
5.890000	-72.274971
5.900000	-42.891543
5.910000	-11.113230
5.920000	20.590629
5.930000	50.379372
5.940000	78.741919
5.950000	105.198951
5.960000	132.565478
5.970000	161.676564
5.980000	191.380635
5.990000	220.484700
6.000000	250.868451
6.010000	284.958805
6.020000	315.661492
6.030000	332.421693
6.040000	332.140208
6.050000	320.240091
6.060000	303.956242
6.070000	286.045434
6.080000	271.444408
6.090000	260.504560
6.100000	253.599243
6.110000	250.629226
6.120000	250.752434
6.130000	255.761751
6.140000	264.565216
6.150000	276.229114
6.160000	285.032806
6.170000	290.378723
6.180000	293.507171
6.190000	297.535429
6.200000	302.642288
6.210000	310.364900
6.220000	321.110212
6.230000	332.188654
6.240000	342.251478
6.250000	352.355544
6.260000	363.729949
6.270000	376.857317
6.280000	391.543692
6.290000	407.028192
6.300000	422.695354
6.310000	439.875455
6.320000	458.514446
6.330000	476.722426
6.340000	495.011736
6.350000	513.239377
6.360000	534.189021
6.370000	555.748346
6.380000	578.379011
6.390000	602.930850
6.400000	627.233339
6.410000	650.456496
6.420000	675.771607
6.430000	701.308065
6.440000	721.640029
6.450000	724.146600
6.460000	711.223230
6.470000	689.670908
6.480000	666.146505
6.490000	643.191174
6.500000	623.410676
6.510000	607.714284
6.520000	596.681560
6.530000	588.572085
6.540000	584.969409
6.550000	584.429508
6.560000	586.935882
6.570000	588.283560
6.580000	585.915104
6.590000	579.151082
6.600000	572.583871
6.610000	566.348173
6.620000	562.934329
6.630000	560.876361
6.640000	565.645875
6.650000	569.042430
6.660000	576.069182
6.670000	581.188437
6.680000	590.533489
6.690000	634.373277
6.700000	693.738392
6.710000	741.044769
6.720000	760.743710
6.730000	777.530975
6.740000	800.931773
6.750000	821.307107
6.760000	831.803405
6.770000	821.414436
6.780000	795.729900
6.790000	759.863080
6.800000	724.347240
6.810000	692.969149
6.820000	670.309376
6.830000	652.394328
6.840000	636.952107
6.850000	620.826311
6.860000	606.619866
6.870000	593.925876
6.880000	584.302169
6.890000	573.351531
6.900000	561.339687
6.910000	545.110150
6.920000	528.739387
6.930000	512.534014
6.940000	498.820179
6.950000	485.621549
6.960000	473.917852
6.970000	463.715107
6.980000	455.358420
6.990000	449.818948
7.000000	451.149275
7.010000	458.918889
7.020000	469.606644
7.030000	480.028010
7.040000	489.412148
7.050000	498.482655
7.060000	507.223617
7.070000	516.948855
7.080000	526.369076
7.090000	536.094647
7.100000	546.521552
7.110000	557.914245
7.120000	566.336549
7.130000	574.425844
7.140000	585.493896
7.150000	599.936478
7.160000	605.623761
7.170000	594.799252
7.180000	566.445468
7.190000	524.682669
7.200000	477.617851
7.210000	430.898918
7.220000	392.135063
7.230000	361.099606
7.240000	337.324089
7.250000	316.629094
7.260000	301.537025
7.270000	291.488798
7.280000	285.086179
7.290000	278.346432
7.300000	267.641172
7.310000	253.553669
7.320000	235.196660
7.330000	214.105258
7.340000	193.761695
7.350000	175.989653
7.360000	161.661304
7.370000	150.541355
7.380000	143.233392
7.390000	141.098470
7.400000	143.135481
7.410000	147.656677
7.420000	152.706301
7.430000	157.888456
7.440000	163.280863
7.450000	170.125694
7.460000	177.518273
7.470000	186.035564
7.480000	194.419020
7.490000	202.616941
7.500000	209.986149
7.510000	214.194833
7.520000	217.901281
7.530000	223.439273
7.540000	225.128317
7.550000	207.991904
7.560000	155.523154
7.570000	59.693288
7.580000	-75.362154
7.590000	-204.501233
7.600000	-305.663986
7.610000	-370.854789
7.620000	-409.917332
7.630000	-428.624850
7.640000	-436.691795
7.650000	-442.392515
7.660000	-447.450012
7.670000	-454.832198
7.680000	-462.864256
7.690000	-472.615042
7.700000	-486.284074
7.710000	-503.058920
7.720000	-522.374046
7.730000	-539.160072
7.740000	-551.475752
7.750000	-558.266962
7.760000	-558.915447
7.770000	-557.390064
7.780000	-553.681311
7.790000	-547.516352
7.800000	-539.119260
7.810000	-530.986408
7.820000	-527.232651
7.830000	-528.451254
7.840000	-532.008438
7.850000	-534.251355
7.860000	-534.129549
7.870000	-530.389193
7.880000	-524.931070
7.890000	-515.186614
7.900000	-506.760342
7.910000	-498.972184
7.920000	-487.251106
7.930000	-471.107911
7.940000	-462.114039
7.950000	-474.256077
7.960000	-509.282590
7.970000	-558.715472
7.980000	-614.124006
7.990000	-667.849806
8.000000	-712.639432
8.010000	-748.677541
8.020000	-776.829770
8.030000	-800.852992
8.040000	-820.348530
8.050000	-834.701075
8.060000	-843.875496
8.070000	-852.234561
8.080000	-863.407146
8.090000	-878.434342
8.100000	-895.270417
8.110000	-912.308788
8.120000	-927.138290
8.130000	-936.855375
8.140000	-940.685513
8.150000	-942.087093
8.160000	-940.562038
8.170000	-935.659099
8.180000	-927.112551
8.190000	-914.905246
8.200000	-901.342876
8.210000	-885.816789
8.220000	-871.256281
8.230000	-855.721612
8.240000	-839.181532
8.250000	-819.293301
8.260000	-798.459639
8.270000	-777.533827
8.280000	-757.076632
8.290000	-738.783751
8.300000	-721.024021
8.310000	-701.370939
8.320000	-675.639273
8.330000	-652.332245
8.340000	-642.600967
8.350000	-655.292957
8.360000	-685.864843
8.370000	-725.246753
8.380000	-764.467726
8.390000	-795.876124
8.400000	-820.098506
8.410000	-837.844087
8.420000	-852.407954
8.430000	-862.470804
8.440000	-865.050787
8.450000	-859.441573
8.460000	-848.708294
8.470000	-838.757636
8.480000	-831.024176
8.490000	-827.412144
8.500000	-826.334114
8.510000	-826.404004
8.520000	-824.308706
8.530000	-817.735034
8.540000	-806.959973
8.550000	-793.070982
8.560000	-776.612234
8.570000	-757.741478
8.580000	-735.931341
8.590000	-712.418659
8.600000	-690.591302
8.610000	-667.412912
8.620000	-643.930293
8.630000	-619.068915
8.640000	-593.274126
8.650000	-566.056102
8.660000	-535.948780
8.670000	-505.721504
8.680000	-473.610640
8.690000	-439.390525
8.700000	-404.609837
8.710000	-369.053565
8.720000	-330.936648
8.730000	-292.726605
8.740000	-263.947552
8.750000	-253.395413
8.760000	-259.260149
8.770000	-273.043058
8.780000	-288.241820
8.790000	-300.025268
8.800000	-306.895671
8.810000	-307.671081
8.820000	-302.883340
8.830000	-293.313065
8.840000	-280.200801
8.850000	-262.276386
8.860000	-242.858803
8.870000	-222.894161
8.880000	-205.516819
8.890000	-191.164899
8.900000	-177.493925
8.910000	-164.434983
8.920000	-151.128316
8.930000	-137.366007
8.940000	-120.748863
8.950000	-99.958532
8.960000	-77.036863
8.970000	-54.877979
8.980000	-33.307371
8.990000	-10.784298
9.000000	13.429604
9.010000	38.648805
9.020000	65.179615
9.030000	92.089126
9.040000	121.615937
9.050000	149.188656
9.060000	176.079865
9.070000	202.296575
9.080000	232.568941
9.090000	264.397119
9.100000	297.075735
9.110000	330.512441
9.120000	365.932879
9.130000	399.293657
9.140000	422.459451
9.150000	433.773630
9.160000	434.007280
9.170000	427.277676
9.180000	418.906925
9.190000	412.459019
9.200000	413.160212
9.210000	421.309521
9.220000	433.753655
9.230000	446.173402
9.240000	458.709535
9.250000	472.055927
9.260000	487.350695
9.270000	499.605953
9.280000	510.695290
9.290000	517.159512
9.300000	523.079029
9.310000	524.041770
9.320000	525.843078
9.330000	523.246248
9.340000	523.995544
9.350000	525.441850
9.360000	531.519332
9.370000	535.294412
9.380000	543.099929
9.390000	580.507400
9.400000	684.042445
9.410000	738.329664
9.420000	767.132315
9.430000	777.277026
9.440000	775.412516
9.450000	759.890145
9.460000	741.749646
9.470000	718.822594
9.480000	700.474249
9.490000	685.749343
9.500000	674.557386
9.510000	659.679514
9.520000	646.364605
9.530000	635.621376
9.540000	632.205617
9.550000	631.227072
9.560000	631.747965
9.570000	632.856804
9.580000	632.979270
9.590000	630.176456
9.600000	628.250737
9.610000	628.848046
9.620000	633.212426
9.630000	635.525023
9.640000	637.553193
9.650000	639.890470
9.660000	642.918522
9.670000	647.616146
9.680000	654.641665
9.690000	664.366498
9.700000	675.385492
9.710000	686.810596
9.720000	697.821924
9.730000	707.948155
9.740000	717.620085
9.750000	728.782536
9.760000	741.438985
9.770000	755.308943
9.780000	769.616061
9.790000	783.528128
9.800000	798.826636
9.810000	816.772253
9.820000	833.048308
9.830000	837.693999
9.840000	827.983008
9.850000	804.651779
9.860000	774.293676
9.870000	740.628232
9.880000	708.968638
9.890000	681.957277
9.900000	656.989119
9.910000	634.655033
9.920000	613.363537
9.930000	597.395509
9.940000	586.418530
9.950000	578.825714
9.960000	569.824652
9.970000	558.626773
9.980000	546.262267
9.990000	533.453454
10.000000	521.060027
10.010000	508.970532
10.020000	499.223384
10.030000	491.507474
10.040000	487.752498
10.050000	485.391619
10.060000	484.648779
10.070000	482.960888
10.080000	482.250100
10.090000	482.885218
10.100000	487.216125
10.110000	492.822306
10.120000	498.878989
10.130000	505.788481
10.140000	513.232180
10.150000	521.782665
10.160000	529.604234
10.170000	538.144592
10.180000	547.999251
10.190000	559.531090
10.200000	570.746241
10.210000	583.954422
10.220000	600.515534
10.230000	612.710958
10.240000	608.297094
10.250000	582.178375
10.260000	541.469989
10.270000	491.665680
10.280000	438.333973
10.290000	389.182951
10.300000	348.880231
10.310000	317.377760
10.320000	291.441425
10.330000	270.937969
10.340000	255.024078
10.350000	242.854772
10.360000	229.953210
10.370000	216.139687
10.380000	200.235761
10.390000	184.456602
10.400000	168.868272
10.410000	153.462357
10.420000	138.523815
10.430000	125.159108
10.440000	114.534774
10.450000	108.880541
10.460000	105.553956
10.470000	103.628135
10.480000	102.929834
10.490000	104.065671
10.500000	107.660068
10.510000	111.516273
10.520000	116.419146
10.530000	123.655413
10.540000	133.529191
10.550000	145.144762
10.560000	155.319628
10.570000	164.664371
10.580000	173.796428
10.590000	184.205889
10.600000	197.292325
10.610000	209.753670
10.620000	225.827940
10.630000	243.302573
10.640000	258.712112
10.650000	259.511697
10.660000	239.298139
10.670000	201.098198
10.680000	152.247297
10.690000	100.704196
10.700000	50.536707
10.710000	7.666042
10.720000	-27.505130
10.730000	-54.354448
10.740000	-75.873349
10.750000	-91.682317
10.760000	-103.230075
10.770000	-114.333692
10.780000	-126.564481
10.790000	-140.967650
10.800000	-157.546901
10.810000	-177.589519
10.820000	-197.834727
10.830000	-216.533616
10.840000	-229.768178
10.850000	-238.141889
10.860000	-242.688075
10.870000	-245.404914
10.880000	-246.254652
10.890000	-243.649457
10.900000	-238.814898
10.910000	-232.545590
10.920000	-225.026408
10.930000	-216.428119
10.940000	-207.893851
10.950000	-198.959657
10.960000	-189.415572
10.970000	-178.142435
10.980000	-165.595512
10.990000	-152.647074
11.000000	-139.093366
11.010000	-125.474778
11.020000	-108.568724
11.030000	-86.293608
11.040000	-65.389787
11.050000	-54.773370
11.060000	-65.538605
11.070000	-96.207189
11.080000	-140.997673
11.090000	-193.628518
11.100000	-241.762472
11.110000	-283.735002
11.120000	-315.844330
11.130000	-340.848694
11.140000	-358.574407
11.150000	-367.949664
11.160000	-371.637960
11.170000	-369.700170
11.180000	-369.712304
11.190000	-374.761963
11.200000	-384.434105
11.210000	-395.138906
11.220000	-405.820190
11.230000	-418.180875
11.240000	-430.521164
11.250000	-439.877054
11.260000	-444.550077
11.270000	-443.566466
11.280000	-439.246052
11.290000	-431.908505
11.300000	-422.936505
11.310000	-413.909409
11.320000	-404.279537
11.330000	-394.571777
11.340000	-381.938583
11.350000	-369.576109
11.360000	-355.575728
11.370000	-340.579651
11.380000	-325.205091
11.390000	-309.908452
11.400000	-297.165780
11.410000	-283.212636
11.420000	-264.787111
11.430000	-240.848922
11.440000	-219.760340
11.450000	-214.490670
11.460000	-228.700878
11.470000	-259.440535
11.480000	-300.291565
11.490000	-344.716474
11.500000	-383.869042
11.510000	-411.659843
11.520000	-429.126008
11.530000	-442.945340
11.540000	-454.361404
11.550000	-459.209389
11.560000	-457.267750
11.570000	-451.475616
11.580000	-448.511238
11.590000	-447.715268
11.600000	-449.417724
11.610000	-452.277310
11.620000	-453.981887
11.630000	-453.168998
11.640000	-448.205703
11.650000	-439.393082
11.660000	-429.429875
11.670000	-418.270081
11.680000	-405.981493
11.690000	-391.136785
11.700000	-372.861783
11.710000	-350.665031
11.720000	-324.069273
11.730000	-296.531245
11.740000	-270.935688
11.750000	-247.049388
11.760000	-223.459349
11.770000	-198.560817
11.780000	-173.317202
11.790000	-150.404077
11.800000	-127.488416
11.810000	-101.572619
11.820000	-75.001397
11.830000	-59.092885
11.840000	-60.495283
11.850000	-77.918399
11.860000	-103.631849
11.870000	-132.411149
11.880000	-157.758588
11.890000	-175.570794
11.900000	-185.556098
11.910000	-188.727639
11.920000	-187.016393
11.930000	-179.871243
11.940000	-168.809254
11.950000	-156.678700
11.960000	-144.590852
11.970000	-134.147653
11.980000	-126.030042
11.990000	-121.611937
12.000000	-118.786404
12.010000	-113.731549
12.020000	-106.881129
12.030000	-98.510703
12.040000	-91.309096
12.050000	-81.264703
12.060000	-68.073796
12.070000	-50.342224
12.080000	-29.171835
12.090000	-7.083425
12.100000	15.409224
12.110000	37.514898
12.120000	60.670054
12.130000	84.448459
12.140000	109.942109
12.150000	137.052505
12.160000	166.557025
12.170000	195.988126
12.180000	224.851211
12.190000	255.939993
12.200000	287.139159
12.210000	307.875904
12.220000	312.113530
12.230000	302.509685
12.240000	285.438790
12.250000	265.144982
12.260000	246.773911
12.270000	236.122804
12.280000	232.766025
12.290000	233.433578
12.300000	236.102342
12.310000	244.099838
12.320000	256.768511
12.330000	272.771705
12.340000	286.095981
12.350000	293.458555
12.360000	297.781312
12.370000	300.482097
12.380000	304.478250
12.390000	309.838633
12.400000	316.849935
12.410000	325.535254
12.420000	334.558687
12.430000	346.249399
12.440000	360.601804
12.450000	379.308973
12.460000	398.971684
12.470000	418.716213
12.480000	438.016560
12.490000	458.135719
12.500000	480.402275
12.510000	501.884152
12.520000	523.472423
12.530000	545.638663
12.540000	569.217426
12.550000	593.730053
12.560000	618.301782
12.570000	644.501881
12.580000	665.703970
12.590000	676.283412
12.600000	673.788430
12.610000	661.420632
12.620000	644.552280
12.630000	625.222053
12.640000	609.667608
12.650000	597.678963
12.660000	588.454427
12.670000	581.810599
12.680000	576.578141
12.690000	575.960419
12.700000	579.029917
12.710000	584.448417
12.720000	589.817982
12.730000	591.605722
12.740000	590.957876
12.750000	588.433607
12.760000	585.438835
12.770000	584.937720
12.780000	586.916768
12.790000	590.444333
12.800000	595.736073
12.810000	602.287047
12.820000	611.565401
12.830000	620.454962
12.840000	630.411595
12.850000	639.283789
12.860000	650.610748
12.870000	663.103189
12.880000	676.817265
12.890000	689.586650
12.900000	700.363511
12.910000	711.415697
12.920000	721.904188
12.930000	732.585236
12.940000	745.785097
12.950000	762.754209
12.960000	777.314458
12.970000	780.918661
12.980000	767.184874
12.990000	741.115941
13.000000	708.726075
13.010000	676.649374
13.020000	648.927711
13.030000	625.839792
13.040000	605.791286
13.050000	586.361450
13.060000	568.664501
13.070000	555.888485
13.080000	546.858495
13.090000	539.411979
13.100000	531.050478
13.110000	521.272942
13.120000	508.905663
13.130000	494.470007
13.140000	478.759434
13.150000	464.001908
13.160000	449.602737
13.170000	435.866613
13.180000	424.112208
13.190000	413.722430
13.200000	406.624804
13.210000	401.231101
13.220000	399.141706
13.230000	398.391896
13.240000	398.992315
13.250000	400.546217
13.260000	403.840512
13.270000	409.694656
13.280000	415.673490
13.290000	421.843371
13.300000	425.826175
13.310000	428.995159
13.320000	433.306242
13.330000	441.808741
13.340000	453.767714
13.350000	459.255209
13.360000	449.556988
13.370000	422.376772
13.380000	381.687278
13.390000	335.499549
13.400000	290.470293
13.410000	253.612740
13.420000	226.560955
13.430000	205.700252
13.440000	189.311877
13.450000	176.778824
13.460000	168.052038
13.470000	160.170055
13.480000	149.109586
13.490000	135.560843
13.500000	120.821722
13.510000	105.602580
13.520000	89.182129
13.530000	73.302924
13.540000	58.524097
13.550000	45.989324
13.560000	35.513170
13.570000	27.995766
13.580000	24.151764
13.590000	22.311993
13.600000	22.109905
13.610000	23.277430
13.620000	27.388347
13.630000	33.885225
13.640000	40.977918
13.650000	46.806981
13.660000	51.219295
13.670000	55.044858
13.680000	60.778300
13.690000	68.589040
13.700000	76.644131
13.710000	83.111851
13.720000	92.839901
13.730000	105.598610
13.740000	110.985255
13.750000	98.061053
13.760000	63.795786
13.770000	16.196899
13.780000	-39.090790
13.790000	-92.681300
13.800000	-140.349564
13.810000	-180.257784
13.820000	-214.310714
13.830000	-245.529799
13.840000	-270.613998
13.850000	-290.840923
13.860000	-306.274177
13.870000	-322.193633
13.880000	-340.619692
13.890000	-359.563310
13.900000	-378.330434
13.910000	-395.960950
13.920000	-412.406058
13.930000	-425.381846
13.940000	-435.185180
13.950000	-443.169065
13.960000	-448.990075
13.970000	-452.988936
13.980000	-454.489956
13.990000	-455.848577
14.000000	-456.680754
14.010000	-456.740703
14.020000	-455.570067
14.030000	-452.331208
14.040000	-448.833057
14.050000	-442.610032
14.060000	-435.474839
14.070000	-425.913739
14.080000	-414.824238
14.090000	-402.249736
14.100000	-387.205754
14.110000	-370.626242
14.120000	-352.620544
14.130000	-342.396908
14.140000	-347.734205
14.150000	-375.534922
14.160000	-420.517780
14.170000	-474.034019
14.180000	-526.335620
14.190000	-572.249915
14.200000	-612.206692
14.210000	-645.166564
14.220000	-673.792996
14.230000	-697.446137
14.240000	-716.755046
14.250000	-731.763290
14.260000	-745.431218
14.270000	-759.784239
14.280000	-776.479656
14.290000	-793.501952
14.300000	-810.239040
14.310000	-825.592320
14.320000	-840.043651
14.330000	-852.720076
14.340000	-860.550216
14.350000	-863.230305
14.360000	-862.103050
14.370000	-859.117482
14.380000	-855.028081
14.390000	-849.711250
14.400000	-843.998257
14.410000	-838.346695
14.420000	-832.007999
14.430000	-822.353357
14.440000	-808.398806
14.450000	-792.078073
14.460000	-776.837294
14.470000	-763.840197
14.480000	-749.974527
14.490000	-736.324475
14.500000	-721.482345
14.510000	-703.518213
14.520000	-680.701730
14.530000	-661.450965
14.540000	-660.315882
14.550000	-681.399727
14.560000	-719.282021
14.570000	-761.039465
14.580000	-797.637189
14.590000	-826.074220
14.600000	-846.713464
14.610000	-863.497428
14.620000	-876.825377
14.630000	-885.962966
14.640000	-889.648020
14.650000	-889.816198
14.660000	-890.522120
14.670000	-892.706569
14.680000	-896.439567
14.690000	-900.973809
14.700000	-906.405147
14.710000	-910.279896
14.720000	-911.085855
14.730000	-909.972521
14.740000	-907.477457
14.750000	-906.049647
14.760000	-903.903350
14.770000	-899.840973
14.780000	-891.705850
14.790000	-880.353134
14.800000	-865.885494
14.810000	-848.912538
14.820000	-830.111142
14.830000	-808.513208
14.840000	-783.383173
14.850000	-753.491551
14.860000	-722.380621
14.870000	-694.518025
14.880000	-669.075719
14.890000	-643.919708
14.900000	-614.476175
14.910000	-578.707007
14.920000	-539.936600
14.930000	-508.224631
14.940000	-494.444333
14.950000	-498.757820
14.960000	-513.642518
14.970000	-530.666643
14.980000	-544.226504
14.990000	-551.628054
15.000000	-552.193854
15.010000	-550.314436
15.020000	-549.870743
15.030000	-552.037543
15.040000	-557.924827
15.050000	-564.793996
15.060000	-573.699787
15.070000	-581.917064
15.080000	-590.194485
15.090000	-600.754239
15.100000	-620.077469
15.110000	-651.291982
15.120000	-692.656711
15.130000	-728.835197
15.140000	-746.952036
15.150000	-742.777992
15.160000	-723.989062
15.170000	-698.764334
15.180000	-670.722221
15.190000	-647.804365
15.200000	-630.810731
15.210000	-620.886794
15.220000	-608.578053
15.230000	-593.033917
15.240000	-573.051940
15.250000	-552.569153
15.260000	-530.552635
15.270000	-504.473864
15.280000	-474.099671
15.290000	-438.416252
15.300000	-399.026832
15.310000	-355.726388
15.320000	-315.345806
15.330000	-285.410695
15.340000	-273.035685
15.350000	-289.143931
15.360000	-336.407806
15.370000	-401.686849
15.380000	-458.783464
15.390000	-493.667216
15.400000	-499.551269
15.410000	-464.151302
15.420000	-400.488769
15.430000	-346.047444
15.440000	-320.670659
15.450000	-316.545320
15.460000	-316.927193
15.470000	-318.448785
15.480000	-317.886042
15.490000	-316.733535
15.500000	-318.217707
15.510000	-320.371813
15.520000	-312.559748
15.530000	-290.728755
15.540000	-259.292018
15.550000	-226.462834
15.560000	-194.039759
15.570000	-160.888335
15.580000	-122.143116
15.590000	-75.686967
15.600000	-21.617856
15.610000	35.804621
15.620000	94.214538
15.630000	150.596644
15.640000	199.342311
15.650000	238.702050
15.660000	268.778236
15.670000	296.797036
15.680000	328.847999
15.690000	368.522398
15.700000	414.876153
15.710000	460.868803
15.720000	494.194571
15.730000	502.185876
15.740000	486.524327
15.750000	460.841294
15.760000	440.497952
15.770000	430.440814
15.780000	430.430294
15.790000	435.333441
15.800000	441.339730
15.810000	441.858808
15.820000	438.244939
15.830000	435.033771
15.840000	435.120069
15.850000	438.508795
15.860000	439.955680
15.870000	441.311766
15.880000	438.416800
15.890000	433.106785
15.900000	428.189723
15.910000	429.552946
15.920000	436.921955
15.930000	446.298660
15.940000	454.299199
15.950000	461.699331
15.960000	470.657310
15.970000	482.408072
15.980000	497.323858
15.990000	511.750089
16.000000	527.316114
16.010000	541.057541
16.020000	553.964136
16.030000	566.675788
16.040000	580.258599
16.050000	596.942681
16.060000	617.528089
16.070000	639.847213
16.080000	654.423461
16.090000	652.733817
16.100000	633.986345
16.110000	606.625554
16.120000	576.856326
16.130000	551.499043
16.140000	531.356651
16.150000	515.681952
16.160000	502.835002
16.170000	492.515818
16.180000	486.633494
16.190000	485.325685
16.200000	486.406594
16.210000	486.112326
16.220000	482.164999
16.230000	474.553197
16.240000	466.914877
16.250000	459.967604
16.260000	455.315518
16.270000	453.694723
16.280000	454.694872
16.290000	457.402417
16.300000	459.385440
16.310000	462.771443
16.320000	468.388000
16.330000	474.448937
16.340000	481.044777
16.350000	488.442723
16.360000	501.363000
16.370000	515.059800
16.380000	529.008844
16.390000	543.662317
16.400000	558.300960
16.410000	564.225800
16.420000	552.909821
16.430000	524.796916
16.440000	485.850216
16.450000	446.363013
16.460000	411.426121
16.470000	384.240425
16.480000	362.971406
16.490000	344.764948
16.500000	329.173244
16.510000	317.276976
16.520000	309.021967
16.530000	303.102260
16.540000	293.507821
16.550000	280.260853
16.560000	264.647240
16.570000	250.409638
16.580000	240.434435
16.590000	235.536210
16.600000	233.864467
16.610000	234.649252
16.620000	237.946947
16.630000	241.071615
16.640000	244.688828
16.650000	247.806293
16.660000	253.425215
16.670000	260.513434
16.680000	268.145438
16.690000	276.206343
16.700000	283.512934
16.710000	295.233568
16.720000	311.516840
16.730000	324.555800
16.740000	321.824635
16.750000	298.549495
16.760000	259.141147
16.770000	212.539104
16.780000	168.108957
16.790000	131.836206
16.800000	103.376136
16.810000	80.110465
16.820000	59.627263
16.830000	41.038937
16.840000	24.197089
16.850000	7.947960
16.860000	-6.576851
16.870000	-21.167776
16.880000	-35.027106
16.890000	-46.965884
16.900000	-57.164593
16.910000	-65.780756
16.920000	-71.314376
16.930000	-72.279204
16.940000	-67.816110
16.950000	-60.804837
16.960000	-54.001106
16.970000	-47.339680
16.980000	-42.875570
16.990000	-38.546879
17.000000	-35.442372
17.010000	-30.760431
17.020000	-23.364135
17.030000	-12.659215
17.040000	1.027811
17.050000	17.090787
17.060000	34.735442
17.070000	42.795150
17.080000	31.429547
17.090000	-3.502021
17.100000	-50.851564
17.110000	-100.820123
17.120000	-146.491171
17.130000	-186.169831
17.140000	-222.159041
17.150000	-253.193706
17.160000	-282.189041
17.170000	-305.550365
17.180000	-322.911921
17.190000	-335.929933
17.200000	-347.321747
17.210000	-361.331066
17.220000	-376.065431
17.230000	-390.084155
17.240000	-402.828921
17.250000	-413.520687
17.260000	-423.281678
17.270000	-430.634115
17.280000	-436.759102
17.290000	-440.759187
17.300000	-440.584029
17.310000	-437.243317
17.320000	-430.422622
17.330000	-422.084313
17.340000	-410.936196
17.350000	-400.288511
17.360000	-391.127250
17.370000	-381.501806
17.380000	-367.998080
17.390000	-350.073413
17.400000	-328.890645
17.410000	-303.322404
17.420000	-280.489494
17.430000	-273.605046
17.440000	-292.094810
17.450000	-330.864626
17.460000	-377.363077
17.470000	-419.475451
17.480000	-454.005831
17.490000	-480.109332
17.500000	-499.672623
17.510000	-516.431431
17.520000	-529.676948
17.530000	-539.772812
17.540000	-544.356716
17.550000	-547.481333
17.560000	-551.715181
17.570000	-556.864959
17.580000	-561.085047
17.590000	-562.932204
17.600000	-563.143320
17.610000	-561.345392
17.620000	-559.557054
17.630000	-558.102713
17.640000	-561.664768
17.650000	-571.198365
17.660000	-580.100177
17.670000	-580.639255
17.680000	-567.891509
17.690000	-545.785884
17.700000	-517.361692
17.710000	-484.610797
17.720000	-449.847119
17.730000	-414.113106
17.740000	-378.680588
17.750000	-345.631575
17.760000	-316.860664
17.770000	-289.483890
17.780000	-260.052675
17.790000	-233.706459
17.800000	-220.604986
17.810000	-228.268131
17.820000	-251.468480
17.830000	-281.833868
17.840000	-310.008480
17.850000	-330.088128
17.860000	-341.575542
17.870000	-347.363746
17.880000	-351.156708
17.890000	-352.974284
17.900000	-349.406653
17.910000	-340.605962
17.920000	-331.012890
17.930000	-324.914886
17.940000	-322.619014
17.950000	-319.220130
17.960000	-314.582018
17.970000	-307.532790
17.980000	-300.899410
17.990000	-292.842514
18.000000	-283.565431
18.010000	-269.484660
18.020000	-251.252380
18.030000	-228.800589
18.040000	-205.958926
18.050000	-183.450009
18.060000	-161.004569
18.070000	-138.441285
18.080000	-116.059608
18.090000	-95.443960
18.100000	-75.782393
18.110000	-58.460121
18.120000	-37.492178
18.130000	-10.827453
18.140000	18.443760
18.150000	39.109630
18.160000	45.388211
18.170000	38.058543
18.180000	23.675878
18.190000	6.662492
18.200000	-6.369334
18.210000	-12.749739
18.220000	-13.095382
18.230000	-10.841309
18.240000	-7.153252
18.250000	0.405836
18.260000	10.106463
18.270000	20.650072
18.280000	27.687249
18.290000	33.241470
18.300000	40.601379
18.310000	49.152226
18.320000	60.184362
18.330000	70.715076
18.340000	81.775743
18.350000	94.943672
18.360000	110.026718
18.370000	128.842451
18.380000	148.596562
18.390000	169.748574
18.400000	190.826381
18.410000	212.325586
18.420000	233.719078
18.430000	255.905738
18.440000	280.947728
18.450000	307.141838
18.460000	334.848533
18.470000	364.043564
18.480000	394.415426
18.490000	418.258718
18.500000	428.651730
18.510000	423.822128
18.520000	412.918994
18.530000	402.713485
18.540000	398.516907
18.550000	399.589725
18.560000	402.776528
18.570000	406.806322
18.580000	408.700141
18.590000	413.045886
18.600000	420.615622
18.610000	431.285500
18.620000	438.516151
18.630000	442.212304
18.640000	447.099567
18.650000	456.471640
18.660000	469.006919
18.670000	482.732611
18.680000	496.921258
18.690000	509.994952
18.700000	522.511974
18.710000	534.259151
18.720000	547.112535
18.730000	561.189421
18.740000	577.720512
18.750000	595.450675
18.760000	614.336412
18.770000	633.046433
18.780000	651.961834
18.790000	671.981873
18.800000	691.919886
18.810000	713.597364
18.820000	731.864006
18.830000	750.241982
18.840000	771.143803
18.850000	792.546555
18.860000	805.075622
18.870000	801.195129
18.880000	784.376690
18.890000	762.194048
18.900000	740.679324
18.910000	722.188722
18.920000	707.650600
18.930000	693.510355
18.940000	680.305760
18.950000	666.833215
18.960000	657.315194
18.970000	652.151638
18.980000	649.658318
18.990000	647.140049
19.000000	641.673593
19.010000	635.482045
19.020000	627.352217
19.030000	620.509018
19.040000	615.028309
19.050000	612.212134
19.060000	611.371696
19.070000	611.253112
19.080000	614.398236
19.090000	617.951971
19.100000	624.779832
19.110000	633.311292
19.120000	644.841910
19.130000	655.662774
19.140000	664.249183
19.150000	672.028177
19.160000	681.665624
19.170000	694.729609
19.180000	707.740517
19.190000	722.116746
19.200000	736.814165
19.210000	752.514069
19.220000	769.558919
19.230000	789.252653
19.240000	805.287969
19.250000	807.987092
19.260000	791.365512
19.270000	758.417773
19.280000	718.465241
19.290000	676.507950
19.300000	639.240875
19.310000	605.246977
19.320000	572.352102
19.330000	540.663147
19.340000	508.796648
19.350000	481.767500
19.360000	458.227522
19.370000	438.881155
19.380000	420.651529
19.390000	404.342171
19.400000	388.071381
19.410000	369.805838
19.420000	350.168106
19.430000	332.947623
19.440000	320.262833
19.450000	311.083188
19.460000	304.025524
19.470000	297.888017
19.480000	293.796538
19.490000	290.020092
19.500000	289.582198
19.510000	289.804586
19.520000	291.044097
19.530000	292.587199
19.540000	294.174790
19.550000	298.712535
19.560000	304.292776
19.570000	311.511744
19.580000	319.072372
19.590000	326.981152
19.600000	337.524658
19.610000	348.437628
19.620000	360.651766
19.630000	376.563972
19.640000	394.433153
19.650000	404.333278
19.660000	391.867500
19.670000	356.472278
19.680000	305.321255
19.690000	247.949042
19.700000	192.769665
19.710000	143.075925
19.720000	101.547026
19.730000	63.178789
19.740000	26.664740
19.750000	-8.051601
19.760000	-38.881895
19.770000	-64.621546
19.780000	-87.776068
19.790000	-110.862423
19.800000	-133.667195
19.810000	-155.105579
19.820000	-174.230257
19.830000	-191.357313
19.840000	-207.467133
19.850000	-219.603774
19.860000	-229.389002
19.870000	-235.849072
19.880000	-240.323403
19.890000	-241.426608
19.900000	-237.931500
19.910000	-230.683304
19.920000	-220.546659
19.930000	-209.283011
19.940000	-198.502150
19.950000	-185.879528
19.960000	-172.474753
19.970000	-155.473420
19.980000	-138.473181
19.990000	-141.119799
20.000000	-169.777067
20.010000	-217.404831
20.020000	-261.046230
20.030000	-296.417000
20.040000	-329.018314
20.050000	-363.770475
20.060000	-400.987502
20.070000	-438.126043
20.080000	-470.293695
20.090000	-501.182158
20.100000	-537.618983
20.110000	-583.574418
20.120000	-633.595888
20.130000	-681.308476
20.140000	-722.924397
20.150000	-755.054957
20.160000	-783.957548
20.170000	-821.160883
20.180000	-867.305911
20.190000	-901.553070
20.200000	-924.725835
20.210000	-934.281540
20.220000	-933.507428
20.230000	-905.299781
20.240000	-863.386260
20.250000	-835.368797
20.260000	-825.547196
20.270000	-821.738747
20.280000	-806.372964
20.290000	-790.199532
20.300000	-782.875533
20.310000	-789.327202
20.320000	-802.023840
20.330000	-814.805325
20.340000	-823.524427
20.350000	-832.653931
20.360000	-852.053337
20.370000	-892.184434
20.380000	-952.231558
20.390000	-1020.030759
20.400000	-1079.746717
20.410000	-1121.239773
20.420000	-1138.286364
20.430000	-1133.486769
20.440000	-1111.512117
20.450000	-1083.097503
20.460000	-1058.750989
20.470000	-1043.038978
20.480000	-1035.991105
20.490000	-1034.986851
20.500000	-1035.573163
20.510000	-1032.613113
20.520000	-1022.506326
20.530000	-1006.265542
20.540000	-990.468211
20.550000	-976.249728
20.560000	-963.774057
20.570000	-949.236229
20.580000	-931.767766
20.590000	-911.906299
20.600000	-889.104771
20.610000	-863.591336
20.620000	-835.454120
20.630000	-807.630146
20.640000	-781.144045
20.650000	-755.343385
20.660000	-729.178451
20.670000	-700.398764
20.680000	-670.568633
20.690000	-639.126792
20.700000	-608.311508
20.710000	-574.182702
20.720000	-544.431023
20.730000	-527.251197
20.740000	-531.229316
20.750000	-551.961550
20.760000	-580.024520
20.770000	-608.689829
20.780000	-633.502982
20.790000	-653.103436
20.800000	-665.991039
20.810000	-674.871717
20.820000	-679.480532
20.830000	-680.986669
20.840000	-676.969362
20.850000	-671.795923
20.860000	-667.126203
20.870000	-664.279475
20.880000	-661.282349
20.890000	-658.109837
20.900000	-653.777090
20.910000	-647.949654
20.920000	-639.276473
20.930000	-627.800493
20.940000	-614.786160
20.950000	-599.652968
20.960000	-582.637879
20.970000	-563.510356
20.980000	-541.828290
20.990000	-518.711044
21.000000	-493.686407
21.010000	-466.918623
21.020000	-438.549332
21.030000	-409.800430
21.040000	-380.412506
21.050000	-349.016558
21.060000	-319.293300
21.070000	-298.245276
21.080000	-294.180860
21.090000	-303.109770
21.100000	-320.402594
21.110000	-336.630050
21.120000	-347.640830
21.130000	-354.165446
21.140000	-357.214578
21.150000	-358.370185
21.160000	-353.774187
21.170000	-343.586455
21.180000	-328.669246
21.190000	-314.481895
21.200000	-302.553071
21.210000	-293.707984
21.220000	-285.092389
21.230000	-274.267158
21.240000	-261.972063
21.250000	-247.152708
21.260000	-230.520900
21.270000	-212.033503
21.280000	-193.739140
21.290000	-174.903317
21.300000	-154.954160
21.310000	-132.767616
21.320000	-108.501704
21.330000	-82.962364
21.340000	-56.375991
21.350000	-31.826292
21.360000	-6.227664
21.370000	22.312506
21.380000	54.590658
21.390000	81.764842
21.400000	94.414403
21.410000	90.578346
21.420000	77.938983
21.430000	66.405986
21.440000	59.788491
21.450000	59.235002
21.460000	61.969571
21.470000	66.409980
21.480000	72.163602
21.490000	81.268314
21.500000	94.364138
21.510000	109.129190
21.520000	122.908099
21.530000	133.669785
21.540000	142.137959
21.550000	151.562646
21.560000	163.709397
21.570000	178.462990
21.580000	194.624166
21.590000	212.046191
21.600000	230.552476
21.610000	249.308197
21.620000	267.495099
21.630000	287.593850
21.640000	308.776872
21.650000	332.902099
21.660000	357.395341
21.670000	379.893442
21.680000	402.709479
21.690000	427.900550
21.700000	454.365047
21.710000	471.231232
21.720000	472.384392
21.730000	460.604019
21.740000	443.434795
21.750000	426.322637
21.760000	413.166167
21.770000	406.055125
21.780000	404.242203
21.790000	405.135285
21.800000	409.680974
21.810000	417.899525
21.820000	430.140884
21.830000	441.670305
21.840000	451.297970
21.850000	459.132355
21.860000	467.148150
21.870000	480.290794
21.880000	504.021566
21.890000	538.790877
21.900000	577.229163
21.910000	609.640478
21.920000	633.813469
21.930000	653.529599
21.940000	671.752159
21.950000	691.442244
21.960000	710.032759
21.970000	728.388302
21.980000	746.668965
21.990000	766.696681
22.000000	786.318891
22.010000	807.374199
22.020000	829.654909
22.030000	847.060777
22.040000	847.667033
22.050000	830.135389
22.060000	803.399844
22.070000	775.567046
22.080000	754.491452
22.090000	752.036035
22.100000	781.948054
22.110000	829.119079
22.120000	863.724364
22.130000	870.268422
22.140000	861.605625
22.150000	861.140631
22.160000	871.457053
22.170000	885.681012
22.180000	898.674182
22.190000	911.934002
22.200000	927.253284
22.210000	943.206084
22.220000	957.190520
22.230000	970.182783
22.240000	983.490209
22.250000	997.518631
22.260000	1014.155669
22.270000	1031.539284
22.280000	1049.186749
22.290000	1064.582909
22.300000	1078.254789
22.310000	1090.320726
22.320000	1101.018509
22.330000	1112.091394
22.340000	1121.132904
22.350000	1128.565253
22.360000	1135.277346
22.370000	1139.059369
22.380000	1133.104591
22.390000	1108.242409
22.400000	1070.000940
22.410000	1025.792666
22.420000	984.931185
22.430000	949.351292
22.440000	919.218494
22.450000	893.936363
22.460000	871.530499
22.470000	856.902070
22.480000	850.525361
22.490000	854.233115
22.500000	861.191279
22.510000	868.269107
22.520000	871.883975
22.530000	872.343708
22.540000	870.606279
22.550000	866.777015
22.560000	860.688770
22.570000	854.243491
22.580000	850.134130
22.590000	848.062318
22.600000	847.940503
22.610000	847.903224
22.620000	850.118104
22.630000	852.425580
22.640000	857.000791
22.650000	862.297401
22.660000	867.244303
22.670000	872.533414
22.680000	878.512713
22.690000	885.461566
22.700000	895.478256
22.710000	912.419827
22.720000	929.773735
22.730000	934.384722
22.740000	917.104889
22.750000	882.077243
22.760000	838.139838
22.770000	794.795596
22.780000	756.852333
22.790000	725.193375
22.800000	699.250804
22.810000	677.277631
22.820000	659.009479
22.830000	642.379478
22.840000	627.128735
22.850000	609.159466
22.860000	584.269453
22.870000	551.302631
22.880000	513.777546
22.890000	474.130413
22.900000	435.976183
22.910000	403.981438
22.920000	380.856177
22.930000	365.842711
22.940000	352.406450
22.950000	339.070390
22.960000	326.982818
22.970000	311.968698
22.980000	286.902694
22.990000	247.559611
23.000000	194.854354
23.010000	136.519941
23.020000	71.799744
23.030000	4.187157
23.040000	-55.551671
23.050000	-97.154782
23.060000	-124.927168
23.070000	-154.166285
23.080000	-193.937041
23.090000	-237.786973
23.100000	-280.602708
23.110000	-325.081539
23.120000	-372.249850
23.130000	-420.689094
23.140000	-458.187357
23.150000	-473.285694
23.160000	-460.127527
23.170000	-423.231696
23.180000	-378.419939
23.190000	-340.830644
23.200000	-318.013285
23.210000	-306.722004
23.220000	-299.918561
23.230000	-293.611026
23.240000	-283.479175
23.250000	-278.192241
23.260000	-273.661542
23.270000	-266.766516
23.280000	-249.487793
23.290000	-224.694975
23.300000	-203.327421
23.310000	-185.919669
23.320000	-171.822209
23.330000	-146.097129
23.340000	-93.695347
23.350000	-12.861780
23.360000	58.103918
23.370000	77.490447
23.380000	43.285779
23.390000	-14.613480
23.400000	-69.869309
23.410000	-112.757141
23.420000	-142.042082
23.430000	-163.581577
23.440000	-185.215186
23.450000	-204.038317
23.460000	-221.395367
23.470000	-238.490335
23.480000	-256.571590
23.490000	-275.267412
23.500000	-290.734707
23.510000	-305.725951
23.520000	-316.877957
23.530000	-328.201923
23.540000	-339.339965
23.550000	-350.009104
23.560000	-360.133788
23.570000	-367.809412
23.580000	-372.596693
23.590000	-372.604359
23.600000	-370.404048
23.610000	-367.395177
23.620000	-364.208612
23.630000	-361.184743
23.640000	-356.339897
23.650000	-350.314844
23.660000	-342.467872
23.670000	-333.114672
23.680000	-321.259557
23.690000	-306.583884
23.700000	-290.390099
23.710000	-273.386077
23.720000	-261.202315
23.730000	-260.191947
23.740000	-278.020030
23.750000	-313.308411
23.760000	-355.481450
23.770000	-396.434159
23.780000	-430.285004
23.790000	-458.917455
23.800000	-480.748785
23.810000	-498.415610
23.820000	-512.209582
23.830000	-522.584518
23.840000	-529.004815
23.850000	-533.096694
23.860000	-538.810604
23.870000	-546.269367
23.880000	-554.618217
23.890000	-559.436920
23.900000	-562.447536
23.910000	-561.933354
23.920000	-559.959052
23.930000	-554.757894
23.940000	-547.484034
23.950000	-538.251830
23.960000	-527.682800
23.970000	-516.084098
23.980000	-504.556407
23.990000	-491.916216
24.000000	-477.437522
24.010000	-460.421451
24.020000	-442.999573
24.030000	-423.589764
24.040000	-402.239493
24.050000	-385.783558
24.060000	-383.158801
24.070000	-397.969761
24.080000	-421.050192
24.090000	-445.837040
24.100000	-464.612436
24.110000	-479.070960
24.120000	-487.840473
24.130000	-493.322887
24.140000	-495.068407
24.150000	-491.914000
24.160000	-486.314171
24.170000	-478.841252
24.180000	-473.577625
24.190000	-470.766079
24.200000	-468.844313
24.210000	-465.029146
24.220000	-460.129189
24.230000	-453.296044
24.240000	-445.761553
24.250000	-436.565418
24.260000	-425.738520
24.270000	-414.847608
24.280000	-400.042589
24.290000	-384.491096
24.300000	-366.341603
24.310000	-348.155474
24.320000	-328.638834
24.330000	-309.169363
24.340000	-289.941689
24.350000	-270.189517
24.360000	-247.916765
24.370000	-224.227143
24.380000	-200.234185
24.390000	-175.268879
24.400000	-153.239872
24.410000	-139.991648
24.420000	-145.599581
24.430000	-164.681047
24.440000	-188.291946
24.450000	-207.045016
24.460000	-217.342683
24.470000	-222.102698
24.480000	-221.729013
24.490000	-217.839557
24.500000	-210.453472
24.510000	-199.585599
24.520000	-186.523964
24.530000	-173.343011
24.540000	-161.936508
24.550000	-153.440896
24.560000	-146.351018
24.570000	-138.546314
24.580000	-130.448403
24.590000	-120.321699
24.600000	-109.229365
24.610000	-96.434697
24.620000	-82.356054
24.630000	-66.888808
24.640000	-51.162011
24.650000	-35.349506
24.660000	-19.309640
24.670000	-2.150676
24.680000	17.869204
24.690000	38.360950
24.700000	59.378907
24.710000	78.857575
24.720000	99.225112
24.730000	120.003715
24.740000	140.394601
24.750000	161.144937
24.760000	181.550945
24.770000	204.954780
24.780000	229.015856
24.790000	247.411193
24.800000	252.133648
24.810000	240.874093
24.820000	221.269590
24.830000	199.657583
24.840000	182.062156
24.850000	171.423412
24.860000	165.497952
24.870000	162.180409
24.880000	155.915046
24.890000	146.275589
24.900000	132.321476
24.910000	110.353926
24.920000	81.064012
24.930000	46.426487
24.940000	12.809295
24.950000	-14.513293
24.960000	-35.469066
24.970000	-47.789749
24.980000	-54.103601
24.990000	-53.064701
25.000000	-45.085730
25.010000	-34.359483
25.020000	-21.066303
25.030000	-6.333013
25.040000	10.949767
25.050000	26.669598
25.060000	36.956970
25.070000	46.352424
25.080000	58.284887
25.090000	73.685473
25.100000	92.935023
25.110000	113.668024
25.120000	133.909927
25.130000	152.977798
25.140000	173.551056
25.150000	196.272280
25.160000	213.158774
25.170000	218.563434
25.180000	213.775778
25.190000	202.183894
25.200000	187.049283
25.210000	174.803214
25.220000	169.305851
25.230000	167.393337
25.240000	165.551521
25.250000	164.652204
25.260000	168.461806
25.270000	174.884934
25.280000	181.694992
25.290000	187.777277
25.300000	193.589015
25.310000	198.322627
25.320000	201.807897
25.330000	205.528921
25.340000	210.013845
25.350000	216.393184
25.360000	225.876278
25.370000	237.908826
25.380000	252.061899
25.390000	265.072811
25.400000	276.912476
25.410000	287.893760
25.420000	298.085019
25.430000	307.704367
25.440000	316.913263
25.450000	325.168838
25.460000	336.743804
25.470000	354.618768
25.480000	374.543427
25.490000	395.399509
25.500000	422.683357
25.510000	460.164241
25.520000	492.425919
25.530000	495.560900
25.540000	465.544929
25.550000	417.999940
25.560000	367.315555
25.570000	324.083461
25.580000	289.715791
25.590000	266.825008
25.600000	253.424696
25.610000	244.880485
25.620000	242.805197
25.630000	245.915677
25.640000	250.834178
25.650000	253.269157
25.660000	251.858564
25.670000	247.616415
25.680000	242.205209
25.690000	236.615528
25.700000	232.540705
25.710000	228.927239
25.720000	224.863286
25.730000	221.230454
25.740000	217.501793
25.750000	213.855282
25.760000	211.462585
25.770000	211.800383
25.780000	216.743783
25.790000	222.716364
25.800000	225.676099
25.810000	227.300324
25.820000	227.923533
25.830000	232.549118
25.840000	239.805337
25.850000	248.784266
25.860000	259.006600
25.870000	273.012520
25.880000	291.186616
25.890000	302.193119
25.900000	293.013072
25.910000	263.393033
25.920000	222.516222
25.930000	180.913947
25.940000	141.983596
25.950000	106.076830
25.960000	73.434183
25.970000	43.220126
25.980000	18.879744
25.990000	1.005319
26.000000	-7.351695
26.010000	-10.580498
26.020000	-13.267735
26.030000	-19.181611
26.040000	-28.525011
26.050000	-38.793136
26.060000	-49.806675
26.070000	-59.083153
26.080000	-66.446311
26.090000	-69.719464
26.100000	-70.113856
26.110000	-69.041750
26.120000	-65.460232
26.130000	-58.048996
26.140000	-47.163749
26.150000	-34.746620
26.160000	-22.552922
26.170000	-13.132744
26.180000	-5.953426
26.190000	2.469292
26.200000	14.288987
26.210000	24.698636
26.220000	34.526490
26.230000	48.250801
26.240000	67.736128
26.250000	81.411898
26.260000	78.259634
26.270000	55.240448
26.280000	16.113866
26.290000	-29.603285
26.300000	-73.389549
26.310000	-107.805052
26.320000	-133.604017
26.330000	-152.364444
26.340000	-165.841148
26.350000	-172.604082
26.360000	-175.445682
26.370000	-176.197032
26.380000	-177.408290
26.390000	-181.479143
26.400000	-187.050291
26.410000	-197.129776
26.420000	-207.696320
26.430000	-217.812352
26.440000	-225.028473
26.450000	-228.188896
26.460000	-228.724950
26.470000	-226.919637
26.480000	-223.112399
26.490000	-216.337742
26.500000	-206.860974
26.510000	-196.116934
26.520000	-185.634475
26.530000	-175.249604
26.540000	-163.763385
26.550000	-150.408501
26.560000	-136.255842
26.570000	-119.585017
26.580000	-98.105473
26.590000	-74.801548
26.600000	-61.003673
26.610000	-67.375344
26.620000	-92.895661
26.630000	-129.957047
26.640000	-171.147637
26.650000	-210.234889
26.660000	-242.764176
26.670000	-267.882418
26.680000	-286.746143
26.690000	-301.225259
26.700000	-309.411195
26.710000	-311.601063
26.720000	-312.114306
26.730000	-314.000494
26.740000	-319.174853
26.750000	-326.418637
26.760000	-333.593624
26.770000	-338.530875
26.780000	-340.042699
26.790000	-340.681085
26.800000	-340.846991
26.810000	-338.853440
26.820000	-334.349584
26.830000	-327.722538
26.840000	-319.547492
26.850000	-308.614946
26.860000	-296.447860
26.870000	-282.864369
26.880000	-268.044328
26.890000	-250.805229
26.900000	-234.013832
26.910000	-216.095874
26.920000	-194.676521
26.930000	-171.760664
26.940000	-159.395639
26.950000	-166.111370
26.960000	-189.781127
26.970000	-223.477925
26.980000	-258.189982
26.990000	-291.224320
27.000000	-315.950564
27.010000	-332.351476
27.020000	-343.749637
27.030000	-350.834102
27.040000	-355.581667
27.050000	-355.333463
27.060000	-354.462523
27.070000	-353.518545
27.080000	-352.371108
27.090000	-350.398581
27.100000	-348.313029
27.110000	-347.309652
27.120000	-345.275604
27.130000	-342.256420
27.140000	-335.928135
27.150000	-327.242007
27.160000	-315.940527
27.170000	-303.261571
27.180000	-288.978785
27.190000	-273.312267
27.200000	-257.048521
27.210000	-240.391298
27.220000	-223.147114
27.230000	-204.498574
27.240000	-187.285721
27.250000	-168.620092
27.260000	-145.453871
27.270000	-121.790965
27.280000	-108.002836
27.290000	-112.319284
27.300000	-129.210674
27.310000	-152.542609
27.320000	-175.780748
27.330000	-193.799805
27.340000	-203.720323
27.350000	-206.430681
27.360000	-207.034805
27.370000	-205.744779
27.380000	-200.706933
27.390000	-193.431429
27.400000	-186.745984
27.410000	-182.812879
27.420000	-180.472529
27.430000	-178.557582
27.440000	-175.895653
27.450000	-171.666497
27.460000	-164.680996
27.470000	-155.810955
27.480000	-145.160763
27.490000	-133.319925
27.500000	-121.672539
27.510000	-109.185396
27.520000	-95.215172
27.530000	-78.077774
27.540000	-59.129231
27.550000	-38.997872
27.560000	-19.075082
27.570000	1.391579
27.580000	20.943346
27.590000	38.084637
27.600000	59.287390
27.610000	84.396585
27.620000	107.252054
27.630000	114.993935
27.640000	104.881672
27.650000	82.919152
27.660000	55.817102
27.670000	31.150635
27.680000	12.044220
27.690000	-0.319283
27.700000	-9.103313
27.710000	-15.479759
27.720000	-17.939492
27.730000	-14.668720
27.740000	-7.815854
27.750000	-1.224953
27.760000	1.278572
27.770000	1.538476
27.780000	1.343627
27.790000	2.606376
27.800000	6.042882
27.810000	9.637612
27.820000	13.385183
27.830000	18.309221
27.840000	25.364862
27.850000	33.947464
27.860000	43.983605
27.870000	55.891349
27.880000	69.906158
27.890000	83.465211
27.900000	99.481433
27.910000	115.662478
27.920000	130.697121
27.930000	146.840609
27.940000	165.882615
27.950000	188.653875
27.960000	202.000817
27.970000	202.130646
27.980000	186.760975
27.990000	161.934770
28.000000	134.160242
28.010000	108.706664
28.020000	91.532582
28.030000	81.095811
28.040000	73.536417
28.050000	65.457429
28.060000	61.533627
28.070000	62.780207
28.080000	66.157582
28.090000	44.855758
